timestamp,emg1,emg2,emg3,emg4,emg5,emg6,emg7,emg8
1570178544393786,0,-1,4,1,4,7,7,0
1570178544393786,3,1,4,1,-1,-7,-11,12
1570178544394791,-1,0,3,2,0,-4,0,1
1570178544394791,-1,-2,2,0,2,0,1,4
1570178544399048,-1,-1,-2,-2,-2,0,-2,-5
1570178544399048,-9,-5,0,-4,1,3,11,-41
1570178544400902,0,2,2,-5,0,-1,-5,3
1570178544400902,-1,2,-1,-1,1,0,-4,0
1570178544404800,-2,-1,-4,1,0,0,-2,2
1570178544404800,0,-1,-5,1,-3,-4,-3,0
1570178544418720,2,-1,-6,1,0,-1,1,-1
1570178544418720,5,0,-3,3,1,-2,-7,7
1570178544426698,1,1,-4,1,0,-2,-2,-3
1570178544426698,-2,-2,-5,-2,0,3,12,-10
1570178544435677,1,-1,-1,2,0,0,3,15
1570178544435677,1,-1,-6,0,-2,-4,1,1
1570178544443657,-2,-1,-4,-1,-2,-2,0,-2
1570178544443657,4,1,-5,1,-2,1,0,11
1570178544466986,-3,-4,-2,-3,0,4,11,-6
1570178544466986,-4,-4,-1,-2,-3,1,-1,-6
1570178544469584,-1,1,1,-2,-3,6,-1,-4
1570178544469584,-7,-5,-5,-4,-5,-14,-5,6
1570178544486564,-2,-1,-3,0,-1,-3,-4,-5
1570178544486564,-1,0,-3,2,-1,0,2,-1
1570178544521530,-2,0,-1,0,4,1,1,-2
1570178544521530,0,0,1,-1,-3,1,2,-2
1570178544522444,-1,0,-2,-2,0,3,6,-1
1570178544522444,3,0,-1,-2,-2,-5,-22,9
1570178544526834,1,-3,-2,-1,-2,-1,1,1
1570178544526834,-1,-1,0,-1,1,-3,-7,-4
1570178544527530,-1,-2,0,-1,1,2,1,0
1570178544527530,-3,-2,-2,-1,0,4,14,-2
1570178544531552,-2,0,0,0,-1,-4,-3,0
1570178544531552,-1,1,-1,-1,-2,2,0,-5
1570178544547377,0,0,2,1,-1,2,3,7
1570178544547377,2,0,-2,0,-2,-4,-1,-4
1570178544554357,-2,-2,1,-4,-1,-3,-11,-3
1570178544554357,-2,-3,-4,-2,0,-1,3,-3
1570178544563336,1,0,1,1,-2,-3,-9,-7
1570178544563336,-2,-2,-1,-2,1,2,6,-13
1570178544577296,9,2,-1,1,0,-1,-10,40
1570178544577296,0,0,0,0,0,-2,-2,2
1570178544592357,1,-1,-2,0,-1,1,1,1
1570178544592357,1,3,2,1,-1,0,-1,8
1570178544593425,-2,1,-1,0,-2,0,6,-9
1570178544593425,2,1,1,1,1,-1,-6,4
1570178544615195,-2,0,-2,0,0,-4,-2,3
1570178544615195,0,0,0,0,0,0,5,6
1570178544616193,-2,0,0,-1,-1,-1,3,-5
1570178544616193,0,0,0,0,0,-1,-1,2
1570178544629158,-2,-1,-3,-2,-1,-2,-2,-7
1570178544629158,-1,-2,-1,-3,1,-1,-3,-3
1570178544638134,-3,0,-6,-1,-1,0,5,-9
1570178544638134,1,0,-2,0,-1,1,1,6
1570178544652099,-1,1,-4,-1,-1,0,1,4
1570178544652099,1,-2,-2,-1,-1,0,2,6
1570178544653094,0,1,3,0,-2,-1,1,-5
1570178544653094,-2,-2,0,-1,0,0,2,-7
1570178544675156,5,1,4,0,1,-1,-15,12
1570178544675156,-3,-2,0,-2,0,1,1,-2
1570178544676031,-2,0,1,-2,0,2,1,-4
1570178544676031,-4,-3,-1,-2,-2,-3,-6,2
1570178544689053,-1,-2,-1,-1,0,-2,2,-8
1570178544689053,0,1,0,0,2,0,4,-1
1570178544696974,1,0,1,0,0,2,0,0
1570178544696974,-2,0,-1,0,-1,-5,-1,-2
1570178544711948,1,-1,0,-1,-3,0,5,1
1570178544711948,-1,0,0,0,-2,-6,-10,-6
1570178544712931,0,-1,-1,0,2,0,3,-3
1570178544712931,-2,-1,-1,-2,0,1,5,-8
1570178544735175,-3,0,-1,-2,0,-2,-1,-2
1570178544735175,5,3,4,1,2,1,-6,5
1570178544735870,5,0,0,0,-1,2,-9,24
1570178544735870,0,0,1,-3,-4,-1,-2,2
1570178544757830,-1,0,0,-2,0,-2,10,-3
1570178544757830,-2,-1,-2,-2,-1,-1,-1,-2
1570178544758809,-3,-2,0,0,-1,2,3,-13
1570178544758809,0,0,1,0,-1,0,2,-8
1570178544772771,-3,0,-1,1,-2,0,-2,-14
1570178544772771,-7,-3,-2,-1,-2,-2,5,-16
1570178544772771,-1,-2,-3,-1,0,0,1,-6
1570178544772771,1,0,-2,0,-1,2,-3,0
1570178544794712,-3,-3,-1,-2,-1,2,-2,-2
1570178544794712,-3,-3,-4,-2,-3,-5,-5,-15
1570178544795710,-1,-1,-2,-1,-2,-2,1,-8
1570178544795710,-1,-2,0,1,2,-2,1,-2
1570178544817652,-4,-2,-2,-2,1,-1,1,-2
1570178544817652,1,0,-1,3,1,4,2,10
1570178544824632,-2,-1,-1,0,-1,0,-1,3
1570178544824632,1,2,1,-2,0,1,1,7
1570178544832612,0,1,0,-2,-2,1,0,0
1570178544832612,1,0,0,-1,-1,0,2,6
1570178544833609,-1,0,1,-1,-1,-4,-4,-2
1570178544833609,3,0,-1,1,0,1,4,5
1570178544863591,3,-2,-1,-2,-1,0,-4,9
1570178544863591,-3,0,4,1,-1,-2,-2,-3
1570178544863960,-2,1,-3,-2,1,0,0,-1
1570178544863960,-1,0,-1,-4,1,1,0,-1
1570178544869513,-1,2,1,-3,-2,-1,-2,-1
1570178544869513,-1,0,0,-2,-1,0,-2,-10
1570178544878489,-2,-1,-1,-2,0,3,4,1
1570178544878489,-2,1,0,0,-1,-2,-1,-3
1570178544892452,2,1,-2,1,1,-4,0,7
1570178544892452,1,-1,-1,0,0,1,4,3
1570178544893449,5,0,2,1,1,0,-13,12
1570178544893449,1,0,-1,-1,-2,-4,-5,1
1570178544915500,-5,-2,-1,0,-1,2,11,-8
1570178544915500,0,0,-1,-1,-3,-2,-4,0
1570178544915500,-3,-2,0,-2,-2,-1,7,-7
1570178544915500,-2,-1,-1,0,0,1,0,3
1570178544929356,0,-1,0,-1,-1,1,-3,-1
1570178544929356,-1,-1,-2,1,0,0,1,4
1570178544937594,-3,-3,-2,0,-2,0,4,-6
1570178544937594,-2,0,0,1,0,0,-2,-2
1570178544952297,4,1,-2,-1,-2,-1,0,16
1570178544952297,-1,-1,-3,-1,-3,-1,1,3
1570178544953508,-3,1,-1,0,0,-1,-4,0
1570178544953508,0,-2,-2,0,1,2,1,2
1570178544975233,-3,-1,2,-1,-1,-3,-5,-4
1570178544975233,-2,-2,0,1,0,0,0,-2
1570178544976230,0,-1,-3,0,1,-2,-5,-5
1570178544976230,5,1,1,0,1,1,-10,8
1570178544998172,-1,-1,0,0,1,1,-2,-2
1570178544998172,1,1,0,-1,-1,-1,2,4
1570178544999212,-2,0,0,-1,-1,-1,1,-7
1570178544999212,-2,-1,-3,-1,0,-2,2,-4
1570178545012486,2,0,0,1,-2,-1,-4,-3
1570178545012486,0,-2,-2,-1,0,1,-2,3
1570178545013355,0,-1,-1,0,-1,0,6,-4
1570178545013355,3,0,0,-1,-2,-3,-5,4
1570178545035074,-1,0,0,-2,2,0,-1,-11
1570178545035074,-1,0,1,-1,1,-1,2,2
1570178545036117,0,-1,-2,-1,0,2,1,1
1570178545036117,-1,-1,-1,-1,-2,-1,2,-5
1570178545059050,0,-1,-2,0,-2,-3,-7,-3
1570178545059050,0,0,-1,-1,-2,-2,-1,-5
1570178545059050,-7,-3,-4,0,-3,1,8,-15
1570178545059050,-1,0,1,0,-1,-2,-2,-1
1570178545072970,0,-1,-3,-2,0,0,3,2
1570178545072970,-2,0,1,-1,0,0,-1,0
1570178545077517,4,3,1,1,-1,-2,-2,2
1570178545077517,0,2,0,-1,-1,1,4,-3
1570178545094912,-10,-11,-3,-3,-3,-1,1,-5
1570178545094912,-4,-2,1,0,-1,-1,-1,-7
1570178545095909,1,-1,1,-2,-1,-2,-3,0
1570178545095909,1,2,-2,-2,0,2,1,2
1570178545117850,2,3,1,0,1,-2,0,6
1570178545117850,0,0,-1,-1,0,-1,-1,3
1570178545118847,-2,-3,1,-1,-2,0,-4,-2
1570178545118847,-1,-1,0,0,0,0,3,-2
1570178545131812,0,1,0,1,0,-2,-7,2
1570178545131812,0,-2,-2,-1,-1,-1,-2,-2
1570178545139791,2,2,1,1,0,0,-2,2
1570178545139791,0,-3,-2,-1,-2,-1,2,5
1570178545154750,-2,-3,0,-2,-1,0,0,-3
1570178545154750,2,-1,-2,-2,2,-1,-2,1
1570178545155747,1,-1,-1,-1,-1,-2,-3,5
1570178545155747,-2,-2,-2,-1,-1,-1,-1,-3
1570178545177690,-2,0,1,1,-2,0,1,-8
1570178545177690,2,2,-1,3,0,2,-4,9
1570178545179684,-2,0,-1,-1,-2,-1,-2,0
1570178545179684,-2,-1,0,0,-2,-5,-2,-2
1570178545192670,-1,0,1,-3,1,-3,0,-2
1570178545192670,1,-1,-1,0,-3,0,1,0
1570178545193646,-2,-2,-2,-1,-1,1,1,-2
1570178545193646,1,-1,-3,-1,0,0,-5,3
1570178545214591,2,0,-2,-3,0,1,0,7
1570178545214591,-3,-2,-2,0,0,-2,1,-3
1570178545215689,-1,1,1,-2,-1,0,0,0
1570178545215689,0,-2,1,-1,0,-2,-3,-4
1570178545238525,1,-1,-1,0,-2,1,-2,-2
1570178545238525,-2,-1,0,0,-2,-1,-1,-2
1570178545238689,-1,0,-1,0,-1,-2,-1,-1
1570178545238689,-1,-1,0,-1,-1,0,0,-3
1570178545252488,0,0,1,1,-2,-1,-1,1
1570178545252488,-3,-2,-1,-2,-1,-2,-6,-18
1570178545253486,2,-3,0,-2,2,-1,0,1
1570178545253486,1,-2,0,1,1,-1,2,-1
1570178545274430,2,1,-2,0,2,2,1,2
1570178545274430,0,1,-1,-1,1,-2,1,0
1570178545275681,0,-1,-1,-1,0,0,-4,-3
1570178545275681,0,0,0,-1,-1,1,0,-4
1570178545298366,3,1,2,1,-2,-2,-13,10
1570178545298366,0,1,-1,1,0,1,-3,5
1570178545299365,-1,0,-1,-1,1,0,1,0
1570178545299365,-2,-1,0,-2,-1,-1,0,4
1570178545312329,-1,0,-1,1,1,-2,2,-5
1570178545312329,-2,-2,-1,-1,0,0,5,3
1570178545313327,1,-2,0,1,-1,0,-2,5
1570178545313327,-4,-1,-1,0,-1,-3,-5,-18
1570178545335267,-2,-2,-2,-1,-2,-2,0,-6
1570178545335267,5,0,-1,-1,-1,-1,2,14
1570178545335267,-1,-1,0,0,-1,-1,1,0
1570178545335267,0,0,-2,-2,-2,2,1,3
1570178545358271,0,-1,-1,0,0,0,-2,0
1570178545358271,-1,0,1,0,-1,-1,-4,-2
1570178545359204,0,1,0,-1,-1,-1,-1,-1
1570178545359204,1,0,0,0,0,0,0,-1
1570178545372557,1,-2,-1,-2,0,0,2,0
1570178545372557,-1,-2,0,-1,1,0,1,-4
1570178545373166,-1,0,0,0,1,0,1,-1
1570178545373166,-3,-2,-1,-1,1,0,0,-2
1570178545395249,-3,0,0,0,1,0,13,-14
1570178545395249,0,-2,0,-1,-1,-2,-2,-1
1570178545396108,0,-2,-1,-2,-2,-1,0,0
1570178545396108,0,1,-1,-1,-2,0,0,3
1570178545418047,2,1,2,-1,0,0,-4,-2
1570178545418047,-1,-2,0,-2,-2,-1,2,-4
1570178545419044,1,-1,-1,1,-2,-1,-1,-1
1570178545419044,1,0,2,0,-1,1,0,1
1570178545432008,-2,0,0,2,-3,-1,-3,2
1570178545432008,-4,-2,-2,-2,-1,-1,-6,-24
1570178545433006,-3,-1,0,-1,-1,0,-1,4
1570178545433006,-1,-1,-3,-1,-1,-1,2,-2
1570178545454946,-2,1,-2,-1,-1,-1,-4,-5
1570178545454946,3,2,-1,0,1,0,-1,6
1570178545455945,-1,-2,-1,-1,-1,0,3,-4
1570178545455945,1,-2,-2,-1,0,0,-1,2
1570178545485867,0,-2,0,0,0,0,-2,2
1570178545485867,-1,-1,0,-1,0,0,1,3
1570178545486864,0,0,0,-2,1,0,-2,0
1570178545486864,-1,0,1,-3,-3,1,0,6
1570178545500825,-1,-2,-1,-3,-2,0,4,-6
1570178545500825,2,3,1,0,1,0,-9,11
1570178545501822,4,1,1,-1,1,-5,-10,4
1570178545501822,-3,2,1,0,-3,-3,-7,-5
1570178545522766,-2,-2,0,-1,-1,0,1,-1
1570178545522766,1,-3,-2,-1,-1,-1,2,1
1570178545523934,-3,-2,-3,0,0,1,3,-2
1570178545523934,1,-2,-2,-1,-1,1,-1,2
1570178545537726,-1,-1,-1,-1,0,-3,-7,-4
1570178545537726,-1,1,1,2,0,-2,0,-1
1570178545538785,-1,-1,0,-1,0,-1,-2,-4
1570178545538785,-2,-2,-2,0,2,0,0,-4
1570178545560665,-2,0,-2,-3,-1,-1,-1,3
1570178545560665,-2,0,-3,-1,-1,3,2,-1
1570178545561663,0,0,0,0,0,0,2,-5
1570178545561663,2,-1,0,0,-2,0,1,3
1570178545583604,2,1,1,1,0,-1,-1,4
1570178545583604,1,1,-2,1,0,-2,-1,1
1570178545584601,1,-1,-5,0,-1,-1,2,-1
1570178545584601,0,0,-1,0,1,0,1,-2
1570178545596569,-2,-1,-1,-2,-1,0,2,-2
1570178545596569,-3,0,1,1,-1,0,3,-3
1570178545605579,-3,-1,0,1,-1,-1,3,0
1570178545605579,0,-1,0,1,0,-1,2,-2
1570178545620523,3,-1,-1,1,-1,-1,0,5
1570178545620523,-3,-1,1,-3,-2,1,0,-5
1570178545622500,-2,0,0,-1,0,-1,4,8
1570178545622500,0,-2,-1,-1,0,0,-2,0
1570178545643443,0,0,-1,-1,1,1,2,0
1570178545643443,1,-1,0,0,0,-2,-3,-1
1570178545644440,1,1,1,0,-2,1,-1,-5
1570178545644440,-2,-1,-2,0,-1,-1,0,-1
1570178545656444,1,-1,-1,0,0,1,-1,6
1570178545656444,-1,-1,-1,-1,-2,-1,-4,-8
1570178545665468,1,1,0,-1,0,0,1,3
1570178545665468,-1,0,2,-1,-1,0,-1,0
1570178545680345,0,-3,0,-1,0,2,-2,-3
1570178545680345,0,-1,0,0,-1,-3,-2,-2
1570178545682384,-2,-1,-2,-2,0,0,-2,-3
1570178545682384,1,1,0,-1,2,0,0,1
1570178545703373,-2,0,-2,0,-1,-2,1,3
1570178545703373,0,1,-1,0,0,1,3,4
1570178545704282,0,-1,-1,-2,-3,1,-2,0
1570178545704282,-1,-1,-3,-2,-3,-1,-2,2
1570178545717473,-1,0,1,1,-2,-1,0,-3
1570178545717473,0,0,1,1,0,-2,-1,1
1570178545724227,-2,-2,1,-2,-1,-1,5,-8
1570178545724227,1,0,0,0,2,0,5,10
1570178545740761,-1,-1,-1,0,1,0,-2,-2
1570178545740761,3,-1,-2,-1,-1,1,2,4
1570178545742180,1,4,1,2,1,-3,-6,3
1570178545742180,-6,-7,-1,2,-1,-2,-6,-8
1570178545763124,0,-5,-4,-1,-4,0,6,-20
1570178545763124,1,1,-2,-1,-1,0,-7,7
1570178545765118,-4,-6,-2,-3,-3,0,-2,-4
1570178545765118,2,3,2,0,0,-1,-1,-2
1570178545777086,-2,0,2,0,2,0,-1,1
1570178545777086,0,-2,-1,0,1,-1,0,-4
1570178545784501,2,1,2,2,0,-2,-1,-1
1570178545784501,0,2,-3,-1,1,1,0,1
1570178545801047,1,1,-1,-2,0,0,-2,7
1570178545801047,-3,-4,-2,-2,0,-1,0,3
1570178545802083,-39,-13,-4,0,1,1,6,-6
1570178545802083,88,55,11,3,-3,-2,-3,11
1570178545830943,-57,-20,0,-6,-1,-1,-6,-4
1570178545830943,39,-5,-1,4,1,3,3,1
1570178545831940,-62,-62,-17,-6,-4,-5,-9,-29
1570178545831940,25,-3,2,2,-1,-1,-2,-20
1570178545837923,21,5,-4,-1,0,-2,-14,16
1570178545837923,60,66,25,6,1,4,4,35
1570178545844061,90,70,31,17,7,8,10,29
1570178545844061,9,-56,-39,-22,-13,-15,-22,-37
1570178545860861,54,2,-3,4,-4,-5,1,3
1570178545860861,-35,-20,-24,-12,-2,3,15,-32
1570178545861859,-1,-5,20,21,11,6,-23,100
1570178545861859,-44,11,-8,-11,-6,-2,-7,0
1570178545882804,61,-8,-31,-16,-11,-6,-4,-7
1570178545882804,-51,-76,-9,3,-3,-4,-15,-12
1570178545884799,85,59,3,4,4,-1,-11,13
1570178545884799,55,23,-19,-8,0,-1,8,-4
1570178545897798,-98,-35,18,9,4,3,-9,-2
1570178545897798,71,4,0,7,9,9,-5,16
1570178545904746,-39,-66,-26,-17,-20,-31,-9,-22
1570178545904746,-49,-30,1,5,-1,-16,-15,-61
1570178545920947,48,57,-3,-8,-4,-7,5,30
1570178545920947,32,36,17,5,3,12,15,27
1570178545922697,-37,-19,9,5,3,0,1,-27
1570178545922697,59,29,-1,-2,3,21,10,7
1570178545942646,7,-2,9,4,11,24,14,20
1570178545942646,-16,8,11,1,-4,-5,1,50
1570178545944639,4,5,-9,-11,7,-12,-1,6
1570178545944639,-33,-5,16,11,3,25,8,28
1570178545956605,35,24,8,-1,-10,1,0,-20
1570178545956605,-73,-41,-12,-4,-10,-8,1,-34
1570178545965651,-42,-15,-5,-6,-5,-5,7,-17
1570178545965651,34,5,11,5,2,-4,0,24
1570178545980542,-33,-14,-2,0,4,-9,-7,-17
1570178545980542,-5,7,-9,-10,-5,0,-2,-21
1570178545982537,30,3,0,-2,-4,7,8,-9
1570178545982537,-53,-3,11,5,4,-2,0,9
1570178546003481,-5,-13,-5,0,-3,-1,3,0
1570178546003481,-1,26,14,0,-1,-6,0,-16
1570178546004478,10,-20,-7,-6,1,12,1,-5
1570178546004478,-11,12,15,8,6,0,6,15
1570178546016447,-70,-38,-18,-10,-9,-13,2,-69
1570178546016447,26,-3,-5,-2,-1,5,8,26
1570178546025422,14,22,0,-2,-1,1,-2,-11
1570178546025422,11,-1,-7,0,-2,1,0,16
1570178546040405,14,15,10,9,2,-2,5,6
1570178546040405,-31,-15,-6,-2,0,1,-12,-37
1570178546042377,6,20,3,0,1,10,17,-7
1570178546042377,3,1,11,8,5,9,8,16
1570178546063321,58,37,9,3,5,2,8,-43
1570178546063321,-34,-30,-28,-20,-15,-37,-28,-40
1570178546064318,61,33,2,-2,-3,15,4,18
1570178546064318,-73,-47,-15,-9,-8,-11,0,-25
1570178546076514,27,31,11,5,4,12,-2,15
1570178546076514,15,-33,-8,4,3,3,3,10
1570178546086260,-11,-6,-5,-3,-6,-11,-6,-25
1570178546086260,-17,-14,0,-1,0,-1,5,2
1570178546102217,-9,-3,-2,-3,0,-3,-3,24
1570178546102217,4,20,5,1,0,-1,2,-13
1570178546108769,-19,-9,-1,2,0,1,-5,0
1570178546108769,15,6,1,2,1,3,2,11
1570178546123161,3,-7,-1,-1,0,-1,-1,25
1570178546123161,5,4,7,4,6,1,-3,3
1570178546125166,3,11,-2,-2,1,4,-2,-12
1570178546125166,49,12,0,-1,-4,-5,-8,4
1570178546146100,30,3,-6,-4,-6,-8,-7,-1
1570178546146100,12,0,4,2,-1,3,5,0
1570178546147097,-16,-12,-2,-1,-2,-1,1,0
1570178546147097,-5,7,1,-3,-3,-4,0,-2
1570178546161095,-20,-19,-10,-8,1,0,-2,11
1570178546161095,-8,7,3,5,7,12,6,9
1570178546162058,16,9,8,6,8,2,3,7
1570178546162058,-13,-9,2,5,-1,-2,-9,-5
1570178546183001,-15,-14,-16,-21,-16,-4,1,0
1570178546183001,12,7,-7,7,2,-7,0,7
1570178546184996,5,15,-3,2,-1,-3,1,0
1570178546184996,2,37,52,22,15,4,1,-4
1570178546196963,-18,-23,-10,-9,10,6,0,2
1570178546196963,0,-24,-13,0,2,4,4,1
1570178546205939,-18,-30,-23,-17,-9,-3,-3,-4
1570178546205939,7,-6,-21,-5,3,4,5,6
1570178546219903,5,23,36,20,1,-1,-12,18
1570178546219903,-14,-12,-7,-16,-15,-9,5,-79
1570178546226884,1,-5,-6,-3,-2,-1,-12,29
1570178546226884,-1,11,-11,-11,-8,-2,-2,15
1570178546243838,47,69,9,3,-5,-3,2,5
1570178546243838,-64,-76,-7,10,0,-4,-13,-27
1570178546245833,3,-11,3,2,-2,-4,-5,-22
1570178546245833,-6,-6,-3,-8,-11,-7,18,-96
1570178546256803,-56,-31,-10,6,1,3,23,-7
1570178546256803,17,49,16,-2,2,2,3,38
1570178546265779,45,14,4,-2,1,2,7,6
1570178546265779,-17,-5,-17,-9,-5,-7,-11,-9
1570178546279741,-21,-2,-8,-4,-2,-3,-2,-18
1570178546279741,-22,4,6,4,2,5,-5,-2
1570178546286723,-16,-24,-9,-4,-11,-8,1,4
1570178546286723,16,-10,2,5,8,-3,-3,35
1570178546302681,79,25,15,10,12,33,18,17
1570178546302681,1,11,-11,-14,-12,-12,-9,15
1570178546304710,-55,-34,2,-4,4,-5,-3,-11
1570178546304710,14,12,8,-4,5,9,15,31
1570178546317015,-3,-16,-4,-12,-8,-29,-33,-16
1570178546317015,-17,-4,-5,-11,0,20,-5,10
1570178546326617,33,40,12,17,-2,-5,2,-15
1570178546326617,-9,-26,-6,5,-13,-5,-5,12
1570178546339736,-61,-32,2,16,4,-7,-2,-15
1570178546339736,73,52,0,2,-1,3,4,-14
1570178546346564,-19,-13,-4,1,-12,-8,-11,3
1570178546346564,-3,12,5,4,0,0,-3,-2
1570178546363518,6,-8,-1,4,-4,-6,-1,7
1570178546363518,3,0,6,-3,4,-3,-2,8
1570178546364516,3,14,2,-5,3,8,6,2
1570178546364516,13,-1,-5,-3,-1,-4,-7,6
1570178546376484,-8,-15,-7,-9,0,3,-3,-14
1570178546376484,11,2,3,-2,1,-4,5,23
1570178546385512,3,8,0,-5,4,0,1,-3
1570178546385512,-27,-13,-5,-8,1,4,-2,-11
1570178546400420,4,-4,1,0,2,-3,-3,7
1570178546400420,1,8,2,-2,-1,-3,3,-1
1570178546406429,-2,5,1,-4,0,0,-5,17
1570178546406429,-7,-8,0,0,1,-1,-5,7
1570178546423358,11,-2,-4,0,-1,4,4,-1
1570178546423358,8,9,7,8,1,-3,-16,16
1570178546424382,-4,-5,-1,4,1,5,4,-21
1570178546424382,5,0,0,3,3,3,-1,51
1570178546445300,15,-1,1,3,2,2,3,-1
1570178546445300,-18,2,-1,1,-1,-25,2,10
1570178546447370,-15,-3,-8,-3,-4,5,0,-12
1570178546447370,-4,-7,-2,1,-1,2,2,-3
1570178546460260,23,16,-3,0,-2,-2,1,-14
1570178546460260,-12,-15,0,1,3,5,1,2
1570178546467242,2,8,4,0,1,-1,-3,0
1570178546467242,30,-2,-7,-4,0,-1,-2,-6
1570178546483198,-24,-7,1,13,-3,0,-4,11
1570178546483198,8,2,0,3,-1,4,3,-9
1570178546485194,10,7,4,1,0,-3,-4,10
1570178546485194,-11,-5,-1,-1,0,2,0,-17
1570178546505284,-26,-13,0,-3,1,-3,-2,-3
1570178546505284,18,9,-7,-6,-4,3,14,-14
1570178546507548,-6,-8,-6,-8,0,-2,10,-9
1570178546507548,-2,4,-1,-9,1,-3,-5,0
1570178546519102,-9,-5,-1,-9,0,0,-3,2
1570178546519102,1,3,4,2,-2,0,4,8
1570178546528348,21,5,3,-3,2,4,-1,-12
1570178546528348,-3,-8,-1,10,-1,-4,0,-12
1570178546543089,-26,1,4,8,1,-1,2,4
1570178546543089,10,-9,-7,0,-2,6,-2,-1
1570178546545033,5,3,-1,3,3,-1,1,-8
1570178546545033,16,12,-2,3,2,3,3,83
1570178546566012,4,-3,-4,-2,0,-2,0,-3
1570178546566012,13,3,-1,-3,-1,-2,-4,22
1570178546566974,-38,-12,-2,7,-4,-1,-4,-17
1570178546566974,1,4,7,2,-1,-4,-20,-22
1570178546578963,26,16,0,-2,-1,0,0,8
1570178546578963,-4,-3,-3,-5,-1,-2,-1,5
1570178546588556,2,-3,-1,-5,1,-2,2,1
1570178546588556,-26,-9,-3,-3,-2,-1,1,-24
1570178546602879,-4,-4,1,-3,-1,-2,-3,0
1570178546602879,0,2,4,-1,2,0,-4,-10
1570178546604873,-9,-8,1,0,0,-2,0,11
1570178546604873,-4,4,-1,0,-2,-2,2,-28
1570178546625850,11,-3,-4,-3,-2,-1,-1,11
1570178546625850,3,4,-2,1,-3,-2,1,-3
1570178546626815,-4,4,1,0,-2,-2,-7,-12
1570178546626815,4,-6,-8,-7,-2,-2,-1,8
1570178546639781,-3,-4,-2,-4,-1,-1,-2,0
1570178546639781,-1,-3,0,1,1,-1,0,-6
1570178546646762,8,3,-1,2,1,-1,0,10
1570178546646762,-11,-13,-3,-1,0,0,2,-18
1570178546662720,11,5,-9,-8,-4,-4,-5,-9
1570178546662720,10,2,-2,1,3,3,3,6
1570178546664759,-3,-1,-8,3,0,1,5,22
1570178546664759,-13,-11,-12,-4,-6,-5,5,-37
1570178546685659,-12,-6,2,8,3,-1,-4,6
1570178546685659,6,7,3,3,0,9,3,-6
1570178546687654,3,-4,4,-1,-1,-1,-2,3
1570178546687654,0,9,12,0,0,3,4,2
1570178546700504,-2,1,8,-5,0,-3,0,0
1570178546700504,-15,-11,7,-5,-1,-2,-3,-3
1570178546706697,-4,-5,2,-4,-1,-1,-4,-3
1570178546706697,1,3,2,-3,-1,-1,-2,1
1570178546722561,-7,1,0,1,-1,2,0,-7
1570178546722561,-1,1,-2,1,-1,1,2,2
1570178546730538,4,-3,-5,2,0,-1,0,2
1570178546730538,-2,0,-5,0,-2,-3,-5,-2
1570178546745497,7,1,-2,-1,-2,0,4,5
1570178546745497,-17,0,2,8,4,-1,1,-4
1570178546747493,9,10,4,3,1,0,-1,2
1570178546747493,14,-6,-5,-5,-2,0,-3,0
1570178546760457,-6,4,2,2,1,0,-1,-2
1570178546760457,11,-5,-4,-3,-3,-2,-3,-5
1570178546766537,-5,6,0,-6,-3,3,18,-26
1570178546766537,-4,8,8,7,2,-1,-3,2
1570178546783418,2,-13,-8,-3,0,1,0,-2
1570178546783418,8,15,3,-4,-2,-5,-5,-8
1570178546785160,-13,-6,-3,-1,-2,-1,0,-8
1570178546785160,3,-1,-1,-1,-1,3,5,12
1570178546806422,8,-12,-8,0,-1,-1,2,5
1570178546806422,-15,-3,0,-1,-2,-2,1,-7
1570178546807333,8,11,-1,-2,-1,-2,-5,6
1570178546807333,-14,6,8,5,2,-1,-2,-7
1570178546820335,13,-6,-3,-1,-2,-1,-3,-1
1570178546820335,3,-5,-4,-1,0,-1,-4,9
1570178546827282,1,-3,0,-1,-1,0,-6,4
1570178546827282,-2,2,-2,-3,-2,-1,0,6
1570178546843238,-22,-15,-1,0,1,2,0,-12
1570178546843238,17,21,3,2,-1,-2,3,6
1570178546845290,-8,-1,-2,-2,-2,-3,-15,9
1570178546845290,-7,-9,-5,-3,-2,-1,6,-57
1570178546865178,-8,10,5,1,2,1,2,9
1570178546865178,-14,-14,-4,-5,0,0,-1,-9
1570178546873227,7,-4,-3,1,-2,-1,0,0
1570178546873227,8,0,-5,-4,-2,-5,-7,-6
1570178546880143,2,6,1,1,0,-1,-3,-5
1570178546880143,-2,-2,1,1,-1,-2,-4,-2
1570178546887122,-6,-4,1,0,1,1,4,6
1570178546887122,4,0,-2,-4,-2,0,1,17
1570178546903202,4,4,-2,0,-5,-1,-1,2
1570178546903202,-1,-1,-1,1,0,0,-3,6
1570178546905073,-8,-12,-3,0,1,1,0,0
1570178546905073,-15,-9,-2,2,1,-1,-4,-4
1570178546926042,31,23,2,1,0,0,-1,4
1570178546926042,-11,-4,-3,-5,-3,-5,-1,-9
1570178546927017,4,-5,0,-2,-1,-1,-2,9
1570178546927017,-6,-2,-2,2,1,1,1,10
1570178546947957,0,0,2,1,0,2,6,9
1570178546947957,-15,-5,0,1,2,2,2,-1
1570178546949956,-8,-3,-3,-4,-5,-6,-7,-17
1570178546949956,14,15,-1,0,-2,-2,-5,12
1570178546963001,-16,-7,-4,-5,-3,0,7,-35
1570178546963001,6,-2,0,1,3,1,-2,20
1570178546965224,-7,-7,-2,1,1,-2,-2,-17
1570178546965224,13,2,-1,2,1,1,2,10
1570178546985857,-10,-5,-1,0,-3,-1,-1,-2
1570178546985857,15,3,0,0,-1,-1,-3,7
1570178546987851,-11,5,-1,-1,-1,-1,-6,-11
1570178546987851,-5,-6,0,-2,-2,0,1,-1
1570178546999924,0,-1,-4,-5,-4,-4,-6,-5
1570178546999924,11,9,2,0,-4,0,4,16
1570178547008794,13,9,2,2,2,0,2,7
1570178547008794,-5,-6,1,-2,1,1,0,8
1570178547023755,12,6,0,2,0,-2,-3,5
1570178547023755,-33,-19,-3,-1,-1,-2,2,0
1570178547024753,35,14,3,1,1,2,6,6
1570178547024753,-34,-23,-2,1,0,-1,-1,-11
1570178547046269,12,10,3,0,-1,0,-2,-2
1570178547046269,-19,1,-6,-8,-5,-6,-7,-26
1570178547047695,-7,-4,2,1,1,-2,3,5
1570178547047695,9,5,0,-1,3,14,0,-5
1570178547059830,-23,-15,-1,1,0,-3,-4,-7
1570178547059830,8,7,1,5,2,2,5,0
1570178547068649,-6,-6,-2,-1,-3,5,-1,1
1570178547068649,-4,8,1,-2,15,10,7,-3
1570178547083797,-13,-10,-2,-3,-6,0,-1,-9
1570178547083797,33,13,-1,0,0,7,2,-4
1570178547085590,-16,-2,-1,-1,-2,-10,-10,-9
1570178547085590,43,25,3,3,0,-21,-6,3
1570178547105656,-45,-35,-8,1,6,4,0,2
1570178547105656,-10,-9,0,-4,-14,-4,-2,-4
1570178547107610,-7,-5,-2,2,-4,-3,0,-4
1570178547107610,18,15,2,0,-10,2,-1,16
1570178547119713,25,7,2,-2,10,-2,0,8
1570178547119713,-2,-4,0,-1,6,-6,-2,-8
1570178547128670,1,0,2,2,-8,6,3,6
1570178547128670,-11,-10,-1,5,-33,-2,4,1
1570178547143659,39,25,4,-4,40,1,-2,8
1570178547143659,-69,-36,-7,-1,8,6,-1,-4
1570178547145031,13,12,1,2,-16,0,1,1
1570178547145031,-14,-9,-1,6,-8,0,0,-1
1570178547165384,-6,2,-2,-5,29,0,-3,5
1570178547165384,17,15,4,-11,29,-1,0,-9
1570178547167541,-3,-7,-3,-5,9,-1,-2,4
1570178547167541,-41,-22,-7,-8,-11,-14,-8,-9
1570178547179338,5,6,3,7,-13,1,4,11
1570178547179338,9,-4,0,2,-3,4,10,22
1570178547188315,-1,0,-2,-4,-22,12,16,-21
1570178547188315,7,3,-4,-2,18,5,-4,-23
1570178547202671,6,3,3,2,-12,-6,3,6
1570178547202671,5,0,-4,-2,6,-10,-15,7
1570178547209468,-12,-3,0,-4,-7,2,5,-6
1570178547209468,1,-1,-1,-1,-2,-1,1,-6
1570178547225277,12,4,-1,-1,-8,2,6,25
1570178547225277,3,2,2,4,-14,15,5,-7
1570178547227212,11,3,-1,0,23,-6,-1,20
1570178547227212,1,1,1,-3,11,-2,-3,-3
1570178547239188,-18,-8,-5,-6,-22,-7,-8,-10
1570178547239188,19,1,0,1,-9,0,-4,6
1570178547248207,19,19,-2,-3,-10,-5,-14,5
1570178547248207,-1,-6,-3,-7,6,4,22,27
1570178547263116,2,0,0,3,-13,-1,1,-5
1570178547263116,-1,-4,-2,3,-10,-3,2,-7
1570178547269278,-4,-10,1,4,17,5,1,17
1570178547269278,4,3,-1,-3,-5,3,0,-7
1570178547286244,-5,-4,0,-3,-18,-7,-1,-4
1570178547286244,0,4,3,4,27,7,6,0
1570178547287125,-1,-5,-2,-6,-5,8,-2,-10
1570178547287125,3,2,0,5,16,-3,-5,1
1570178547300073,-3,-3,-2,-2,-18,-5,-3,-6
1570178547300073,-7,-1,-1,-1,-3,-7,-4,-17
1570178547307998,3,0,-1,-3,-7,-11,-2,10
1570178547307998,-4,0,-2,1,1,5,-2,-2
1570178547322956,0,0,-2,-3,9,3,0,5
1570178547322956,8,7,2,-1,-12,-10,-14,8
1570178547329936,-7,-2,1,5,8,-1,-5,-4
1570178547329936,3,-1,0,-1,-6,-5,-4,3
1570178547345899,-8,2,1,1,0,3,5,-46
1570178547345899,4,3,-1,0,-14,-3,4,15
1570178547346896,-2,-4,0,2,14,2,6,5
1570178547346896,13,4,2,3,2,-1,-9,45
1570178547367844,3,4,0,-1,-5,0,-1,3
1570178547367844,0,-4,-2,-2,-2,1,2,-2
1570178547369835,0,-1,0,-1,6,0,-1,2
1570178547369835,3,1,-1,-4,-5,-4,2,-6
1570178547383793,1,-2,0,0,-3,-1,-2,10
1570178547383793,-1,0,0,3,6,9,-1,-4
1570178547390774,0,-3,-1,-3,-2,-5,0,-5
1570178547390774,-3,-1,-1,-2,-6,-8,-2,-14
1570178547405783,-1,-4,-3,-1,8,2,-4,3
1570178547405783,1,0,-3,0,0,-8,1,-2
1570178547407729,-7,-2,-3,0,-2,-3,-6,-19
1570178547407729,2,-1,-1,-1,-6,5,4,1
1570178547428672,-1,0,0,1,1,-4,-6,7
1570178547428672,-9,-2,-2,-3,-3,-4,5,-36
1570178547429670,-1,-2,0,-1,1,5,2,13
1570178547429670,-2,0,-1,-3,-2,-7,-6,-3
1570178547442635,1,-2,-1,-2,-2,1,-2,9
1570178547442635,-3,-3,-2,-2,-3,-1,-1,-10
1570178547449617,-3,0,0,0,0,-2,-3,-6
1570178547449617,1,3,1,2,3,1,-4,-3
1570178547465856,0,-1,-2,0,5,0,6,-5
1570178547465856,2,0,0,0,-2,2,2,4
1570178547467572,0,-1,-1,-1,-4,-5,-4,-4
1570178547467572,-5,-1,-1,-2,4,3,0,-8
1570178547488666,6,0,-3,-3,-2,4,-2,8
1570178547488666,4,0,-1,-1,-1,-4,-1,12
1570178547489510,1,0,1,-1,0,-3,-2,4
1570178547489510,-4,-1,0,-2,6,13,2,-14
1570178547501565,-4,0,-1,-2,-7,-5,-1,-5
1570178547501565,-1,-3,-3,-2,-1,4,-2,3
1570178547510456,1,-2,-3,0,-3,1,7,0
1570178547510456,3,0,-2,0,-3,2,0,2
1570178547526462,-2,0,-1,1,4,2,1,8
1570178547526462,2,0,0,0,3,7,0,0
1570178547527411,-1,-1,-1,-2,-7,-13,0,-1
1570178547527411,-1,-2,1,-1,-5,-11,-4,2
1570178547548484,-2,0,2,2,-1,2,-1,-2
1570178547548484,-1,0,-3,-3,-2,-3,1,3
1570178547550356,-3,0,0,0,0,1,-3,-4
1570178547550356,1,0,-3,-2,-1,-1,-2,-1
1570178547563318,-5,-1,-1,-2,-2,-4,-3,-13
1570178547563318,-2,-3,-1,-2,-2,0,-1,-2
1570178547569503,-3,-2,2,-1,1,-5,-1,0
1570178547569503,2,-4,-3,-3,4,10,3,3
1570178547586417,3,0,0,2,0,3,0,-3
1570178547586417,5,-2,-1,0,-2,-1,-2,14
1570178547587255,-1,0,-1,-3,-6,-20,-10,-11
1570178547587255,-2,2,2,2,1,-2,3,5
1570178547608351,-9,0,-2,-1,3,4,10,-19
1570178547608351,-8,-6,-8,-8,-9,5,-10,-10
1570178547610191,2,2,0,1,7,-2,3,5
1570178547610191,-4,-4,-2,-2,3,-1,-2,-2
1570178547622253,-1,1,-1,-3,0,-5,1,-8
1570178547622253,5,3,3,4,0,-6,3,9
1570178547631130,5,0,1,0,2,7,0,8
1570178547631130,0,-2,1,0,-4,-8,-7,-2
1570178547646099,-2,-3,2,1,1,8,-2,13
1570178547646099,-4,-1,1,0,0,-1,3,-8
1570178547648085,4,1,-1,0,1,5,-1,2
1570178547648085,-1,-1,1,0,-1,-5,-1,-5
1570178547668121,6,1,-1,0,2,-2,-1,10
1570178547668121,-6,0,0,-1,1,5,0,-19
1570178547670030,-1,-1,-3,-2,2,-2,2,3
1570178547670030,-3,0,0,1,-4,8,3,-11
1570178547681999,6,1,0,0,0,-9,1,25
1570178547681999,-7,-2,2,0,-3,-15,-5,-6
1570178547690971,10,-1,-4,-2,1,16,2,14
1570178547690971,-15,-6,-1,-1,-3,2,1,-6
1570178547705937,6,1,2,-1,-2,-2,-6,4
1570178547705937,11,8,0,-1,-1,0,-1,1
1570178547707760,-8,-4,-4,-5,-5,11,3,-11
1570178547707760,0,-3,-3,-1,-2,-12,-5,2
1570178547727872,-17,-8,-3,-1,0,22,3,-5
1570178547727872,9,1,0,1,0,-20,2,14
1570178547730003,-6,9,1,2,-1,-13,-17,-23
1570178547730003,0,-3,0,-1,-5,-6,0,9
1570178547742504,5,1,-1,0,5,10,3,0
1570178547742504,9,2,1,-2,2,9,-1,5
1570178547750954,-4,0,1,-1,4,13,5,2
1570178547750954,1,1,-2,-2,-9,-31,-6,3
1570178547765987,-8,-1,2,3,0,-7,1,-4
1570178547765987,-1,-3,-1,0,0,7,2,2
1570178547767772,21,7,-2,-1,-4,-4,2,9
1570178547767772,-4,-5,2,2,3,10,-14,8
1570178547789001,23,17,-3,-3,-1,-3,-4,1
1570178547789001,-8,-10,-1,0,2,0,1,3
1570178547790122,-8,3,2,2,0,-5,1,-10
1570178547790122,16,-3,0,-3,1,1,1,-15
1570178547802891,-15,-9,-2,-1,0,6,-2,-5
1570178547802891,32,18,0,-2,-1,1,3,23
1570178547809657,-14,-11,0,1,3,13,7,8
1570178547809657,4,3,0,0,-2,-1,5,-1
1570178547825609,12,8,1,1,4,7,5,6
1570178547825609,-51,-29,-5,1,-4,-9,-7,-18
1570178547827604,37,7,-4,-1,0,5,-4,3
1570178547827604,48,10,-8,-4,-3,6,3,6
1570178547848553,27,14,2,-2,1,-5,0,16
1570178547848553,-8,-3,-4,-4,-2,-4,-6,-10
1570178547849550,0,-1,3,1,-1,-20,7,-12
1570178547849550,-9,-3,5,7,15,26,-8,19
1570178547861514,-23,-18,0,-3,-14,-17,-7,-2
1570178547861514,38,26,1,0,-5,7,2,-8
1570178547870513,-29,-18,-7,-5,-7,-17,-10,-9
1570178547870513,-12,5,2,0,-2,-9,9,-3
1570178547885503,-35,-16,0,2,3,2,-2,-6
1570178547885503,29,6,3,1,-5,-6,-2,3
1570178547887446,-6,22,5,0,4,3,-3,-7
1570178547887446,13,-24,-12,-9,-4,-4,-6,-18
1570178547908479,15,12,0,-1,-1,6,4,-3
1570178547908479,65,26,10,5,8,9,17,24
1570178547909388,-81,-78,-27,-14,-10,-14,-30,-52
1570178547909388,66,15,3,0,2,-2,12,22
1570178547922359,-5,-12,-7,-1,0,-14,-16,-32
1570178547922359,-18,-8,-2,0,11,24,4,3
1570178547931441,-2,9,8,5,-1,19,15,10
1570178547931441,-12,12,1,-1,0,8,3,-10
1570178547945293,-7,-13,-3,-1,-5,3,-3,-2
1570178547945293,-24,4,-3,-3,-5,-5,-1,9
1570178547947292,11,2,3,-1,-5,-1,-13,44
1570178547947292,-29,-9,0,2,11,7,0,7
1570178547968474,31,20,3,-3,-3,0,10,18
1570178547968474,-21,-13,-3,-4,-2,-5,-6,-17
1570178547970225,5,11,3,2,3,-5,8,3
1570178547970225,10,10,-4,-2,-7,-8,-4,-4
1570178547982368,-2,-2,1,0,0,-4,-4,-1
1570178547982368,-11,-5,2,1,1,1,1,-5
1570178547991170,-1,-14,-3,-4,-5,-4,7,-3
1570178547991170,-32,-2,4,5,0,5,4,-8
1570178548006261,7,-2,-3,1,-7,-14,-7,-4
1570178548006261,-11,-13,-3,4,-2,-6,-7,-9
1570178548007224,16,13,4,4,2,-1,11,8
1570178548007224,-10,-5,-2,0,-1,-1,-5,-10
1570178548029067,7,6,3,-2,0,-7,-3,1
1570178548029067,0,-1,0,-2,4,-9,-12,14
1570178548030064,0,0,-5,-7,-1,24,0,-8
1570178548030064,-6,0,6,-2,-6,-8,-2,2
1570178548042190,-4,-8,0,0,5,5,5,12
1570178548042190,-6,0,1,0,-14,-6,-1,-2
1570178548051249,12,7,-1,2,-2,4,3,2
1570178548051249,-9,-5,-3,-1,-2,-4,-2,-7
1570178548066156,-7,-2,-3,-1,0,10,1,-9
1570178548066156,-5,-3,-3,-5,4,2,-1,-5
1570178548067100,5,6,2,3,2,-7,-3,-15
1570178548067100,10,3,-2,-3,-1,4,7,13
1570178548087909,-7,-2,-1,1,-2,-5,1,-3
1570178548087909,-2,-2,-4,-1,-8,-26,-4,-4
1570178548089910,6,2,-1,0,3,-3,0,7
1570178548089910,-14,-3,-2,0,-3,-11,-7,-18
1570178548110995,-3,-3,-4,-5,1,-1,1,4
1570178548110995,-1,-3,-1,3,-1,3,4,0
1570178548112847,9,4,-1,-1,-1,-3,2,4
1570178548112847,-3,0,-1,0,1,-2,-3,1
1570178548126064,2,-1,0,1,1,-8,-3,5
1570178548126064,-5,-4,0,-2,5,14,3,-9
1570178548127803,8,4,3,3,4,3,2,7
1570178548127803,-5,-3,-3,1,12,23,-19,19
1570178548147928,-1,1,2,-1,-15,-11,5,-6
1570178548147928,-1,-2,-1,-1,-2,-3,-1,3
1570178548155828,1,1,1,-1,-8,-6,-2,-2
1570178548155828,-9,-6,-3,-3,-6,-6,2,-11
1570178548161776,7,1,1,2,10,6,1,7
1570178548161776,3,0,-2,-1,1,8,-1,12
1570178548171691,5,-1,2,0,0,-2,0,6
1570178548171691,-6,0,-2,-1,-12,2,5,-10
1570178548185959,-4,-3,-4,-4,-14,0,0,-4
1570178548185959,-5,0,1,0,-10,-6,-11,13
1570178548187704,0,-2,-3,-2,3,0,-1,-2
1570178548187704,1,1,0,1,7,-2,4,8
1570178548208722,-4,2,1,2,6,0,-4,-3
1570178548208722,8,-2,-2,-3,6,3,6,0
1570178548214577,-10,-4,0,0,3,-3,-1,-22
1570178548214577,18,4,3,3,2,-6,-10,71
1570178548221556,1,-1,-2,0,0,-2,-2,-6
1570178548221556,-12,-2,-2,0,2,3,1,-19
1570178548230702,17,1,0,-2,-2,-5,-16,56
1570178548230702,2,-1,0,-2,-2,-3,8,-20
1570178548245633,-2,-1,0,1,4,3,-1,2
1570178548245633,-2,1,1,2,-1,-5,-4,2
1570178548247484,-1,0,-2,0,-1,3,3,-12
1570178548247484,-5,-1,0,-1,-1,-2,2,-14
1570178548268426,-2,-3,-2,-1,0,0,-3,8
1570178548268426,-4,-2,1,-1,-1,-1,3,-12
1570178548270421,-2,1,0,0,1,-3,2,-17
1570178548270421,-2,-1,0,-1,-2,-1,2,-9
1570178548282435,-3,1,-1,-1,0,1,2,-8
1570178548282435,3,-2,-4,-3,-1,2,4,-2
1570178548291410,-3,2,2,4,-1,-2,-5,-2
1570178548291410,-3,-1,-2,-3,-3,-3,0,-20
1570178548306449,0,-2,-1,-2,0,0,-1,-1
1570178548306449,1,-1,-2,0,0,1,0,1
1570178548307734,-2,-2,-1,-1,-2,2,2,0
1570178548307734,2,0,-1,-3,-1,-1,6,3
1570178548328550,3,1,1,1,-1,-2,-4,1
1570178548328550,-3,1,-3,0,-1,0,2,-2
1570178548330443,-2,1,1,-2,1,1,4,-15
1570178548330443,5,1,-2,3,0,2,4,12
1570178548351433,0,0,-2,0,-1,2,0,-2
1570178548351433,-4,-1,-1,0,0,-2,-3,11
1570178548352201,1,-2,-4,-1,-1,-1,2,0
1570178548352201,-11,-3,0,-3,-2,-1,8,-50
1570178548366496,-1,-1,0,-3,0,-2,-4,9
1570178548366496,-2,-3,1,2,0,1,2,-1
1570178548367162,-1,-1,-2,-1,-1,-1,1,1
1570178548367162,0,0,0,-1,-2,-2,0,7
1570178548403126,-3,-1,0,-1,-1,-2,1,-6
1570178548403126,1,2,0,-1,-2,2,-1,-7
1570178548405062,-2,-1,0,-1,-2,2,0,-1
1570178548405062,-3,-1,-2,0,1,0,-6,0
1570178548411052,2,-1,-1,-1,-1,1,0,0
1570178548411052,1,0,1,0,0,-1,-4,5
1570178548412043,0,-1,0,1,-1,1,-1,1
1570178548412043,-1,-1,0,-2,0,-1,-3,-1
1570178548426010,0,-1,0,1,1,0,1,0
1570178548426010,-2,0,-2,-1,-1,-1,2,-8
1570178548427004,-1,3,0,2,-1,-1,4,-2
1570178548427004,-10,-3,-1,0,-1,-4,-3,-2
1570178548447951,20,6,-1,-3,0,0,0,3
1570178548447951,86,33,5,-2,0,0,3,16
1570178548449942,-74,-63,-12,-8,-4,-6,-7,-17
1570178548449942,20,14,3,1,0,-1,-1,6
1570178548470885,12,-11,-7,-3,-3,-1,-2,-5
1570178548470885,-34,-7,-3,-3,-3,-4,-3,-9
1570178548472879,52,35,9,3,1,2,9,9
1570178548472879,-22,-17,-6,-3,-2,-4,-16,-4
1570178548485051,-32,-10,-2,-3,-1,-2,7,-10
1570178548485051,0,-2,2,4,1,1,1,1
1570178548492012,-21,0,-3,-3,-2,-2,-3,-3
1570178548492012,7,1,-2,-3,-2,1,2,-5
1570178548508839,45,33,9,4,4,1,2,5
1570178548508839,-57,-18,-8,-5,-2,-2,-6,-4
1570178548510785,1,5,1,-1,-3,1,1,5
1570178548510785,-7,-16,3,3,0,1,4,-1
1570178548530784,-25,-16,-10,-1,0,0,-3,-1
1570178548530784,10,-3,4,2,1,1,3,2
1570178548532770,-2,4,-5,-3,1,0,-3,-3
1570178548532770,-12,14,7,2,0,2,5,-4
1570178548544697,9,-2,-1,-1,-3,-4,-7,-20
1570178548544697,-14,-5,0,2,2,0,-14,4
1570178548553664,17,-2,-1,0,-1,-1,-2,4
1570178548553664,48,9,-3,-2,-2,-1,-3,12
1570178548568732,-22,-9,-5,-4,-2,0,1,0
1570178548568732,7,1,-1,-1,-3,0,5,1
1570178548570094,0,3,5,3,1,1,3,-1
1570178548570094,3,-6,-7,-4,-3,-3,-1,-3
1570178548590775,5,5,0,-2,-2,-1,-3,4
1570178548590775,-20,-5,-4,-4,-1,-2,-1,-21
1570178548592560,-22,-29,-5,-2,0,-1,-1,2
1570178548592560,-1,17,-1,-1,2,0,1,-5
1570178548605535,4,-5,2,0,0,-1,1,7
1570178548605535,15,9,-1,-1,-2,-1,-1,-1
1570178548611721,4,1,1,0,0,-1,2,1
1570178548611721,-8,-8,-3,1,1,0,0,0
1570178548628913,-5,-4,-2,-2,0,3,2,-1
1570178548628913,-6,-8,2,2,1,0,0,2
1570178548630600,5,11,-5,-4,-3,0,9,-23
1570178548630600,6,-1,1,1,0,1,0,15
1570178548658384,-13,-6,-1,2,-1,0,-1,-4
1570178548658384,5,-1,1,-1,-1,1,3,5
1570178548659382,14,11,-1,-3,-4,-4,-6,-8
1570178548659382,5,0,-2,-1,0,16,1,-9
1570178548664372,-8,-3,0,-2,-3,1,3,7
1570178548664372,-6,-8,-2,1,2,3,7,-3
1570178548673344,3,1,3,1,3,7,-3,8
1570178548673344,-8,2,2,2,2,1,1,-1
1570178548688310,-10,-8,0,3,5,7,0,0
1570178548688310,18,2,-2,-2,0,3,-4,-2
1570178548690300,-2,2,2,0,-2,-35,-10,2
1570178548690300,0,-2,-5,-5,-2,9,0,0
1570178548711331,7,10,1,-2,-2,-4,-4,-5
1570178548711331,8,4,0,-2,-2,-8,-5,-1
1570178548712240,9,-7,-3,-2,-1,11,4,9
1570178548712240,-2,-4,-1,3,0,8,2,-5
1570178548725345,-37,-6,-1,2,-1,-22,-8,-15
1570178548725345,10,-1,-3,0,-4,-7,2,10
1570178548732196,14,4,2,2,-3,7,-5,4
1570178548732196,-17,-10,0,-1,1,-7,-1,-8
1570178548748271,25,10,2,-3,0,11,4,9
1570178548748271,12,22,13,4,5,6,6,8
1570178548750280,-3,-37,-18,-8,-5,-1,-5,-3
1570178548750280,3,2,1,0,-4,-6,-3,6
1570178548771135,3,5,0,0,1,1,-3,-1
1570178548771135,-9,0,0,1,-3,-6,-1,-6
1570178548777178,2,5,4,4,3,7,4,3
1570178548777178,10,-4,-4,-4,-1,2,3,1
1570178548785440,3,0,-4,-4,-4,-15,-2,5
1570178548785440,-15,-9,4,5,4,-8,-1,-4
1570178548792244,0,11,-1,-3,0,23,3,-13
1570178548792244,-34,-11,-1,1,-4,-7,-4,3
1570178548808127,-2,-5,0,-2,-1,-6,-2,-3
1570178548808127,-3,3,2,0,-3,-7,0,-4
1570178548809979,22,26,4,-1,3,5,0,11
1570178548809979,-2,-1,3,0,1,-6,-2,-6
1570178548830930,17,11,2,0,2,5,4,12
1570178548830930,-34,-24,-6,-5,-1,9,-2,-1
1570178548832916,-7,-4,-1,0,1,-6,-2,-2
1570178548832916,14,7,-1,-1,-1,-1,-2,3
1570178548843888,-4,-4,2,5,-2,0,1,1
1570178548843888,5,-3,-6,-4,-2,2,-4,-5
1570178548852864,-7,-4,-2,-4,-4,-8,11,-7
1570178548852864,1,2,-2,-2,-3,-6,-1,6
1570178548867823,-1,-2,0,1,1,6,-3,-4
1570178548867823,2,-6,-5,-3,-1,6,3,2
1570178548869819,-5,5,1,4,1,-4,-3,2
1570178548869819,6,4,0,1,1,1,3,10
1570178548890767,-1,-4,-1,-1,-1,0,-4,-16
1570178548890767,3,4,-3,-2,-2,0,1,6
1570178548892758,-6,-1,0,1,0,-6,-6,3
1570178548892758,-1,-4,-2,-2,0,-2,-2,-1
1570178548904726,3,3,-2,-3,0,2,-2,12
1570178548904726,-1,-2,-1,-2,-1,0,-1,-9
1570178548913702,-6,0,3,5,-2,-2,-6,-15
1570178548913702,-3,-1,-1,-1,-3,-5,-2,-6
1570178548928663,5,-1,1,2,2,-5,0,7
1570178548928663,1,-2,-3,1,2,1,1,-2
1570178548930349,1,0,-2,-2,-1,-1,0,3
1570178548930349,2,-1,-1,-3,-1,0,-1,-10
1570178548950679,-6,-1,-1,-3,-2,3,2,1
1570178548950679,3,4,-2,-3,-2,-1,-4,0
1570178548952599,0,1,2,-2,-1,3,-1,6
1570178548952599,-1,0,-1,1,-1,-1,-1,-4
1570178548964640,0,-3,-1,-1,0,2,1,0
1570178548964640,5,-1,0,-1,0,-1,-1,9
1570178548973541,-4,-2,0,0,1,-1,-1,-3
1570178548973541,0,-3,0,-2,0,0,3,3
1570178548988586,-4,-4,-4,-2,-2,-3,-6,-9
1570178548988586,1,2,1,1,-3,-2,-2,-4
1570178548990389,0,-2,0,1,0,-1,1,3
1570178548990389,0,-3,0,-3,-1,-2,-5,9
1570178549010689,-1,-1,0,0,-2,5,3,4
1570178549010689,0,-1,0,-5,-3,-1,1,1
1570178549012678,-7,-1,1,-1,-4,-2,-4,-9
1570178549012678,2,1,-3,-1,0,0,8,9
1570178549024572,1,-1,-1,-2,-1,0,2,-1
1570178549024572,-4,-1,-1,-2,-1,1,-1,-1
1570178549033386,2,-1,0,0,1,-3,0,2
1570178549033386,-8,-1,1,0,-2,-1,-8,-25
1570178549048348,4,-2,-2,0,0,1,3,7
1570178549048348,4,0,-1,9,1,-1,-3,2
1570178549050334,-1,-1,-3,3,-1,1,1,5
1570178549050334,-4,1,-1,0,0,-1,6,-12
1570178549070283,-1,1,-1,-2,-2,-2,-8,5
1570178549070283,-5,-1,-2,-6,0,0,-1,-7
1570178549072277,0,-2,1,-3,0,1,2,-1
1570178549072277,-3,1,0,-1,2,-4,1,0
1570178549084246,-2,-1,0,-1,-2,-1,1,-6
1570178549084246,4,-1,-1,-2,1,-1,1,0
1570178549093221,7,1,-1,-3,0,-2,-3,13
1570178549093221,-6,0,0,-2,-1,-3,-10,-22
1570178549108182,1,-2,-2,-4,-1,3,6,9
1570178549108182,11,0,-1,-1,-1,0,1,16
1570178549110176,-2,0,0,-4,0,-1,0,-4
1570178549110176,5,-2,-1,-4,-1,-2,-6,10
1570178549131121,-3,2,1,0,1,-1,-4,-5
1570178549131121,-4,-1,-1,-2,0,0,0,-9
1570178549132117,-2,0,0,0,-1,-4,0,-1
1570178549132117,-2,-2,-1,2,-1,-1,1,2
1570178549144085,-4,-3,1,1,-3,-1,-3,-13
1570178549144085,1,-2,-2,0,-1,2,-1,1
1570178549153143,-4,0,1,2,0,0,-2,-6
1570178549153143,4,2,0,-2,-3,-3,-4,9
1570178549168021,1,-1,-2,0,1,0,-2,1
1570178549168021,-5,0,-1,-2,0,-1,-2,-4
1570178549170014,-6,0,-1,-2,1,0,9,-14
1570178549170014,-3,0,1,1,0,-1,-4,8
1570178549197979,1,0,-1,1,-1,-1,0,3
1570178549197979,-3,-2,-1,0,-1,1,-2,-4
1570178549199950,0,-2,-2,2,-3,0,0,0
1570178549199950,3,0,-2,0,1,2,9,5
1570178549203923,6,0,-3,-3,1,-2,0,7
1570178549203923,-4,-1,1,-2,1,-1,-4,-7
1570178549212899,-1,-2,1,-3,2,-2,-3,4
1570178549212899,0,-1,0,0,-2,-2,-1,-7
1570178549228512,-3,0,-1,3,-1,-2,1,1
1570178549228512,1,0,-2,3,-1,-2,4,6
1570178549229798,2,0,-1,-1,-2,2,2,19
1570178549229798,-11,-4,-1,-2,-3,1,-5,-16
1570178549250811,-1,-1,1,-1,-3,3,4,-4
1570178549250811,-3,0,2,0,-1,1,-3,1
1570178549252602,0,1,1,1,2,-2,1,13
1570178549252602,-7,-1,-3,-3,2,-1,1,2
1570178549272738,-2,0,-1,1,2,-1,0,0
1570178549272738,-3,-4,-3,-1,0,-2,0,-4
1570178549274769,0,-1,-1,-1,-1,2,-5,-8
1570178549274769,10,0,0,1,3,0,0,0
1570178549288178,6,-1,0,-1,0,-1,-2,-2
1570178549288178,2,-1,-2,-3,-3,0,-6,-2
1570178549290173,1,-3,-1,-1,-1,-2,-2,-4
1570178549290173,-2,-1,-2,1,0,2,2,11
1570178549311046,-5,-1,-1,-2,0,0,-3,4
1570178549311046,-1,0,1,-1,-1,-1,-1,-7
1570178549312170,1,-1,-1,-1,1,-1,-1,-1
1570178549312170,3,0,-1,-2,1,2,2,2
1570178549333179,-3,-2,-1,-2,0,-4,-3,-16
1570178549333179,1,1,0,2,-1,-1,2,3
1570178549334984,2,3,-1,1,-5,0,-2,-1
1570178549334984,3,0,-1,0,-4,0,0,4
1570178549347923,-1,0,2,1,0,0,-4,-10
1570178549347923,-1,-1,-2,-3,-1,0,0,-4
1570178549350095,-6,-4,-3,-2,0,1,3,-12
1570178549350095,-2,-1,1,2,-2,0,-8,-4
1570178549370943,4,-1,-1,-1,1,-2,-11,17
1570178549370943,5,-1,-2,1,2,-3,-3,12
1570178549371937,-6,-1,-2,1,1,-2,-3,-12
1570178549371937,6,0,-1,2,0,-1,0,8
1570178549393864,-3,-4,-1,1,-3,1,4,1
1570178549393864,-6,-1,0,-5,1,-2,3,-8
1570178549395047,-3,-2,-3,-4,3,-1,-2,2
1570178549395047,-3,1,-2,-3,3,0,4,0
1570178549408013,-3,0,-1,-1,1,0,0,-5
1570178549408013,0,0,-1,0,-1,1,1,-3
1570178549414785,0,2,0,0,-2,4,1,-1
1570178549414785,6,0,-3,-3,-5,2,1,8
1570178549430402,-1,-1,-2,-1,-3,2,6,3
1570178549430402,0,-5,-2,-2,-5,0,-4,0
1570178549438279,4,-3,1,-1,-5,-3,-1,5
1570178549438279,-3,-5,0,3,-2,-2,-1,-5
1570178549453219,-3,-1,-1,-1,0,-2,-1,-10
1570178549453219,-4,3,-1,1,-1,0,0,-3
1570178549455121,-4,2,-2,0,0,-1,-7,-13
1570178549455121,1,1,-1,-2,4,0,-6,10
1570178549467866,2,1,2,-1,1,-1,-1,-1
1570178549467866,5,-2,0,0,3,1,5,0
1570178549474836,3,-1,-1,0,1,-1,2,6
1570178549474836,-6,-2,2,0,-3,-2,-1,-9
1570178549491103,-3,2,1,-3,-2,-3,-3,8
1570178549491103,-6,3,2,-2,-3,-2,-2,-9
1570178549514147,-6,2,1,2,-3,0,1,9
1570178549514147,-3,-1,0,1,1,-3,-5,-2
1570178549515046,-1,0,-3,-1,0,-1,1,3
1570178549515046,1,-1,-3,2,0,-3,1,2
1570178549516272,4,0,-2,0,-1,1,2,4
1570178549516272,-5,0,-3,1,0,-2,-1,-6
1570178549527567,3,-2,-2,0,1,2,2,11
1570178549527567,1,-2,1,-3,1,0,-2,0
1570178549542526,1,-1,-1,-2,4,2,6,2
1570178549542526,6,1,0,0,-3,-3,-11,2
1570178549550505,2,1,-3,-1,-4,-1,0,-12
1570178549550505,-1,-2,-1,-2,-2,4,4,8
1570178549552500,0,-2,1,-3,-3,1,-1,-9
1570178549552500,-3,-2,1,0,-1,3,6,-1
1570178549572444,-7,-1,1,1,-1,0,0,-1
1570178549572444,-3,0,-4,1,-3,0,-2,3
1570178549579484,0,-1,0,1,1,1,-13,12
1570178549579484,1,-2,-3,-1,-5,1,3,2
1570178549587402,2,-3,1,1,-1,-3,-2,1
1570178549587402,-2,0,1,2,-5,-3,-4,-9
1570178549594390,4,0,-2,-2,-1,-5,2,-3
1570178549594390,1,2,0,2,4,-1,3,-8
1570178549610341,-4,-1,0,1,1,0,1,-24
1570178549610341,2,4,1,0,-2,-2,-6,6
1570178549612629,0,-1,-2,-1,-3,-2,4,2
1570178549612629,2,-1,0,-5,-1,-4,-3,-1
1570178549633285,0,-2,-1,-5,1,2,0,4
1570178549633285,-4,-3,-2,-4,3,3,5,-1
1570178549635278,-4,0,1,-3,0,0,-3,-2
1570178549635278,-4,0,0,-3,0,-2,-1,3
1570178549647244,-4,2,1,4,0,-2,-1,-1
1570178549647244,1,1,0,1,-1,-1,1,-2
1570178549654260,-1,-1,1,2,-2,-2,-4,3
1570178549654260,-2,-3,0,-2,0,2,4,-8
1570178549671182,4,-2,0,-1,1,1,-1,11
1570178549671182,-3,-1,-2,1,1,-2,-1,-1
1570178549672177,-1,-1,0,1,3,-1,0,-11
1570178549672177,2,-2,-3,-3,-1,1,4,0
1570178549693128,1,2,1,-1,-5,-2,1,4
1570178549693128,0,-4,-1,-5,-4,0,8,-13
1570178549695115,2,2,-1,-5,-2,-2,-9,12
1570178549695115,-6,2,0,0,-2,0,-3,0
1570178549707850,-4,-1,-1,0,0,0,-5,-5
1570178549707850,-2,-1,-1,2,-1,-1,-4,4
1570178549713839,0,-3,-2,1,0,2,4,-6
1570178549713839,2,-2,1,0,0,1,2,3
1570178549731036,0,-3,0,-2,-2,-4,-1,-8
1570178549731036,0,-3,-1,-6,0,0,1,-2
1570178549731792,-3,0,0,-1,0,0,-2,-8
1570178549731792,0,0,1,3,1,2,1,4
1570178549754583,1,-1,-1,1,-2,1,2,1
1570178549754583,-5,-2,-2,2,0,-3,-4,-21
1570178549754732,-1,0,1,-1,0,2,0,7
1570178549754732,-4,-1,2,0,-1,0,0,4
1570178549767094,-1,-1,2,-3,-1,-2,-3,3
1570178549767094,1,-2,-2,-4,-2,-4,-3,2
1570178549775674,1,0,0,-4,0,-4,-1,-9
1570178549775674,0,-1,0,-2,1,-3,0,-10
1570178549790636,-1,0,-3,-2,2,0,1,-5
1570178549790636,-4,2,0,2,2,0,-3,0
1570178549792629,1,0,0,1,-4,-1,-2,-3
1570178549792629,5,0,-3,-2,-1,0,1,3
1570178549813574,2,-1,-1,1,-2,0,-2,-2
1570178549813574,3,-2,1,-1,-1,0,-2,-6
1570178549814571,3,-1,0,6,3,2,-10,21
1570178549814571,-5,-1,2,5,-2,-2,-8,-10
1570178549826723,-3,-3,-1,-4,2,1,4,2
1570178549826723,-3,-1,-2,-1,2,-1,0,4
1570178549835517,-8,-2,-1,-3,-1,0,3,-12
1570178549835517,0,0,-3,-3,-3,-2,-1,1
1570178549858458,2,2,0,-1,-2,-3,-5,6
1570178549858458,5,4,2,-1,1,0,0,5
1570178549859664,0,1,-1,-1,2,-4,-2,-16
1570178549859664,-4,-2,-3,-2,1,0,4,4
1570178549873551,-4,0,1,2,-1,-2,1,-1
1570178549873551,3,0,-1,1,-3,1,-1,5
1570178549874412,-1,-1,-1,0,-3,0,2,-2
1570178549874412,-2,-2,2,-2,2,-2,0,0
1570178549887381,2,-1,-2,-1,5,-4,-4,0
1570178549887381,-1,-1,-4,1,-5,-2,3,-12
1570178549896354,5,2,-3,-3,-4,-1,-1,19
1570178549896354,0,-1,-4,-3,-2,0,0,2
1570178549910314,4,-1,-3,-2,-2,1,0,10
1570178549910314,0,0,-2,2,-1,3,3,4
1570178549912675,-1,-1,-1,-1,-2,2,5,-4
1570178549912675,2,1,0,-3,-2,0,2,1
1570178549933251,0,0,0,-3,-2,1,2,-4
1570178549933251,-3,-2,1,-4,0,0,1,-2
1570178549935247,-1,-2,-2,-1,-2,0,2,-6
1570178549935247,-1,-1,2,1,-1,0,-5,-8
1570178549947220,-4,0,0,4,-2,0,0,-3
1570178549947220,-6,-2,-1,-1,-1,-4,1,-9
1570178549963353,-3,-1,0,1,-2,0,-2,2
1570178549963353,1,1,-1,2,-5,1,1,3
1570178549970746,-2,-2,-1,-1,-2,0,0,2
1570178549970746,1,0,0,-2,0,-1,-1,-1
1570178549972415,-2,-3,1,-2,3,0,0,-6
1570178549972415,5,0,0,-1,0,-2,-10,-8
1570178549993093,-1,-1,-1,-2,-1,1,-3,-11
1570178549993093,-2,0,-2,-1,-1,-1,-5,0
1570178549995088,-3,0,-2,-2,2,0,2,-6
1570178549995088,-2,1,0,3,2,-1,-7,5
1570178550007056,-9,-4,-5,2,1,-3,9,-19
1570178550007056,5,-1,0,-1,4,-4,0,9
1570178550016193,2,0,-1,-2,0,0,5,7
1570178550016193,-6,-2,-2,-3,1,0,8,-3
1570178550031099,-2,-1,-1,-2,1,2,3,1
1570178550031099,-1,-1,1,0,-2,-1,1,4
1570178550031990,-2,-2,0,-1,-3,-2,3,-7
1570178550031990,-1,2,2,-1,1,-1,0,-14
1570178550051937,7,3,4,1,0,1,-4,22
1570178550051937,1,0,-1,-1,-3,2,-4,0
1570178550068946,0,0,-1,2,-1,-4,-5,-1
1570178550068946,0,-3,-2,-2,-3,2,4,1
1570178550069896,2,0,2,-2,-1,0,0,1
1570178550069896,-2,-1,0,2,-1,3,-1,4
1570178550075872,-6,-1,-2,-4,1,1,0,-2
1570178550075872,0,-2,-6,-5,-3,-1,0,1
1570178550090836,-5,0,-1,0,-1,-3,-12,-7
1570178550090836,8,1,0,2,-3,-1,-2,6
1570178550091832,2,0,-1,2,0,-4,-1,-5
1570178550091832,1,0,1,2,2,-2,-4,3
1570178550113772,5,3,0,-1,1,0,-8,12
1570178550113772,0,1,2,-1,3,-3,-3,-1
1570178550114768,-1,0,1,1,3,-3,-1,3
1570178550114768,4,-1,0,1,-1,-1,3,13
1570178550126736,-4,-6,-6,-2,-1,-2,4,-12
1570178550126736,-2,-1,-2,0,-2,-1,5,6
1570178550136710,0,0,-1,-1,-3,2,0,1
1570178550136710,-4,-1,1,1,-2,0,3,-4
1570178550150671,4,-2,4,0,1,7,2,3
1570178550150671,1,-1,3,-3,-2,3,-4,-5
1570178550152667,0,-1,3,-2,-1,-1,-2,-4
1570178550152667,0,1,-2,-1,3,-4,0,1
1570178550173611,-6,1,-3,1,2,-3,2,-4
1570178550173611,-6,1,-4,2,5,-1,-5,-5
1570178550174608,-2,0,-1,0,0,2,0,2
1570178550174608,0,-2,1,-2,-2,1,-3,-8
1570178550186658,6,-1,0,-1,-1,-2,3,0
1570178550186658,3,-2,-4,-3,-6,1,4,3
1570178550203533,-3,-2,-5,-2,-3,1,-1,2
1570178550203533,-1,1,-1,-3,-1,1,-3,2
1570178550209632,-3,-1,-1,-1,1,2,-1,-2
1570178550209632,-3,-2,-1,-3,-1,2,2,3
1570178550219489,2,-1,-2,-1,-5,-5,-1,-8
1570178550219489,-3,0,-1,0,-3,-5,0,-1
1570178550233454,-3,4,4,2,0,-1,-2,-3
1570178550233454,-7,0,3,4,3,-1,13,-19
1570178550234458,0,-1,2,6,4,0,-4,2
1570178550234458,-1,-2,-2,2,0,0,-2,3
1570178550255393,3,-2,-3,-2,-1,-1,-3,1
1570178550255393,0,-1,-2,-3,-3,-1,-1,-2
1570178550257723,3,1,-2,-2,-4,-2,3,2
1570178550257723,2,1,-1,-3,-5,-2,0,-2
1570178550270595,-1,-1,2,-1,-5,0,4,-1
1570178550270595,-1,-1,-2,2,-1,0,-1,6
1570178550272346,1,1,-1,3,3,-2,-1,0
1570178550272346,0,2,1,0,1,-1,-6,10
1570178550293291,-3,-1,-1,0,0,0,0,6
1570178550293291,-3,-1,1,-3,2,2,-4,2
1570178550295286,-4,-3,2,-3,-2,0,-3,-1
1570178550295286,-1,-1,-2,-1,1,1,1,-6
1570178550315353,3,0,-1,-1,0,-2,0,-4
1570178550315353,5,0,0,-2,1,-2,0,12
1570178550317227,0,-1,-1,-4,-2,2,1,-3
1570178550317227,-5,-5,-1,-3,-4,-1,-2,-1
1570178550331190,-4,-1,-2,-4,-4,-2,0,1
1570178550331190,2,-1,-2,0,-4,-1,-3,-3
1570178550332360,1,0,-2,1,3,4,0,-2
1570178550332360,0,2,-2,0,4,0,2,-2
1570178550353138,0,0,1,-3,1,0,-3,-3
1570178550353138,-3,0,3,0,-3,-2,-6,-6
1570178550355127,4,1,1,0,-2,0,1,2
1570178550355127,10,0,1,1,3,-5,-10,30
1570178550376070,-1,-2,-1,3,0,-6,3,-1
1570178550376070,-2,-2,-1,2,2,-7,-3,-4
1570178550377067,-4,-1,0,-1,-2,-6,-3,3
1570178550377067,-6,0,-3,1,-2,1,4,-10
1570178550390383,0,0,-5,-1,1,1,1,3
1570178550390383,2,0,0,1,-1,2,1,7
1570178550397013,7,2,2,1,0,5,-2,16
1570178550397013,-1,-1,2,-1,-3,0,1,-9
1570178550412970,-5,-2,3,-2,-6,-2,-9,-25
1570178550412970,0,0,-1,-2,1,0,2,3
1570178550414964,-6,-2,-4,-3,2,-2,0,-11
1570178550414964,-4,-2,-3,2,0,-2,0,-9
1570178550435911,4,1,-1,1,3,1,-3,-5
1570178550435911,5,1,-2,-3,-2,-1,-1,-1
1570178550441891,2,-2,-3,-4,-3,-3,0,-12
1570178550441891,3,1,1,1,-2,3,-4,0
1570178550450033,-5,-2,-1,1,-3,1,1,-5
1570178550450033,4,0,2,1,0,-1,-10,13
1570178550456851,-7,-3,1,-4,5,-2,0,-2
1570178550456851,-4,-1,1,-6,2,0,3,-2
1570178550471820,-1,-2,2,-1,2,1,1,1
1570178550471820,-4,-1,2,1,2,-1,2,-5
1570178550480791,-3,0,-1,2,-6,-3,-7,-2
1570178550480791,-1,0,0,2,-4,-3,-3,-4
1570178550495804,0,-1,0,3,-4,-4,-5,-10
1570178550495804,-2,-2,-2,1,-5,-3,0,-4
1570178550497743,1,0,-2,0,-1,-1,1,1
1570178550497743,-2,-3,-1,-3,0,0,0,-5
1570178550509814,0,-1,-4,-2,4,3,5,14
1570178550509814,-2,2,-1,-2,4,1,-2,-6
1570178550517693,-3,1,-1,0,2,3,0,-4
1570178550517693,3,2,0,-3,-1,3,2,-3
1570178550532656,0,-2,-2,-3,-1,1,2,4
1570178550532656,-2,-2,-1,-2,-2,4,4,0
1570178550540632,5,1,2,1,-1,-3,-14,23
1570178550540632,-4,1,-1,-1,-1,-3,4,6
1570178550555711,-2,1,-2,2,-3,-4,0,5
1570178550555711,-1,0,-5,-1,-1,-5,2,-7
1570178550557584,0,-3,-5,-1,-1,1,2,-3
1570178550557584,2,-4,-1,-2,3,1,-1,2
1570178550570164,2,-3,2,-4,0,0,-1,3
1570178550570164,3,0,4,-1,-3,0,3,16
1570178550576533,-7,-4,-1,-2,-2,0,7,-12
1570178550576533,-3,1,1,1,-1,0,-2,-7
1570178550593489,0,-1,-3,-2,-3,-2,1,0
1570178550593489,0,0,-1,0,0,-1,-2,0
1570178550594486,5,0,-1,0,0,2,0,7
1570178550594486,3,-1,-2,-1,1,2,0,6
1570178550615433,0,-1,-1,-1,-1,0,-7,-3
1570178550615433,0,-3,0,-1,2,-2,-2,-10
1570178550617424,0,-3,3,-1,-2,-3,2,-4
1570178550617424,-1,-2,0,1,-2,-1,0,-6
1570178550630399,8,4,2,3,0,-1,-21,31
1570178550630399,-8,0,-4,0,-1,-3,-3,-4
1570178550637370,-2,0,-3,0,-1,0,3,3
1570178550637370,2,-1,0,-1,-2,-1,1,6
1570178550653357,-4,-1,-1,-3,-3,0,3,-12
1570178550653357,-6,-3,1,-2,-2,1,-7,-22
1570178550654326,1,-2,0,-3,-2,1,-2,4
1570178550654326,-2,-1,-2,-2,-5,-2,3,-9
1570178550675487,0,-1,-2,-1,1,0,0,-3
1570178550675487,-1,-3,-1,1,2,-1,-1,-5
1570178550677266,4,-1,0,2,0,-3,-4,2
1570178550677266,2,0,2,2,-1,-5,-3,2
1570178550690400,0,0,0,2,-1,-2,7,14
1570178550690400,0,0,-4,-2,-2,1,2,8
1570178550697215,-4,1,0,0,-2,-1,-2,-8
1570178550697215,-3,0,-2,0,2,2,-1,-4
1570178550713328,-4,-1,0,-1,-1,-2,1,-14
1570178550713328,0,-2,0,3,0,-2,3,-1
1570178550715161,0,-1,-1,-2,-1,-1,2,-1
1570178550715161,-6,-3,-1,-3,-1,1,7,-17
1570178550735114,4,-2,-1,-1,-1,-1,-6,4
1570178550735114,4,-1,-1,-4,0,2,-1,12
1570178550737102,-4,-1,-1,-1,0,-1,2,-1
1570178550737102,-4,1,0,0,1,-2,-1,2
1570178550749071,-6,-1,-2,-3,-2,1,0,-14
1570178550749071,-4,-1,-2,-3,-3,-1,0,-21
1570178550758216,1,1,-2,1,-1,-5,-6,0
1570178550758216,2,0,-1,-1,0,-2,-4,7
1570178550773132,-4,0,-3,-3,0,-1,7,-5
1570178550773132,1,2,-1,-4,0,0,1,6
1570178550775303,-1,0,0,-5,-1,1,5,-2
1570178550775303,-4,-2,0,-1,-2,-2,-3,-3
1570178550796067,0,-1,1,0,2,-3,1,-4
1570178550796067,2,-1,2,0,2,1,2,1
1570178550796944,-2,-3,0,1,0,3,1,-4
1570178550796944,-3,-1,-2,1,-1,0,-2,4
1570178550817889,0,0,-3,2,-1,-1,-1,3
1570178550817889,0,-1,0,0,-2,-5,2,7
1570178550819882,-1,-2,-5,-3,1,-4,-3,0
1570178550819882,-4,-3,-3,-1,-1,1,-4,-6
1570178550832850,-2,-1,-2,-1,0,3,3,6
1570178550832850,2,-1,1,1,2,-2,-1,-6
1570178550832850,8,1,1,1,-1,-2,-17,4
1570178550832850,0,0,0,-2,-2,-3,-6,-14
1570178550862769,-4,-1,3,-1,-2,0,0,-1
1570178550862769,-6,1,2,1,-1,1,-1,-2
1570178550863769,-2,1,-1,-1,0,1,6,2
1570178550863769,3,1,-3,-1,-1,-1,0,3
1570178550877846,0,0,1,-1,1,2,-2,0
1570178550877846,-2,-2,2,-1,-3,-1,-2,-4
1570178550878725,-9,-2,1,2,-3,-1,7,-22
1570178550878725,6,1,3,1,0,-3,-5,23
1570178550892688,-4,-2,-2,-1,-1,-3,-1,-2
1570178550892688,0,0,-3,-4,0,1,-3,5
1570178550893684,1,0,0,-1,1,-2,0,-2
1570178550893684,-1,-1,2,-1,0,0,1,-5
1570178550914642,3,-2,3,-1,0,-2,2,3
1570178550914642,1,1,-1,-1,1,-2,-3,2
1570178550915627,1,0,-2,0,1,0,1,1
1570178550915627,-3,-2,-3,0,-1,1,0,-4
1570178550937946,-3,0,0,2,-3,0,-3,-1
1570178550937946,-7,0,-2,1,-2,1,2,-3
1570178550938568,-2,0,-1,0,-1,-1,-1,3
1570178550938568,-2,-2,-3,-3,-1,-2,0,-10
1570178550954523,8,1,0,0,1,-3,-11,9
1570178550954523,0,-2,-1,0,0,-3,-3,-11
1570178550954906,1,-1,0,-1,2,-1,4,1
1570178550954906,2,0,0,-2,0,0,3,-4
1570178550975467,-2,-2,-2,-4,-2,-1,3,-5
1570178550975467,1,0,-1,-2,-2,-1,-2,2
1570178550976536,1,0,1,-1,0,0,-7,-2
1570178550976536,-4,-2,-2,0,1,0,-5,-9
1570178550997790,-3,-2,-3,0,-2,-1,7,-10
1570178550997790,2,1,-2,3,-4,0,3,17
1570178550998407,-7,-4,-3,0,-4,1,5,-2
1570178550998407,-3,-1,0,1,-1,-1,1,-1
1570178551012432,-5,-2,-2,-3,2,-1,-2,-3
1570178551012432,-1,-1,-1,-4,1,-1,-2,-2
1570178551013367,-4,2,1,-1,-2,-2,-2,-3
1570178551013367,-1,1,2,0,-2,0,3,4
1570178551035309,3,1,1,1,-2,-3,0,-3
1570178551035309,3,-1,0,2,-3,1,0,1
1570178551035309,4,1,-2,-1,-2,2,3,9
1570178551035309,-4,-1,-3,-4,1,1,0,-1
1570178551057249,0,2,0,1,2,2,-12,21
1570178551057249,1,-2,0,0,1,-3,1,15
1570178551058345,-1,2,0,-2,-1,-3,-2,-9
1570178551058345,2,-1,-1,0,-2,-3,0,10
1570178551074348,4,-1,-3,-2,-4,-4,-2,-4
1570178551074348,1,0,0,-1,-2,-1,-2,-9
1570178551075200,1,-2,-2,1,-1,1,-2,12
1570178551075200,2,0,2,2,-2,2,0,2
1570178551095148,-5,-1,-2,0,0,3,4,-4
1570178551095148,-1,0,-1,-3,0,1,-2,-5
1570178551096144,-2,-3,-2,-5,0,1,4,-11
1570178551096144,1,0,0,-2,2,-2,-3,-2
1570178551117087,-1,-2,1,-2,-2,-1,2,-1
1570178551117087,-6,-1,0,2,-1,-1,-2,-2
1570178551118229,-1,-1,0,-1,-3,-5,-7,2
1570178551118229,1,-3,1,-1,-2,-2,3,2
1570178551133048,-3,-3,-1,-2,-2,-2,-3,-17
1570178551133048,5,2,1,3,0,-1,-4,8
1570178551133048,0,-1,0,-1,-4,1,1,-3
1570178551133048,0,2,-1,-1,-2,2,-5,-2
1570178551154986,1,3,-2,0,5,0,2,4
1570178551154986,-1,-1,-3,-1,3,-1,-11,-5
1570178551155983,0,0,0,2,1,0,0,7
1570178551155983,-3,-3,-1,1,0,-3,-1,-2
1570178551177924,-1,-1,-1,-2,2,-1,0,0
1570178551177924,-9,-1,-1,-3,1,-2,1,-10
1570178551177924,-2,3,1,-2,-1,-1,1,1
1570178551177924,0,0,-3,0,-3,-2,-2,3
1570178551192890,3,0,-1,2,-2,0,1,-6
1570178551192890,4,0,0,0,-2,0,1,0
1570178551192890,7,-1,0,-1,0,1,-7,9
1570178551192890,1,1,1,0,3,1,3,3
1570178551214917,-2,0,0,-1,-2,0,2,4
1570178551214917,-2,0,-1,-1,-2,3,2,0
1570178551215823,-3,-2,-1,-1,1,-1,0,-4
1570178551215823,0,-1,-1,-3,-3,2,1,0
1570178551236767,-2,-1,-4,-1,-1,1,-2,-2
1570178551236767,-1,-2,-2,1,-1,-1,2,1
1570178551244747,1,-2,-2,0,-1,0,1,-3
1570178551244747,2,-2,0,2,-1,-2,-1,3
1570178551252725,-1,-1,1,-1,0,-4,2,-2
1570178551252725,-3,1,1,-4,0,2,2,-8
1570178551253728,-2,-1,2,-2,3,3,-1,-4
1570178551253728,0,0,2,-4,-2,0,1,6
1570178551275663,0,-1,-1,-2,-4,-1,-4,0
1570178551275663,-4,-2,-3,0,-2,-3,5,-14
1570178551275663,1,3,-1,2,-1,-3,-8,13
1570178551275663,-3,0,-3,1,-2,-1,-1,1
1570178551297701,-1,1,4,2,1,-2,-10,2
1570178551297701,4,-1,1,0,1,-5,-1,2
1570178551298602,-3,-3,-1,0,1,0,2,-10
1570178551298602,0,1,1,-2,2,2,-2,-3
1570178551313015,0,0,-3,-3,2,1,2,6
1570178551313015,-2,0,0,-4,-3,0,-5,0
1570178551313562,1,2,-1,-1,-1,-1,-3,-1
1570178551313562,4,0,-1,1,-1,-2,-2,-6
1570178551335511,2,0,0,0,-2,0,3,3
1570178551335511,0,-1,2,0,0,-2,2,6
1570178551336046,-1,-3,-2,-2,-2,-3,3,1
1570178551336046,-1,0,-1,-2,-2,-2,2,-3
1570178551358442,1,-1,-1,-2,3,0,1,-6
1570178551358442,-2,2,-2,-2,-1,0,2,0
1570178551358442,-2,-3,-2,1,-2,-1,-2,-8
1570178551358442,-3,-1,-1,1,-3,0,-3,-5
1570178551381434,0,-2,-1,1,-2,2,0,6
1570178551381434,0,0,0,-2,-1,1,1,5
1570178551381498,-2,2,-1,-2,0,0,2,-2
1570178551381498,1,0,-1,-4,-1,-2,-1,1
1570178551395347,1,1,-1,-3,-1,-2,1,-5
1570178551395347,2,0,-1,1,-1,0,-4,-1
1570178551396342,1,-1,1,0,-1,-1,0,0
1570178551396342,-1,1,0,1,-1,0,-1,3
1570178551417819,-3,0,0,1,-2,-2,-1,1
1570178551417819,2,-1,0,-1,0,-2,-2,4
1570178551418285,-3,0,-2,1,-1,-1,0,-2
1570178551418285,-1,-3,-2,0,0,0,1,-5
1570178551433243,-3,-1,-3,1,-2,2,1,-3
1570178551433243,3,1,0,1,2,3,-2,-2
1570178551433243,5,1,-2,0,0,0,-1,-2
1570178551433243,-2,-2,-3,1,2,-2,0,-1
1570178551455184,-4,-1,-1,0,-1,-3,-1,-5
1570178551455184,-3,-3,-3,-1,-4,-4,-2,2
1570178551456181,-1,-2,-1,-4,-4,-2,1,1
1570178551456181,-1,0,2,0,-3,-1,2,2
1570178551477173,-2,-2,-1,-2,-1,-1,0,-2
1570178551477173,4,0,-1,-2,0,0,2,0
1570178551479119,-2,-2,0,-2,0,0,-1,2
1570178551479119,1,1,2,-1,1,1,0,-4
1570178551492087,1,0,0,0,0,1,0,-1
1570178551492087,-7,-3,-1,1,2,1,11,-17
1570178551493122,0,0,0,0,2,0,2,8
1570178551493122,1,-1,-1,-1,2,-1,1,-2
1570178551515027,-1,0,0,0,3,-2,-1,-3
1570178551515027,-4,-1,-2,-1,-2,0,3,-3
1570178551516093,-3,1,-1,-1,-2,1,0,-5
1570178551516093,-5,-1,-3,-2,-1,1,-3,-1
1570178551537962,1,0,-2,2,0,1,-1,4
1570178551537962,3,0,0,0,0,-3,-5,6
1570178551538129,2,-1,-1,0,-4,-1,0,-7
1570178551538129,-3,1,-1,-1,-3,-1,-5,-8
1570178551552926,3,1,-2,0,-1,0,2,3
1570178551552926,0,0,-2,-1,-3,-3,-2,5
1570178551553921,-2,-1,-1,0,1,0,-2,2
1570178551553921,-3,-2,-2,-1,1,-1,2,3
1570178551574869,0,-2,-2,-1,0,0,-3,-12
1570178551574869,0,-2,0,-2,-2,1,-3,2
1570178551575861,2,-2,0,-2,1,-1,5,-1
1570178551575861,1,-1,1,-1,1,-2,1,2
1570178551597808,-2,1,2,-2,-2,-1,0,0
1570178551597808,2,1,-2,1,2,-1,-3,3
1570178551598800,-3,-2,-2,0,-1,1,2,-10
1570178551598800,6,2,0,3,-3,-1,-17,29
1570178551612812,1,-3,1,2,-3,-2,-1,5
1570178551612812,0,-1,1,-1,-2,-3,1,7
1570178551613760,-2,2,-2,-1,-2,-1,-1,1
1570178551613760,-6,-2,-2,-4,-4,-3,7,-21
1570178551634705,4,3,2,-1,-1,-3,-3,2
1570178551634705,0,0,-2,1,0,0,-1,-1
1570178551635702,-1,0,-2,0,0,0,-1,-5
1570178551635702,0,1,1,-2,4,0,-1,-2
1570178551657644,-1,1,0,-2,1,-3,1,-1
1570178551657644,0,-1,-1,0,0,-1,1,-11
1570178551658640,3,-1,0,1,1,0,-3,5
1570178551658640,-3,-2,-1,-2,1,1,0,-5
1570178551672608,-4,-5,-2,-2,-1,0,2,3
1570178551672608,-3,-2,0,0,-2,-1,-3,3
1570178551673600,-4,-1,-2,0,-2,0,-1,1
1570178551673600,-1,0,-2,1,-1,0,-2,-2
1570178551694739,-8,-1,-2,-2,-4,0,3,-33
1570178551694739,1,-2,0,0,-3,0,-3,7
1570178551695647,0,-1,1,-1,-2,-1,-2,-7
1570178551695647,4,0,-4,0,1,-3,-1,-6
1570178551718485,4,0,-2,0,1,0,-2,-2
1570178551718485,1,0,-1,-3,1,0,-1,-3
1570178551718485,-4,-1,2,0,-1,-4,-3,0
1570178551718485,-2,-1,1,-1,-3,-1,1,4
1570178551732444,2,-1,0,0,-1,-1,-1,7
1570178551732444,-2,1,-1,2,-2,-1,2,0
1570178551733441,0,2,-3,-2,1,1,-1,4
1570178551733441,0,1,-2,0,1,1,1,-2
1570178551755382,1,-2,-1,0,-2,3,-2,8
1570178551755382,-1,0,0,-3,-1,3,2,3
1570178551756380,0,0,0,-1,-1,-1,1,-5
1570178551756380,0,0,-1,-1,2,-2,0,4
1570178551777325,1,0,1,-3,0,-2,2,6
1570178551777325,-3,-3,-1,0,1,-1,1,-2
1570178551778482,-6,-4,-2,0,-1,-1,2,3
1570178551778482,-3,-2,0,1,-2,-2,-6,-3
1570178551792285,1,2,0,0,-2,0,-2,4
1570178551792285,3,2,2,-2,-3,0,-2,1
1570178551800263,-2,-1,-2,-1,-3,0,10,-22
1570178551800263,2,1,2,1,-4,0,0,16
1570178551815301,-1,-1,0,1,-1,-1,-7,1
1570178551815301,0,0,1,-2,1,1,1,2
1570178551816218,1,-2,-2,-1,1,0,3,5
1570178551816218,2,0,1,-1,1,2,2,-8
1570178551837273,6,0,0,0,1,-2,-1,4
1570178551837273,-2,-2,-2,0,0,-1,-1,-5
1570178551838353,-1,1,3,-1,-2,-1,-4,5
1570178551838353,-5,-1,-1,1,1,0,1,-15
1570178551852123,2,0,-4,-1,0,-3,-2,11
1570178551852123,-2,-2,-4,0,-4,0,-1,1
1570178551860123,-2,-1,-4,-1,-1,-1,-5,-1
1570178551860123,-2,-1,-1,-3,-2,1,-1,-6
1570178551875205,5,2,1,-1,-1,1,8,16
1570178551875205,1,0,3,0,0,0,-3,-1
1570178551876083,1,1,1,0,0,1,-5,5
1570178551876083,-1,-2,1,-1,2,0,1,4
1570178551898005,-8,-3,-1,-2,2,2,-2,-19
1570178551898005,-1,0,-2,-1,-1,1,4,5
1570178551898100,-2,0,1,1,-2,-1,-2,1
1570178551898100,-4,-1,-4,-2,-1,-5,-1,-1
1570178551912044,-5,-1,-3,-1,-4,-5,-2,-4
1570178551912044,-2,-1,0,1,-1,-6,-1,-6
1570178551919945,0,-1,0,1,-2,-3,7,-7
1570178551919945,5,1,0,0,-1,1,-1,-3
1570178551934902,1,1,1,-2,1,0,1,-6
1570178551934902,-2,-4,-3,-3,-1,1,0,-1
1570178551935898,-1,-1,-1,-1,1,-2,0,4
1570178551935898,-4,-1,1,0,-1,-2,-1,5
1570178551957846,-1,0,1,-1,-2,4,1,2
1570178551957846,-3,1,1,0,-1,-1,-5,-13
1570178551957846,10,1,-3,-1,-2,-1,-9,15
1570178551957846,0,-1,-4,0,-1,-1,1,-1
1570178551972162,0,1,1,1,0,-2,-4,-3
1570178551972162,-1,0,-1,-4,2,0,0,0
1570178551979790,-1,1,0,-2,1,4,1,-9
1570178551979790,-2,-2,-3,-1,-3,4,13,7
1570178551994744,1,0,-2,2,-4,-1,-4,5
1570178551994744,3,1,0,1,0,-4,1,8
1570178551995739,-6,-2,-1,-1,0,-5,-4,-5
1570178551995739,-1,-2,-4,-2,2,-2,1,-13
1570178552017688,-5,-2,-1,0,2,2,3,0
1570178552017688,-1,1,-2,1,-3,3,0,-2
1570178552018679,2,0,0,-1,-5,1,-1,-3
1570178552018679,2,-1,0,3,-3,1,-5,2
1570178552032640,0,2,-1,-1,0,-1,0,4
1570178552032640,-2,1,1,-2,0,-2,-5,-3
1570178552040618,-4,-1,2,-1,1,-1,-1,0
1570178552040618,-1,-2,1,-1,-1,-2,6,-5
1570178552054584,0,-3,-1,0,0,-2,-4,-3
1570178552054584,-1,0,2,0,2,-3,-3,-6
1570178552055580,5,1,-1,2,-1,-1,1,6
1570178552055580,0,1,-1,1,0,0,-1,21
1570178552077519,-4,-1,-4,-1,-2,0,2,2
1570178552077519,-3,-3,-4,-2,2,0,3,0
1570178552078518,-4,-1,0,-2,1,0,-1,0
1570178552078518,-2,2,2,-1,0,1,-2,-5
1570178552100460,5,0,3,1,-2,-2,-5,6
1570178552100460,5,0,-2,-1,-4,-2,1,-1
1570178552101697,0,0,-2,0,-3,-1,-3,-5
1570178552101697,3,-1,-1,2,-2,-1,-3,0
1570178552115728,-4,0,-1,-2,0,3,6,-9
1570178552115728,0,0,0,-1,0,-3,-8,-5
1570178552115728,2,2,1,0,4,-1,-1,4
1570178552115728,2,-1,-1,-3,1,-1,-4,-2
1570178552137358,2,0,0,-2,1,-2,-1,-4
1570178552137358,-1,-1,-1,0,1,1,-2,0
1570178552138486,-4,0,-3,0,-2,-2,0,2
1570178552138486,-7,-1,0,0,3,-2,-5,-18
1570178552160373,0,-2,1,1,1,0,-9,-2
1570178552160373,4,0,1,0,-4,1,3,10
1570178552161294,-1,-1,1,-1,0,0,1,0
1570178552161294,4,2,1,0,-2,-1,-11,16
1570178552175256,-1,-2,0,-2,0,-4,-3,0
1570178552175256,-2,-2,-1,-3,1,-1,2,4
1570178552175256,2,-1,0,-1,0,-1,-4,4
1570178552175256,0,-1,-2,-2,0,-1,1,-7
1570178552197390,1,-2,-3,0,-1,-1,1,-5
1570178552197390,0,-1,-3,-1,-3,-1,0,4
1570178552198195,-2,-2,-2,-2,-3,-2,2,-3
1570178552198195,-1,0,0,-4,-2,1,1,-1
1570178552221139,-2,-3,0,-2,-2,0,-1,0
1570178552221139,-2,0,-2,1,-1,-1,0,-8
1570178552221250,-1,-1,-2,0,-2,-1,1,-4
1570178552221250,0,0,-2,-3,-2,-1,0,0
1570178552235168,3,-2,-2,1,-2,1,4,8
1570178552235168,0,-2,-1,-1,0,-2,-1,-4
1570178552236096,-3,-4,-2,0,0,-4,-4,-1
1570178552236096,-1,-2,-2,-1,-2,-2,-1,1
1570178552258037,3,3,1,0,1,-1,-9,19
1570178552258037,1,0,-1,-1,1,1,9,-7
1570178552258273,3,0,0,1,2,-1,-5,5
1570178552258273,-1,-1,1,-3,1,-1,1,2
1570178552280977,-5,1,-2,-2,1,-2,-2,-11
1570178552280977,-1,1,-1,1,-1,-1,-2,-6
1570178552281974,2,0,-1,-1,-2,3,0,4
1570178552281974,-2,-3,-4,0,-5,1,1,-18
1570178552294939,1,-2,1,-1,-2,-4,1,0
1570178552294939,0,-2,1,-2,-1,-2,-3,5
1570178552295935,-3,-1,-2,-4,0,0,0,-7
1570178552295935,0,-2,-1,1,2,-1,-2,-1
1570178552317879,-4,-1,-2,-2,0,1,2,-7
1570178552317879,1,2,-2,1,1,2,-2,5
1570178552317879,-3,0,0,0,-2,0,1,-9
1570178552317879,0,-1,1,-1,0,-1,2,-1
1570178552340815,1,0,0,1,-1,0,3,3
1570178552340815,0,1,1,0,-1,-3,-2,-6
1570178552341813,0,-1,-1,-1,2,-1,0,5
1570178552341813,1,1,0,1,2,-4,-3,3
1570178552355776,0,-1,1,0,-1,-1,3,-8
1570178552355776,-1,-1,-1,-2,-3,0,-6,-3
1570178552356774,5,1,-1,-2,-2,2,5,6
1570178552356774,2,1,-1,-1,-1,-3,-3,4
1570178552377850,-3,-2,-5,-2,-1,-2,-3,-16
1570178552377850,-1,0,-1,-3,2,1,4,5
1570178552378723,0,0,-2,0,-1,2,2,-7
1570178552378723,0,0,0,0,0,1,-1,1
1570178552400704,1,-2,1,0,-1,-2,-1,2
1570178552400704,-5,-2,0,-1,0,-1,2,5
1570178552401652,-4,0,0,-1,-3,-2,-3,-2
1570178552401652,0,2,-1,-1,-1,-3,-2,2
1570178552414618,0,1,-1,-2,-2,0,-4,-5
1570178552414618,2,0,-1,0,1,-1,-2,-3
1570178552415616,0,-1,-2,-2,-2,0,3,-5
1570178552415616,0,-1,-1,0,-2,-1,-10,7
1570178552445654,-4,-2,-2,-1,0,1,-1,-8
1570178552445654,0,-1,1,2,-1,1,-2,8
1570178552446536,0,1,1,1,1,-1,-1,-4
1570178552446536,0,0,-2,1,1,0,5,-1
1570178552460580,-3,1,-3,-1,0,0,-1,2
1570178552460580,-2,-2,-1,-1,-2,-2,-3,-3
1570178552461492,0,-2,-2,-3,0,2,3,11
1570178552461492,2,-2,-1,0,-1,3,0,4
1570178552475463,3,-2,1,-1,-1,-3,1,10
1570178552475463,-2,-4,-2,0,-3,-1,1,-1
1570178552475463,-3,-1,0,-2,-3,-2,-2,-5
1570178552475463,-2,0,0,-1,-1,1,1,-7
1570178552497509,-1,0,-2,-1,0,1,6,-1
1570178552497509,0,0,-1,0,-3,-2,-4,7
1570178552498394,-1,2,-2,3,1,1,-4,1
1570178552498394,-4,-2,-2,1,2,-1,-2,-5
1570178552520337,-7,-2,-3,0,-1,1,12,-16
1570178552520337,-3,1,1,0,0,-1,-1,-2
1570178552521426,2,-2,1,0,-1,-1,-1,6
1570178552521426,3,1,1,-2,0,-3,1,5
1570178552535304,3,0,0,-2,1,2,1,1
1570178552535304,2,0,-1,-2,0,0,0,-5
1570178552535661,-3,-2,-2,1,1,0,-4,-7
1570178552535661,-1,-1,1,1,2,-1,3,13
1570178552557280,-1,-1,-1,-2,-1,-3,-1,6
1570178552557280,-2,-1,-1,-1,-1,-2,-2,-1
1570178552558283,-3,2,3,0,0,-4,-6,-1
1570178552558283,2,0,-1,-3,-2,2,-2,-1
1570178552581229,3,-2,-2,1,1,1,-2,1
1570178552581229,0,0,-1,-1,-2,1,1,1
1570178552582048,3,-2,-2,1,-3,0,0,11
1570178552582048,-4,0,-2,-1,-2,-4,-1,-3
1570178552595151,-8,0,2,-2,-1,0,5,-12
1570178552595151,4,0,-3,-1,3,3,0,0
1570178552596027,-1,-1,-1,-2,1,-1,0,-5
1570178552596027,-3,-3,-2,1,-1,1,-2,-13
1570178552618253,8,0,1,3,-1,-1,0,15
1570178552618253,1,-3,-1,1,-3,-1,-1,-5
1570178552618445,-1,-1,-1,-2,-2,0,-2,-4
1570178552618445,1,0,1,-1,-1,1,5,17
1570178552641247,-3,-1,1,1,-1,-1,-6,-6
1570178552641247,-6,-1,-1,-3,1,-2,-1,0
1570178552641247,-2,-1,1,-3,1,-1,1,0
1570178552641247,-3,-2,-1,-1,0,-1,1,-9
1570178552655206,1,0,-1,-1,0,-1,-3,3
1570178552655206,-1,0,0,0,-1,-2,-1,1
1570178552662377,0,-1,-1,1,0,0,-1,-2
1570178552662377,-2,1,0,-1,-1,1,-2,-3
1570178552678041,-1,-2,-1,-1,-2,0,-1,1
1570178552678041,-2,-1,1,-1,-2,-1,8,-21
1570178552678041,-2,-2,1,0,-2,-2,-9,3
1570178552678041,2,-2,-1,0,-2,-1,1,2
1570178552701178,-1,-1,-1,1,1,0,-3,3
1570178552701178,0,0,1,0,2,-2,-2,-5
1570178552701178,-1,-2,-3,-1,1,0,2,2
1570178552701178,-3,1,-1,-1,0,-2,-3,-5
1570178552715143,5,0,0,-1,0,0,-2,9
1570178552715143,0,1,-2,0,0,-1,-3,4
1570178552722130,-1,-1,0,-2,-1,-2,0,-7
1570178552722130,-1,-2,1,-1,1,-1,-4,-2
1570178552737515,-5,-1,0,-2,0,-3,0,-1
1570178552737515,-2,-1,-1,-2,1,-3,-3,3
1570178552738380,1,-2,-1,-2,-2,1,2,0
1570178552738380,-2,-1,0,0,-4,1,2,-5
1570178552761391,-4,1,0,1,-3,1,-1,-6
1570178552761391,-4,-4,-2,1,-3,-1,-4,0
1570178552761391,0,-1,-3,1,-1,-1,-1,7
1570178552761391,1,-1,-5,-2,3,0,-1,-4
1570178552774239,-3,1,-1,-1,1,-2,-2,-4
1570178552774239,10,3,5,2,1,1,-2,10
1570178552783262,-5,-1,-1,-1,-1,-3,-3,-10
1570178552783262,-1,-1,5,0,-6,-2,-2,1
1570178552797174,2,-3,-7,-3,1,-1,2,1
1570178552797174,2,-1,-6,-2,6,3,4,4
1570178552798227,9,2,1,1,8,2,7,9
1570178552798227,-3,0,-4,-2,-8,-5,3,-1
1570178552821131,2,-3,3,-3,-7,-6,-14,4
1570178552821131,-5,-1,0,-1,-3,4,3,1
1570178552821371,-10,-3,6,6,10,7,0,-7
1570178552821371,8,-2,-5,-2,0,-1,2,-10
1570178552834787,0,7,3,-5,-26,-12,4,-8
1570178552834787,1,-8,-11,2,-3,-3,18,19
1570178552842806,-4,2,3,-2,-2,-6,-28,-27
1570178552842806,-1,5,11,0,4,4,4,3
1570178552857762,-5,4,11,-1,5,-3,-27,-10
1570178552857762,-10,-19,7,-6,-5,0,-2,-9
1570178552858732,3,-4,-3,-2,6,3,17,7
1570178552858732,-6,3,28,12,7,2,3,-8
1570178552880673,16,21,8,-4,0,4,6,14
1570178552880673,10,18,5,-3,-6,-2,-3,7
1570178552881673,-13,-39,-10,2,-5,-2,-5,-8
1570178552881673,-1,-12,-15,4,-2,-3,-6,13
1570178552894637,-3,-2,0,11,9,3,2,-16
1570178552894637,-2,16,-4,-5,0,1,18,-4
1570178552909597,13,43,-1,-7,-7,-5,-7,1
1570178552909597,-4,-16,-4,-1,-5,-5,-14,2
1570178552917647,-9,-36,-10,-2,5,-1,-9,-6
1570178552917647,-3,-8,-13,-4,6,0,-12,17
1570178552918572,-1,4,-10,-6,-5,-1,14,13
1570178552918572,2,18,1,-3,-5,-3,-8,12
1570178552940514,0,5,6,10,2,0,8,4
1570178552940514,2,11,0,12,-2,0,-3,-17
1570178552941511,3,6,-4,-5,11,5,12,-12
1570178552941511,7,4,-16,-4,9,4,-2,-13
1570178552954475,-4,-12,-9,-6,1,2,1,-9
1570178552954475,-16,-31,8,-3,-10,-3,11,-15
1570178552962455,-7,-5,-7,-1,-8,-7,-15,-49
1570178552962455,4,5,-3,-4,-2,-2,-11,-66
1570178552977413,2,22,17,-1,-2,-2,-7,-75
1570178552977413,7,21,1,-4,-7,-2,-1,-32
1570178552978410,-14,-38,-4,-4,-10,-4,-21,4
1570178552978410,-1,5,-4,-6,-2,0,10,30
1570178553000353,2,-5,-5,4,5,2,15,63
1570178553000353,-5,-13,-8,6,6,-4,-18,31
1570178553001348,15,26,14,4,-3,2,19,40
1570178553001348,-4,-9,-4,-5,2,3,4,17
1570178553022660,13,17,-10,-3,0,0,11,26
1570178553022660,-5,3,22,-2,1,-1,-21,-20
1570178553023600,-13,2,-7,-13,-2,-8,-3,-21
1570178553023600,-21,-26,-8,-6,0,-1,-10,-37
1570178553045662,32,13,-2,-11,-1,8,12,-11
1570178553045662,0,6,9,14,0,0,12,-20
1570178553046676,-20,-46,-5,11,-3,4,-11,-11
1570178553046676,-14,16,2,7,-1,-1,4,17
1570178553060508,9,-6,1,-4,4,-5,0,3
1570178553060508,5,-9,-13,-14,3,4,5,35
1570178553061506,26,29,12,4,0,-6,-16,31
1570178553061506,-9,-4,-6,0,0,4,15,29
1570178553083745,-28,-19,-6,5,2,3,-1,20
1570178553083745,11,3,3,0,-5,-5,-6,19
1570178553084440,-3,12,5,13,-3,-1,6,20
1570178553084440,11,-15,-9,5,2,0,9,21
1570178553097532,-2,19,11,8,-5,-2,-1,13
1570178553097532,-11,-29,-9,6,5,0,-4,-4
1570178553098404,5,14,1,1,-6,2,-7,11
1570178553098404,18,14,3,-2,-7,-3,-9,0
1570178553120800,-19,-3,1,-5,-2,5,21,-3
1570178553120800,21,15,-11,-17,-3,-7,-26,-11
1570178553121693,2,-13,-7,-10,2,-5,-3,-6
1570178553121693,-21,-6,2,3,4,-3,1,-6
1570178553143827,3,-13,-5,2,3,3,14,7
1570178553143827,-1,8,5,6,1,2,9,7
1570178553143827,-6,-8,2,2,4,6,30,17
1570178553143827,-11,4,2,-4,-1,-5,-42,-29
1570178553157596,-8,-6,-7,-6,-5,-6,8,12
1570178553157596,33,22,6,3,4,7,8,-1
1570178553158594,-19,-2,-3,-10,6,10,-4,-5
1570178553158594,-27,-20,15,7,0,-19,13,9
1570178553181533,-2,-6,-16,-7,-16,-27,-22,-22
1570178553181533,13,25,2,-6,-5,1,10,-2
1570178553181533,21,-1,5,4,-5,3,21,-2
1570178553181533,-7,8,-2,1,21,10,-9,-31
1570178553203481,20,7,6,9,26,36,9,9
1570178553203481,-80,-33,-10,-11,-33,-39,-28,-21
1570178553203481,29,-2,-6,-10,-43,-47,-30,2
1570178553203481,7,20,1,-4,-19,-32,-22,-36
1570178553217437,24,14,12,3,8,18,24,2
1570178553217437,4,-18,-12,0,23,24,9,20
1570178553218442,5,11,11,3,9,19,13,8
1570178553218442,12,2,-1,1,-1,4,2,-43
1570178553240384,53,-11,-18,-10,-7,-19,-50,47
1570178553240384,-37,-29,-3,-3,8,11,-2,73
1570178553242372,-17,-7,-5,0,3,-7,26,114
1570178553242372,-45,7,1,-4,-1,2,-10,117
1570178553263519,-14,-10,0,1,2,7,7,42
1570178553263519,5,-3,-6,-1,-8,-5,-8,-12
1570178553264313,18,-2,-4,1,3,0,-12,-73
1570178553264313,41,18,-3,-5,-4,4,4,-57
1570178553277487,-47,-5,4,3,2,-3,16,-117
1570178553277487,-2,-7,-15,-8,-6,-3,-18,-83
1570178553278275,-11,20,20,5,3,4,-3,-77
1570178553278275,-25,3,4,5,2,10,14,-28
1570178553300220,27,21,10,9,-3,-10,-28,-33
1570178553300220,-5,-28,-15,-3,3,-3,30,-16
1570178553301221,-17,-5,1,1,15,4,-17,-54
1570178553301221,6,-4,0,-7,-15,11,18,21
1570178553323415,58,22,-6,-11,-8,-11,4,-5
1570178553323415,-31,0,9,-2,0,14,-7,-24
1570178553324153,-5,5,-7,-2,-2,-4,-7,-1
1570178553324153,2,-20,1,2,-6,-20,-4,3
1570178553337118,7,16,4,4,3,14,-5,19
1570178553337118,23,-6,-3,-2,-6,-8,22,9
1570178553338116,-3,-10,-2,4,6,14,7,39
1570178553338116,10,0,-2,1,3,0,-28,-15
1570178553361053,-13,-7,0,-1,-4,3,29,37
1570178553361053,34,36,7,8,8,0,-34,4
1570178553362774,-7,-5,-5,-6,-2,2,3,1
1570178553362774,-2,-18,-5,-5,-4,-9,-1,-13
1570178553383044,-11,-1,-3,-3,-6,-11,-19,-5
1570178553383044,-29,-8,7,4,2,0,7,8
1570178553385069,-10,-2,-7,-3,-1,-2,-21,-20
1570178553385069,9,-6,-10,-8,-3,7,38,-9
1570178553396965,-30,-21,-7,-1,-2,-3,-11,-9
1570178553396965,10,15,14,9,3,2,6,3
1570178553405999,18,4,-1,1,-1,-4,-15,0
1570178553405999,2,-3,-4,-2,4,7,22,17
1570178553420895,-22,-8,-4,-3,0,-1,5,-5
1570178553420895,25,8,1,-1,0,5,-10,41
1570178553422974,-11,-4,2,3,0,-16,-21,-12
1570178553422974,19,9,6,5,4,1,-4,17
1570178553444878,-20,-13,-3,-2,4,-5,9,-3
1570178553444878,9,6,2,3,-11,-12,-14,-4
1570178553446611,0,-1,-4,-4,-4,20,30,7
1570178553446611,5,-2,-2,-4,-11,-4,-11,15
1570178553457155,-6,-3,1,1,-8,-2,-5,-6
1570178553457155,-5,2,-2,-2,2,1,5,-16
1570178553465778,7,1,-1,5,14,2,29,15
1570178553465778,10,-3,-3,-2,9,4,-9,6
1570178553480851,-14,-5,-2,-4,-16,-17,-22,-5
1570178553480851,-3,2,-3,0,12,13,27,-13
1570178553482735,-4,-3,0,4,-18,-16,-38,-7
1570178553482735,-3,-5,-4,-4,22,13,20,7
1570178553503681,5,4,2,0,7,-4,-13,-4
1570178553503681,39,16,8,3,-6,-5,0,4
1570178553504771,-42,-16,-6,-14,-8,-4,9,-5
1570178553504771,25,8,0,1,5,4,13,19
1570178553516651,-11,-7,-8,-7,-16,-6,-7,1
1570178553516651,-5,-12,-6,-7,-44,-16,-7,-7
1570178553526611,13,6,3,-1,-3,-17,5,5
1570178553526611,-4,3,6,12,30,32,-26,-5
1570178553539578,6,0,1,-4,9,8,27,13
1570178553539578,5,8,7,7,-8,-5,4,0
1570178553547555,-6,-7,-8,-9,20,-2,-13,-18
1570178553547555,5,-6,-10,-16,-29,-14,10,0
1570178553563513,-2,-1,1,2,-5,-3,-24,-4
1570178553563513,-13,1,1,0,12,9,12,-3
1570178553565515,8,3,4,6,-18,5,10,16
1570178553565515,-5,-3,0,6,15,-6,-11,-1
1570178553576479,-9,-5,-4,-3,0,10,13,-2
1570178553576479,-8,-4,-4,-5,-16,-14,-12,12
1570178553585879,9,5,3,-7,-31,3,11,2
1570178553585879,9,5,2,5,27,10,-4,5
1570178553600472,-20,-17,-10,-23,-25,-17,21,-7
1570178553600472,-4,-5,-5,2,56,14,-3,-24
1570178553602641,19,14,11,5,-17,4,-10,9
1570178553602641,-12,-8,-8,-16,-57,-11,-1,-17
1570178553623354,-1,0,-2,13,42,0,6,2
1570178553623354,2,2,-1,-9,-35,-7,-22,-1
1570178553625347,1,-6,-5,-1,16,10,15,-1
1570178553625347,-3,1,3,8,3,-9,-15,-6
1570178553637314,2,1,5,9,27,16,2,19
1570178553637314,4,6,3,2,-23,-2,9,3
1570178553646290,-5,-3,-3,-1,16,-5,-8,-13
1570178553646290,4,4,1,5,-11,1,25,6
1570178553660254,-12,-11,-6,-1,18,9,4,-19
1570178553660254,-2,1,3,-5,11,5,-29,-5
1570178553662652,-7,-9,-9,0,22,-19,-14,-3
1570178553662652,3,4,6,4,9,9,6,-9
1570178553683196,0,-4,-5,-7,-20,7,-1,13
1570178553683196,-7,-8,-6,-2,8,-4,23,4
1570178553685186,4,1,-4,-12,-38,-4,18,9
1570178553685186,-1,-3,-1,-4,-9,-12,-13,5
1570178553697154,3,4,3,7,8,-1,4,-3
1570178553697154,-5,-7,-9,-10,1,-4,-12,-10
1570178553706130,3,4,0,6,16,10,5,2
1570178553706130,-3,2,6,2,6,2,8,4
1570178553721095,-2,-2,-3,-3,-23,-2,-17,-3
1570178553721095,10,9,3,8,13,-3,9,-1
1570178553722344,-7,-12,2,5,8,11,5,4
1570178553722344,-1,-7,-9,-7,-9,-7,-8,-3
1570178553743030,6,18,14,7,-2,-3,-1,-3
1570178553743030,-5,1,-18,-8,4,3,0,6
1570178553745025,-1,-5,11,3,3,-1,-8,-7
1570178553745025,4,14,1,0,-7,-3,12,-1
1570178553757198,-2,-20,5,6,-6,-9,-16,3
1570178553757198,-12,-8,-3,0,5,5,11,9
1570178553765970,12,3,-5,-3,-2,3,-17,-1
1570178553765970,-15,3,4,0,6,7,35,1
1570178553779933,-8,7,3,2,-3,-4,-37,-13
1570178553779933,16,0,-2,3,-1,-9,-25,0
1570178553786914,-3,-4,-10,-6,0,-4,6,1
1570178553786914,11,17,4,2,2,0,6,15
1570178553802872,0,18,19,6,2,4,6,1
1570178553802872,-6,-5,-2,-3,-9,-4,-6,-10
1570178553805121,3,-10,-15,-7,-2,-2,-11,-12
1570178553805121,-16,-9,2,8,1,-6,-2,-2
1570178553816833,5,-3,-20,-10,-6,0,9,-6
1570178553816833,-2,8,30,9,5,6,10,4
1570178553825810,-12,-5,-2,5,3,4,4,-39
1570178553825810,17,-2,-9,-5,-5,-6,-21,-9
1570178553839773,9,5,-4,-3,1,2,-3,10
1570178553839773,3,9,5,4,3,-5,-4,-7
1570178553846801,-24,1,5,1,6,2,-14,5
1570178553846801,-10,-8,6,0,-1,2,16,10
1570178553862711,14,-12,-5,0,0,-1,-14,5
1570178553862711,28,40,8,3,6,12,25,28
1570178553864705,-20,-21,-6,-1,-5,-4,-21,-15
1570178553864705,-21,10,-11,-6,-3,-3,-1,-11
1570178553876692,27,-33,7,5,0,1,5,24
1570178553876692,-70,-23,-19,-7,-3,-8,1,-5
1570178553885648,42,23,10,6,2,0,8,27
1570178553885648,-6,-1,-5,-4,-2,1,-4,-14
1570178553900711,-12,8,-4,-3,-3,-6,2,-13
1570178553900711,18,9,7,2,2,1,1,1
1570178553902604,-5,5,2,0,2,3,5,-8
1570178553902604,10,-9,1,-1,-3,-5,-11,-31
1570178553923554,-30,-6,-4,0,0,-1,18,-30
1570178553923554,10,-10,3,0,1,-3,-21,-37
1570178553924547,8,10,4,-2,1,0,8,4
1570178553924547,15,-13,-6,-4,-2,0,1,23
1570178553936591,1,20,4,3,0,-1,-6,17
1570178553936591,2,-12,-7,2,0,1,13,8
1570178553945739,4,2,-4,-2,-3,0,12,38
1570178553945739,-29,-4,8,-1,-1,-3,-44,1
1570178553960450,3,-16,-8,-6,-3,-1,3,12
1570178553960450,-3,0,-5,-4,-3,-3,-15,-5
1570178553966436,4,6,5,5,1,1,19,13
1570178553966436,-2,-1,3,4,0,0,3,-2
1570178553983390,3,-3,-3,-4,-3,-2,-1,-9
1570178553983390,1,-1,1,0,0,0,0,2
1570178553984384,2,2,0,-3,1,3,10,8
1570178553984384,10,-3,-3,-2,2,1,3,10
1570178554006328,-8,6,1,-3,-1,-3,-8,-1
1570178554006328,5,-5,3,3,1,1,8,11
1570178554007678,0,2,-1,-2,-1,0,3,-4
1570178554007678,1,-6,-3,0,-1,-1,11,7
1570178554020396,-1,6,2,0,-1,2,-9,-4
1570178554020396,-11,-8,-5,-4,-5,-6,-30,-17
1570178554027273,0,-5,-5,-2,-3,-7,-29,-11
1570178554027273,5,-1,-5,-4,0,0,1,4
1570178554043230,-2,3,2,2,2,2,19,1
1570178554043230,3,-1,3,6,1,2,16,1
1570178554045226,-3,-1,2,3,1,0,-4,-2
1570178554045226,4,1,-1,1,-3,2,15,-1
1570178554066171,7,6,4,2,2,3,-10,0
1570178554066171,-1,-7,-3,-3,-3,0,7,4
1570178554067166,-2,0,-1,2,8,-2,2,-5
1570178554067166,-3,-5,-2,1,-11,-2,3,7
1570178554080316,-10,-4,-7,-9,1,-5,-10,-11
1570178554080316,-2,-2,-2,-5,-15,-4,-24,-6
1570178554087112,4,2,2,0,12,2,17,6
1570178554087112,3,1,1,1,-9,5,3,2
1570178554103200,-3,-1,-1,6,30,2,4,-9
1570178554103200,5,-1,-3,-8,-35,-8,11,2
1570178554105065,-7,-6,-3,-1,0,1,3,-7
1570178554105065,5,4,6,10,-9,-5,-17,-2
1570178554126009,0,-2,-4,-7,-9,-3,12,2
1570178554126009,11,3,1,1,16,4,7,5
1570178554127005,-2,-1,-3,-8,-21,0,-6,-3
1570178554127005,14,4,2,3,17,3,-22,-4
1570178554139054,-29,-10,3,4,-20,-3,12,-6
1570178554139054,4,2,0,0,0,4,-4,4
1570178554147956,-12,-8,-8,-3,8,-23,-18,-18
1570178554147956,13,4,1,-2,4,0,3,-1
1570178554163906,3,4,0,0,-8,-2,-2,-4
1570178554163906,-5,0,0,2,11,3,-6,-4
1570178554164912,4,0,3,6,3,6,10,4
1570178554164912,-13,-7,-10,-10,-5,-6,-1,-3
1570178554185846,5,3,7,1,-11,-2,36,10
1570178554185846,-6,-3,2,-2,7,1,-38,-7
1570178554186845,2,1,-1,-3,0,2,-3,-1
1570178554186845,-6,-2,1,-5,2,-9,-27,0
1570178554199811,-4,-6,-8,-3,2,12,7,-3
1570178554199811,7,1,-1,1,2,-7,8,4
1570178554208787,0,1,5,6,8,6,10,3
1570178554208787,-2,-1,2,5,7,-6,-11,-8
1570178554223389,4,3,-4,-5,-3,0,2,3
1570178554223389,-6,-9,-12,-2,-1,0,17,2
1570178554224812,0,8,13,0,-23,-4,-40,-6
1570178554224812,-3,1,2,1,30,4,47,10
1570178554245794,0,-3,-4,-6,-4,4,-22,-9
1570178554245794,-2,-1,-6,-3,0,-6,-20,1
1570178554247681,6,5,3,-3,-5,-1,1,8
1570178554247681,-3,-4,-2,0,-16,0,-2,0
1570178554259735,1,2,3,-3,3,5,21,1
1570178554259735,-7,-5,-3,7,23,6,-4,-2
1570178554268628,-6,-4,-6,-5,-11,-2,2,-8
1570178554268628,-4,-1,-1,1,11,-1,-10,-2
1570178554283589,-1,2,-1,3,8,14,37,22
1570178554283589,5,9,7,-3,-15,-17,-37,-21
1570178554284588,-6,-17,-5,-1,-5,-5,12,-7
1570178554284588,-4,-5,-4,-3,-11,-5,-20,1
1570178554305530,0,-3,-6,-2,2,-5,-8,-2
1570178554305530,0,5,2,-1,6,8,18,3
1570178554307522,3,4,-3,1,6,2,12,9
1570178554307522,-2,-1,1,3,5,12,44,5
1570178554319730,7,5,5,2,-7,-23,-93,-21
1570178554319730,-7,-3,-3,-7,-16,-3,22,2
1570178554328469,1,1,-5,-1,-4,0,5,5
1570178554328469,-3,1,6,-1,2,3,12,-1
1570178554343430,2,1,1,0,-2,-8,-31,-6
1570178554343430,0,1,1,2,4,3,19,-1
1570178554344520,-4,-3,0,0,-3,0,-22,-6
1570178554344520,-3,-2,-12,-6,1,4,0,-2
1570178554365368,9,-2,-1,4,-3,-10,-2,-5
1570178554365368,2,-1,16,8,3,5,7,5
1570178554367363,-6,0,-2,0,24,9,13,0
1570178554367363,-2,-1,0,-2,-7,1,-14,-1
1570178554380329,-5,5,-1,-1,5,5,12,1
1570178554380329,-4,-13,-12,-15,-48,-13,5,1
1570178554388306,-3,-1,2,-1,-13,-10,-9,-9
1570178554388306,-2,-7,-6,-1,-3,-6,-10,-10
1570178554403270,11,7,-1,0,4,2,11,17
1570178554403270,33,11,7,5,16,10,13,54
1570178554405262,-25,-1,-8,-7,1,-1,-10,-33
1570178554405262,-8,-1,1,-5,-9,-8,-17,-4
1570178554426208,24,26,1,4,10,6,27,-21
1570178554426208,-6,3,12,4,10,1,-7,-81
1570178554427204,2,-35,-13,-2,-14,-3,-12,-35
1570178554427204,29,-8,-7,-5,2,-4,-4,-32
1570178554439173,4,-9,-16,-3,-12,-5,0,16
1570178554439173,-9,22,18,6,8,3,1,7
1570178554448345,30,21,5,2,5,2,11,67
1570178554448345,-68,-10,-25,-12,-8,-3,-4,-25
1570178554462112,11,13,6,-4,-4,-5,-13,2
1570178554462112,-11,-34,11,4,4,3,23,32
1570178554471334,-18,-11,0,5,5,1,-16,-28
1570178554471334,32,34,20,11,2,3,14,26
1570178554486048,-9,-16,-23,-16,-11,-7,-10,-31
1570178554486048,5,20,-5,-3,2,2,24,-16
1570178554487121,10,9,8,2,1,-2,-25,7
1570178554487121,-23,13,19,8,2,4,7,33
1570178554499183,28,-9,-3,-3,-4,-4,-12,-4
1570178554499183,1,-23,-14,-4,-5,-4,6,-20
1570178554507986,-50,-9,-2,2,0,2,29,-3
1570178554507986,32,12,-3,-3,1,-3,-15,-1
1570178554522950,-19,3,18,9,6,4,1,23
1570178554522950,-16,-9,-21,-9,-3,-4,-1,-13
1570178554524942,34,1,2,0,1,-1,5,28
1570178554524942,4,-4,-2,-2,-3,2,11,30
1570178554545906,2,11,9,4,0,-1,-5,5
1570178554545906,-46,-26,-23,-9,1,-3,-24,-4
1570178554546882,4,31,13,5,2,0,-1,8
1570178554546882,13,-24,-3,-4,-6,1,9,-2
1570178554558858,8,-20,-5,-3,-3,-2,15,31
1570178554558858,34,17,-3,-1,-2,-5,-26,19
1570178554575806,-19,-3,5,3,1,2,8,14
1570178554575806,-16,-3,-2,-2,-1,0,5,-5
1570178554583483,-26,-6,2,5,6,1,-7,-12
1570178554583483,13,12,2,-1,0,2,11,23
1570178554584781,26,6,-3,-2,0,1,-8,-19
1570178554584781,-1,-7,2,1,-1,-2,-10,-1
1570178554605726,-11,-4,-1,-1,-4,-1,-2,-5
1570178554605726,6,6,3,0,10,3,3,6
1570178554607814,20,5,5,0,0,2,10,19
1570178554607814,-5,-4,-2,2,-3,-6,-9,-8
1570178554619689,-12,-1,0,-3,-3,-3,5,-6
1570178554619689,-8,-1,2,4,6,-3,-8,2
1570178554628665,-4,-6,-3,-1,-1,3,13,1
1570178554628665,4,1,-1,2,2,-2,-7,-2
1570178554643705,9,2,0,4,-3,-1,15,-9
1570178554643705,-21,-9,-2,-1,-5,0,-6,-11
1570178554644621,-5,-9,-10,-7,-2,-3,-4,-3
1570178554644621,3,1,0,-1,-3,2,3,-34
1570178554665565,-9,1,3,3,4,0,-14,-3
1570178554665565,4,-1,2,0,0,0,0,1
1570178554667559,-6,-5,-4,-4,-4,-4,0,-20
1570178554667559,10,5,0,0,-1,1,3,-1
1570178554679529,-2,0,5,1,0,2,3,-2
1570178554679529,-4,-3,-1,-1,-4,0,-3,2
1570178554688567,2,-2,-4,-3,-3,1,-2,9
1570178554688567,-5,-2,-1,1,-3,-1,2,8
1570178554703465,-9,-1,2,2,5,7,-1,3
1570178554703465,3,3,-2,-2,-11,-14,-1,6
1570178554705458,4,1,-2,-2,1,2,5,-4
1570178554705458,-1,-5,-4,-4,-2,-5,-3,3
1570178554725405,-5,-3,-2,2,10,-2,-5,-1
1570178554725405,-6,-5,-5,-6,-16,-1,6,-26
1570178554727400,-6,1,-1,-5,2,7,19,36
1570178554727400,1,-1,1,2,1,-4,-11,17
1570178554739369,0,-3,-2,-2,-2,-2,-3,3
1570178554739369,2,1,1,1,3,0,-4,15
1570178554748726,-3,-1,-2,0,-3,-2,3,-17
1570178554748726,-1,1,3,0,0,3,2,2
1570178554762310,-2,0,0,-2,-9,-2,0,7
1570178554762310,-1,-2,-3,1,4,2,4,-8
1570178554769392,-1,0,2,1,3,0,-10,-4
1570178554769392,1,0,1,-2,-1,3,7,-2
1570178554786545,6,2,-1,-2,-2,-7,-12,-4
1570178554786545,-7,-6,0,0,-1,-5,0,3
1570178554787934,4,3,2,4,1,-4,2,18
1570178554787934,50,23,10,8,0,-17,-7,13
1570178554799210,-45,-26,-19,-16,3,21,9,-16
1570178554799210,12,-2,0,-1,-1,4,-3,10
1570178554808185,-1,-4,-6,-6,-3,-1,2,-11
1570178554808185,5,5,4,3,4,-6,-3,-16
1570178554822148,4,6,4,1,-1,-5,24,36
1570178554822148,14,1,-4,-2,-14,-3,-17,11
1570178554831194,-5,-2,-2,0,-5,-11,-5,-21
1570178554831194,-2,-2,0,-4,-7,6,-5,31
1570178554846083,5,4,1,5,3,-11,3,-12
1570178554846083,-14,-3,2,2,5,29,9,-7
1570178554847351,-1,-2,-3,-1,4,-17,8,-42
1570178554847351,-13,-4,-5,-2,-8,0,0,-9
1570178554859047,-4,-4,2,2,5,-3,-1,-14
1570178554859047,3,5,1,2,3,-10,5,15
1570178554868023,7,-1,-1,1,-1,0,-5,-7
1570178554868023,-11,-8,-6,-8,-2,11,12,15
1570178554881986,15,0,-4,-5,-5,-4,-9,-2
1570178554881986,20,11,5,3,5,4,4,-16
1570178554889008,-57,-24,-2,-2,-4,-6,-19,94
1570178554889008,7,0,-7,-10,-5,-2,-7,71
1570178554905922,4,1,5,1,-4,-3,-6,78
1570178554905922,31,18,-1,-3,4,-1,2,31
1570178554906922,-53,-20,-5,-3,-8,0,2,31
1570178554906922,10,5,1,1,5,0,2,30
1570178554927864,-22,-16,-8,-3,-4,-1,-9,-22
1570178554927864,-6,1,2,2,0,-8,0,-42
1570178554929857,31,15,5,1,4,5,-2,-70
1570178554929857,-16,-9,-1,1,2,1,0,-73
1570178554942827,36,6,-1,5,3,5,3,-5
1570178554942827,-19,-11,1,-2,3,-4,1,-30
1570178554948810,20,5,1,1,-1,4,-12,-24
1570178554948810,-7,-6,2,4,3,2,5,-35
1570178554965889,14,11,10,6,0,1,-4,-35
1570178554965889,2,0,-2,1,1,2,6,24
1570178554967094,-16,3,-1,-1,-1,1,-9,-13
1570178554967094,-35,-25,-10,-7,-6,-6,-6,-41
1570178554988700,-38,-10,0,2,-2,2,5,21
1570178554988700,35,11,3,0,-2,-5,3,1
1570178554990174,38,26,4,1,-3,-6,10,7
1570178554990174,6,5,2,-2,4,6,-2,-15
1570178555002665,-5,-8,-1,-1,-1,3,-1,-15
1570178555002665,-22,-20,-13,-10,-2,-2,-6,35
1570178555009644,-4,-1,-2,0,0,1,-1,-51
1570178555009644,-9,8,15,12,6,2,5,-9
1570178555025602,6,6,1,-4,-2,-1,0,-5
1570178555025602,12,7,5,1,0,1,-3,-17
1570178555027597,-9,-15,-9,-6,-2,-4,0,-42
1570178555027597,-12,-10,-7,-3,-2,-3,-6,-7
1570178555048540,0,11,4,-1,-1,-3,8,-59
1570178555048540,3,-6,-8,1,2,-1,-1,37
1570178555049537,-9,-10,-12,-16,-2,4,-1,51
1570178555049537,-10,-10,-7,6,4,0,0,7
1570178555062503,4,8,1,-1,-3,0,2,30
1570178555062503,9,12,16,16,-1,3,-1,4
1570178555069488,-10,1,11,7,2,4,3,-14
1570178555069488,10,-7,-7,-6,-1,6,4,39
1570178555085637,-2,-4,-10,-13,-3,-6,11,-33
1570178555085637,-25,-3,1,8,7,2,-2,-14
1570178555087439,23,-4,-10,-6,-4,-1,2,1
1570178555087439,16,1,-3,-3,-1,-6,1,55
1570178555108386,-16,0,0,2,-1,-1,-4,-1
1570178555108386,-23,-9,-5,-8,-2,-7,-8,-41
1570178555109380,11,12,9,-8,-1,-1,8,9
1570178555109380,-6,-2,-9,-6,-7,-5,7,8
1570178555130323,-20,-7,2,8,8,3,-6,14
1570178555130323,17,9,1,8,-5,5,8,6
1570178555132316,-63,-12,12,28,10,2,1,-15
1570178555132316,49,-4,-10,-14,-1,-3,-14,19
1570178555146577,12,8,0,2,0,-3,-30,-3
1570178555146577,13,-6,-7,-11,-1,1,4,14
1570178555148273,19,21,4,-5,1,7,2,-3
1570178555148273,-18,-3,1,0,0,-1,-3,-58
1570178555168337,30,9,1,7,-5,-3,1,-52
1570178555168337,-8,-16,-11,-14,7,1,-3,-103
1570178555170217,23,5,3,11,6,-3,4,-38
1570178555170217,43,33,9,4,-11,-4,3,-36
1570178555182323,-53,-31,-3,-2,-10,-6,-8,6
1570178555182323,-27,-11,-9,-10,-14,2,4,49
1570178555191170,-7,-7,-11,-19,-5,2,19,-27
1570178555191170,13,18,10,18,4,-1,-6,11
1570178555206118,21,20,5,3,-2,0,20,13
1570178555206118,-9,-14,-4,1,-10,-2,-2,34
1570178555207558,-1,-11,-9,-8,10,2,-7,61
1570178555207558,7,4,2,6,13,8,12,28
1570178555236041,-27,9,-16,-10,3,2,-10,-13
1570178555236041,-32,-20,-14,-13,-5,-9,-14,-25
1570178555237036,19,-4,-10,1,1,5,-5,12
1570178555237036,9,14,-5,-8,-3,-5,-3,-11
1570178555242026,-50,-22,-2,3,1,4,3,-20
1570178555242026,11,8,-3,4,-5,-2,34,-68
1570178555250999,-4,0,2,-4,-17,-7,-2,-49
1570178555250999,-9,-2,6,-10,11,8,7,-2
1570178555265961,16,-1,8,6,-3,-2,1,-2
1570178555265961,11,9,11,-3,-11,-1,-15,-12
1570178555266961,19,5,6,-8,13,0,-11,86
1570178555266961,-6,2,6,-11,11,-1,6,74
1570178555287899,-7,-15,4,6,5,6,8,117
1570178555287899,-15,-2,10,22,-3,-1,-1,108
1570178555289894,30,26,14,18,5,-9,-15,93
1570178555289894,-1,-5,-15,-6,-25,1,-15,-12
1570178555301866,-8,-19,-10,-3,8,-2,-9,-22
1570178555301866,-6,-1,4,2,0,6,7,12
1570178555310841,3,1,0,4,2,8,-17,-17
1570178555310841,-40,-23,0,3,-23,-11,1,-48
1570178555325806,12,-2,-2,-23,-9,-8,4,-38
1570178555325806,16,4,1,-12,5,-6,-10,-38
1570178555327800,6,7,2,-1,-18,-2,9,-30
1570178555327800,-13,-13,2,14,13,-2,-3,-20
1570178555347743,31,17,1,9,6,7,0,-11
1570178555347743,-9,4,6,3,-1,-1,-15,5
1570178555349738,1,-8,-4,-5,9,-2,-7,-6
1570178555349738,-28,-13,-10,-10,-32,0,-3,-79
1570178555362173,-7,-5,-2,-1,9,-3,0,22
1570178555362173,25,11,1,-3,26,-9,3,25
1570178555370682,-19,-8,-1,2,-5,11,-3,-35
1570178555370682,-1,-2,1,0,-14,4,2,27
1570178555385646,19,16,5,1,3,-23,-9,-12
1570178555385646,-9,0,-2,4,-1,15,1,1
1570178555387634,11,12,2,1,-6,-5,4,-3
1570178555387634,-5,-2,6,3,0,2,1,7
1570178555408582,-8,-6,-6,-11,3,1,1,-42
1570178555408582,9,1,0,3,2,0,-13,10
1570178555410574,-5,-13,-3,1,-3,-4,3,12
1570178555410574,-1,4,-1,2,9,-1,-5,-4
1570178555422284,23,7,1,1,-7,1,6,14
1570178555422284,-22,-9,-1,-4,4,-4,3,-43
1570178555430520,9,3,-1,-4,0,5,13,43
1570178555430520,-3,0,-1,-4,11,-4,0,-1
1570178555445480,9,3,3,4,-2,3,2,32
1570178555445480,-1,1,-1,5,-1,2,5,46
1570178555447480,-4,-3,0,19,-2,-3,1,74
1570178555447480,-7,-2,-2,16,6,-1,5,47
1570178555468456,10,2,-6,4,-9,0,0,20
1570178555468456,-6,1,-8,-1,-7,2,6,-52
1570178555470038,-3,-4,-6,13,6,0,-13,-36
1570178555470038,1,1,2,35,8,-1,-1,-26
1570178555482390,-1,1,0,28,-5,4,-6,-32
1570178555482390,2,2,1,34,-1,-4,-2,-22
1570178555490406,0,-4,0,7,-3,-3,-1,-29
1570178555490406,3,1,0,-5,5,1,-1,-15
1570178555505318,6,0,3,-13,-3,2,4,-5
1570178555505318,3,4,4,-12,2,0,-3,51
1570178555507314,-2,-4,17,-9,-4,-2,4,-10
1570178555507314,13,8,12,-30,4,1,-1,17
1570178555528691,9,-2,2,-38,-1,1,-4,24
1570178555528691,-2,-1,-3,-20,3,-6,-3,-4
1570178555530253,-4,-3,-10,-6,3,0,0,-14
1570178555530253,1,-3,-5,2,-9,-1,-2,2
1570178555542221,-5,-3,-5,3,-7,1,-7,-4
1570178555542221,-5,-3,-6,2,2,2,0,-6
1570178555551196,3,-1,-7,-4,-2,-3,-2,-3
1570178555551196,-2,-3,-5,-2,6,-2,2,-10
1570178555566156,-7,1,0,-2,2,2,0,-8
1570178555566156,9,1,-1,-9,-1,1,4,46
1570178555567153,-3,-1,-4,-12,-3,-2,2,-8
1570178555567153,1,1,0,-12,-1,-1,0,-3
1570178555588104,4,1,1,-4,-1,0,1,8
1570178555588104,-4,0,3,-2,-2,-1,-3,-26
1570178555590093,6,1,0,-11,-1,-4,-12,13
1570178555590093,-1,1,0,-7,5,-2,-1,-1
1570178555602098,-4,-2,1,-4,-2,-1,1,-17
1570178555602098,6,-2,1,-8,0,0,4,-5
1570178555611037,0,0,-2,-4,-1,0,-2,21
1570178555611037,-1,-1,-2,-1,-1,-1,-5,-9
1570178555625996,0,0,-2,4,-4,-1,1,19
1570178555625996,4,-1,-1,-1,-4,-1,-3,11
1570178555627059,-17,-5,-3,-2,-4,-4,3,-33
1570178555627059,2,1,-1,3,1,-1,1,10
1570178555647944,-7,0,-1,-7,-2,0,2,-8
1570178555647944,-6,0,1,-9,2,1,-2,-7
1570178555649932,-2,-1,0,-12,-2,3,2,-13
1570178555649932,0,-2,1,-4,0,2,-2,-3
1570178555662049,3,-1,0,-2,-2,1,0,-1
1570178555662049,-3,-1,0,3,-3,-2,-5,-12
1570178555670877,1,-2,-1,5,-3,0,2,7
1570178555670877,-7,-2,-1,4,-3,-1,0,-13
1570178555685839,0,0,-2,7,-4,-2,3,-4
1570178555685839,-4,-1,-1,4,-3,-3,-2,-5
1570178555686838,-1,0,-1,5,1,-3,3,0
1570178555686838,-3,0,-2,1,1,-1,0,0
1570178555709816,-3,-2,-1,2,2,1,2,-4
1570178555709816,-5,-1,0,1,-2,-2,-4,-15
1570178555710770,5,1,0,1,1,1,-8,9
1570178555710770,-2,-1,-2,0,-1,-1,-2,-8
1570178555721743,5,3,1,-1,1,-2,-1,10
1570178555721743,0,-1,0,-3,-1,-2,-1,5
1570178555730716,-3,-3,-4,-3,-2,1,2,4
1570178555730716,0,-2,0,0,1,-1,0,0
1570178555745682,-3,0,-1,2,0,1,1,8
1570178555745682,-1,-1,-1,3,0,0,-1,1
1570178555747677,-6,-2,-2,2,-1,-1,1,-12
1570178555747677,-2,-4,-3,-4,-1,0,2,-18
1570178555768615,4,-1,0,1,-2,2,0,16
1570178555768615,2,2,0,-3,0,0,3,0
1570178555770067,1,0,1,1,0,-1,1,2
1570178555770067,-1,1,-2,0,1,-2,0,-4
1570178555781580,4,2,0,1,0,-3,-13,7
1570178555781580,-6,-1,-3,-6,-1,2,5,-15
1570178555790557,7,2,3,6,-1,-1,7,19
1570178555790557,6,3,1,2,1,1,2,45
1570178555805521,-4,-4,-3,-3,-3,-3,-6,-19
1570178555805521,-8,-3,-4,-4,-7,-2,-2,-2
1570178555807514,-8,-3,-1,-3,-1,-1,-2,-33
1570178555807514,1,1,-1,-1,-2,-2,-2,2
1570178555828454,0,-1,-1,1,-4,-3,-1,2
1570178555828454,-4,-1,0,0,0,-4,-8,-9
1570178555829455,3,2,1,4,1,0,1,-5
1570178555829455,-7,-4,-1,-1,2,-3,0,-11
1570178555841715,-2,0,2,-9,0,1,-8,-25
1570178555841715,3,0,1,-9,1,-2,2,6
1570178555850401,-1,-1,-2,-8,-2,-1,0,7
1570178555850401,-3,0,-1,2,-1,2,-2,-3
1570178555865461,-3,-3,-1,7,1,1,5,8
1570178555865461,3,0,0,11,2,-3,-2,5
1570178555867352,-1,0,-1,4,-2,0,-2,-5
1570178555867352,5,1,0,3,-2,-2,-14,9
1570178555888393,-4,1,0,-1,2,-1,0,-14
1570178555888393,4,0,-1,2,3,5,5,21
1570178555890290,7,0,0,-1,2,3,-4,45
1570178555890290,-1,-3,-2,-5,-4,0,1,-12
1570178555911235,4,2,3,3,1,-1,2,9
1570178555911235,1,1,0,2,0,-2,-5,4
1570178555912233,-2,-2,-3,-1,-1,-4,-1,-8
1570178555912233,-2,-2,-2,-4,-1,0,6,1
1570178555925195,-2,0,-1,-1,-2,-1,1,5
1570178555925195,1,0,-4,-2,-4,1,4,-5
1570178555927193,-5,0,0,0,-2,-1,-1,-13
1570178555927193,1,1,1,1,-2,-1,-1,-3
1570178555948139,-3,-1,-3,-1,0,0,1,-10
1570178555948139,3,1,1,-2,-1,-1,0,4
1570178555950130,-1,-3,-2,-5,-1,0,-1,-15
1570178555950130,3,-1,0,1,1,0,1,4
1570178555971077,-5,-4,-1,-1,-1,2,8,-7
1570178555971077,0,0,0,2,1,0,-1,0
1570178555972575,-16,-6,-4,-4,-2,0,15,-41
1570178555972575,-2,-2,-1,-3,0,0,4,5
1570178555986033,3,0,0,-2,0,-1,3,17
1570178555986033,0,0,1,0,-1,-3,-6,-2
1570178555987032,-6,-1,-2,0,0,-2,0,-21
1570178555987032,1,1,-1,1,0,1,-1,1
1570178556008003,0,0,-1,0,0,-2,-1,2
1570178556008003,-11,-6,-3,-2,-2,-5,-1,-35
1570178556009970,8,2,2,0,1,-1,-4,46
1570178556009970,0,0,-2,-2,-1,-1,-3,-8
1570178556030918,-1,-2,-1,-1,-6,2,1,-9
1570178556030918,-8,-7,-3,2,-10,-2,2,-1
1570178556031915,5,0,-1,1,-4,-1,-1,21
1570178556031915,-6,-2,-2,-3,-2,0,-2,2
1570178556045012,-1,0,0,-3,5,1,-2,8
1570178556045012,1,2,0,0,7,3,0,5
1570178556051859,-6,-1,-1,17,4,0,1,-17
1570178556051859,0,1,0,12,3,-1,4,0
1570178556068387,-4,-1,-2,2,0,-5,-8,-19
1570178556068387,-4,1,-1,-8,0,-2,1,-11
1570178556069812,6,1,0,-10,4,2,-3,30
1570178556069812,4,1,0,-8,0,0,-4,19
1570178556097762,-8,-4,-2,-7,-2,0,-4,-34
1570178556097762,26,8,3,-1,3,2,-15,105
1570178556099730,2,2,1,-6,-1,-2,-14,10
1570178556099730,0,-1,0,1,3,-2,1,19
1570178556104719,-8,-4,-4,3,-2,-5,-8,-38
1570178556104719,1,0,-1,6,1,-1,5,-6
1570178556111703,-3,-1,-1,2,-3,0,0,-29
1570178556111703,-3,1,0,0,-3,-1,-1,-12
1570178556127898,6,2,-1,1,-2,-1,0,4
1570178556127898,-5,-3,-1,1,-1,-1,1,-32
1570178556129651,0,-2,-1,-1,-1,0,2,-5
1570178556129651,-5,-1,0,-3,0,1,-1,-22
1570178556150745,4,2,1,0,6,1,3,23
1570178556150745,-3,-3,-1,-1,2,1,0,0
1570178556152588,-10,-3,-1,-4,-3,-3,-2,-30
1570178556152588,10,2,3,0,-2,-1,-2,24
1570178556164559,-1,1,1,0,-1,1,4,8
1570178556164559,-1,0,0,-1,-3,2,0,-7
1570178556171541,-5,-4,-4,-5,-4,-1,3,-29
1570178556171541,11,2,3,2,0,-1,-5,51
1570178556188497,8,1,-1,-2,1,-2,2,13
1570178556188497,-4,-2,-2,-2,1,-3,1,-19
1570178556189490,2,-1,0,-1,1,-1,0,8
1570178556189490,-5,-1,-2,-2,-3,0,2,-24
1570178556210906,2,1,-1,1,-2,3,0,19
1570178556210906,-1,-2,-2,-1,-1,0,0,7
1570178556212435,0,2,0,-2,2,1,0,7
1570178556212435,-6,-5,-3,-1,1,-1,-3,-15
1570178556225397,0,1,-3,-1,3,-1,-1,-1
1570178556225397,0,0,-1,0,0,-4,0,-20
1570178556232382,1,-2,-4,0,0,-7,-5,4
1570178556232382,-2,0,-2,-3,-1,-3,-5,-16
1570178556248332,-1,-1,0,-2,-2,0,0,1
1570178556248332,-2,0,4,0,-1,3,11,6
1570178556249331,6,2,3,0,-3,-2,-12,2
1570178556249331,1,-1,-2,-1,1,2,-3,19
1570178556270464,1,0,-1,0,0,-1,-2,5
1570178556270464,-12,-3,-5,-3,-4,-1,1,-51
1570178556272269,-3,-2,0,-1,-2,1,6,-4
1570178556272269,-5,-3,-3,-1,1,0,4,-24
1570178556285235,1,-2,0,-1,1,-1,4,14
1570178556285235,0,1,-1,2,1,-1,-3,5
1570178556292216,4,1,-1,0,-1,2,4,15
1570178556292216,-1,-2,-2,-2,-3,-3,1,-8
1570178556308175,-4,-1,-2,-3,-4,-3,-3,-5
1570178556308175,2,1,1,0,-4,-3,-1,6
1570178556310169,-1,-2,-1,-1,0,0,1,8
1570178556310169,8,1,0,-1,1,1,4,19
1570178556331117,2,-2,-2,1,1,0,2,21
1570178556331117,0,1,1,2,-2,-1,-4,5
1570178556332213,12,3,0,0,4,2,-16,59
1570178556332213,1,0,1,1,-2,0,8,23
1570178556345079,1,1,2,4,2,2,6,15
1570178556345079,2,-2,-2,0,2,1,-5,14
1570178556352055,-6,-3,-3,-1,-2,-2,6,-26
1570178556352055,-6,-2,0,-1,-3,-3,0,-20
1570178556368016,-1,-1,2,1,-2,1,-4,-1
1570178556368016,-5,-3,-2,2,-3,-2,-1,5
1570178556370010,4,3,0,-2,-2,1,4,-7
1570178556370010,-2,-2,-2,-3,-1,0,-4,-12
1570178556390997,-3,-3,-3,-1,-3,1,4,-11
1570178556390997,-4,-2,-4,-3,0,1,-1,-9
1570178556391948,-11,-3,-1,2,1,-3,4,-15
1570178556391948,-2,3,0,2,1,-1,6,1
1570178556413635,3,1,0,-2,-2,-2,-3,-6
1570178556413635,2,-3,2,-4,1,-2,-1,1
1570178556415111,0,-2,0,-1,0,0,0,7
1570178556415111,-4,-1,-1,2,0,0,-1,-10
1570178556427851,-5,-2,-2,-2,-1,-1,-2,-6
1570178556427851,6,2,-1,0,0,-1,-3,43
1570178556429882,1,1,1,2,2,1,3,5
1570178556429882,-1,-4,-2,-2,1,1,-3,-10
1570178556450791,6,3,2,3,2,2,2,28
1570178556450791,6,1,-1,-1,-2,-1,4,0
1570178556452786,-3,-3,1,0,-4,0,-3,-14
1570178556452786,5,0,-1,0,-1,-1,-3,10
1570178556464753,-2,0,-3,-2,-3,-4,-2,-22
1570178556464753,-6,-1,0,1,-2,0,1,-12
1570178556473731,-2,2,0,2,-2,-2,-1,0
1570178556473731,-3,0,0,0,-2,-2,0,-13
1570178556488690,-4,-3,-2,0,0,-2,-1,-10
1570178556488690,-1,-1,-2,-1,1,1,-1,-4
1570178556489688,-3,0,-2,-1,2,-1,-8,-6
1570178556489688,-2,0,0,-4,-3,0,-1,-3
1570178556518661,1,-1,-1,-1,-1,1,1,6
1570178556518661,4,1,1,-2,0,2,-2,-4
1570178556519683,0,-3,-2,-3,-3,0,-5,-5
1570178556519683,-3,0,-2,0,-1,0,-4,-9
1570178556524668,1,1,-1,-2,0,-3,-1,4
1570178556524668,-1,0,-1,-2,0,-2,1,-5
1570178556533570,1,-1,0,-1,0,0,5,7
1570178556533570,0,2,1,2,-3,0,5,15
1570178556547775,-2,-2,-1,0,-2,1,-1,32
1570178556547775,-2,-2,-2,0,-1,1,2,5
1570178556549766,-2,-1,0,-1,-1,-1,1,-5
1570178556549766,3,0,-2,0,1,-2,-10,11
1570178556570359,-4,1,0,-1,-2,1,-2,-18
1570178556570359,-3,-1,-1,-1,0,-1,-1,-5
1570178556572355,0,0,1,-2,-1,0,-2,-7
1570178556572355,-2,-1,-2,1,0,2,12,-3
1570178556584512,-1,0,0,1,-1,-3,-4,-12
1570178556584512,0,-1,-1,-1,0,-2,-2,-6
1570178556593462,0,0,-2,-2,0,-2,-3,-4
1570178556593462,-3,-1,-3,-2,0,-2,-2,-11
1570178556607959,-2,-1,2,1,1,-2,-2,-5
1570178556607959,-6,-3,-3,-1,-2,-2,-9,-7
1570178556609979,-3,-2,-1,0,0,2,-1,-5
1570178556609979,4,0,0,-2,0,-2,-1,7
1570178556630216,0,0,-1,-2,2,0,-2,-1
1570178556630216,1,-2,-3,0,-2,0,-1,-6
1570178556638118,8,2,0,2,-1,-1,-14,14
1570178556638118,-2,-2,0,-2,-1,-1,-1,-7
1570178556644080,-4,-1,-3,0,-3,-2,-3,-11
1570178556644080,-2,1,1,0,-2,-1,3,-4
1570178556653049,-1,-2,-3,-2,-2,0,5,4
1570178556653049,2,1,2,0,-1,-2,-9,-3
1570178556668081,0,0,0,-2,3,-3,-1,-1
1570178556668081,2,2,-1,-1,2,2,1,-5
1570178556670035,-7,-2,-2,-3,0,0,2,-21
1570178556670035,-18,-5,-3,-3,-2,-5,-5,-99
1570178556691214,-1,1,1,1,-2,-1,-6,-8
1570178556691214,-7,0,-1,-1,-2,-1,-5,-23
1570178556692154,-1,-1,0,1,-1,-1,2,-2
1570178556692154,-2,-1,2,-2,-3,0,-3,8
1570178556703985,1,0,-2,-2,-2,-3,-3,-8
1570178556703985,8,1,1,0,0,1,3,9
1570178556713584,-2,-1,0,2,-2,-1,2,2
1570178556713584,0,-3,-2,1,1,1,5,14
1570178556728152,1,0,-1,-1,0,-1,-11,4
1570178556728152,1,-2,-4,-1,1,1,4,22
1570178556730147,3,2,0,-1,-1,-1,3,-2
1570178556730147,2,1,1,2,0,-1,0,6
1570178556758103,2,-1,1,2,-1,-3,2,0
1570178556758103,-4,-5,-2,1,-1,-4,-1,-7
1570178556760053,-4,-1,-1,-2,1,0,1,0
1570178556760053,4,0,2,0,-1,-1,-2,13
1570178556764285,-4,-1,-2,-3,-1,1,3,-4
1570178556764285,-6,-1,0,-2,-3,-4,-9,-30
1570178556773205,3,2,-1,2,1,1,5,22
1570178556773205,1,1,-3,1,-1,1,0,14
1570178556787212,0,-4,-2,-3,-2,2,3,-3
1570178556787212,1,0,1,0,-1,1,3,-1
1570178556795956,0,-2,1,0,-1,-4,-4,-8
1570178556795956,-1,-2,-2,-3,0,-2,7,-2
1570178556810831,-13,-5,-4,-4,0,-2,-5,-37
1570178556810831,-1,-2,-3,-4,0,0,-1,2
1570178556811821,-2,-1,1,0,1,0,-2,3
1570178556811821,3,1,-1,0,1,2,-1,14
1570178556832762,-1,-1,-1,2,-1,1,5,1
1570178556832762,-2,1,-1,-2,1,1,0,1
1570178556834757,-4,-2,-1,0,-2,-1,0,-6
1570178556834757,-1,-3,-1,0,-1,-1,0,-11
1570178556847721,4,-1,0,-2,0,-1,2,13
1570178556847721,2,1,0,3,0,-1,-1,9
1570178556849854,2,2,-1,1,-3,-1,1,4
1570178556849854,-2,0,-1,-1,-2,0,-2,-1
1570178556870663,2,0,0,0,1,1,0,6
1570178556870663,2,2,2,-1,0,2,5,25
1570178556872658,-1,-1,-2,-1,0,0,0,-2
1570178556872658,1,0,0,0,-1,-2,-2,6
1570178556893598,2,2,0,0,0,-1,-2,-1
1570178556893598,-4,1,-1,-1,-2,-4,0,-9
1570178556894597,-1,2,-1,1,0,-3,-7,7
1570178556894597,-1,0,-1,-1,1,0,-2,2
1570178556907718,4,3,1,1,1,-1,-10,13
1570178556907718,2,-1,0,0,-2,0,0,3
1570178556914543,2,-2,1,-1,0,0,-2,-4
1570178556914543,0,-2,-2,-2,-1,1,0,2
1570178556930500,-1,0,-2,-4,-2,1,5,-3
1570178556930500,-1,-1,-2,-2,-1,0,-1,-6
1570178556932602,0,1,-3,0,1,2,-1,-5
1570178556932602,4,2,0,-1,0,1,3,8
1570178556953441,-2,-1,-2,0,0,1,4,1
1570178556953441,0,1,-1,-1,-1,-2,-3,1
1570178556954437,-3,-1,1,-2,-1,-1,-1,-6
1570178556954437,-1,-1,1,4,-1,-1,-7,3
1570178556968398,-2,-1,-1,-1,-2,-1,0,0
1570178556968398,3,-3,0,2,-1,-2,0,0
1570178556969396,2,-1,-2,-2,0,1,-1,-1
1570178556969396,-4,1,0,0,-1,-2,-5,-7
1570178556990343,0,0,-1,-1,-1,1,-1,2
1570178556990343,-2,-1,0,-2,1,-1,1,-2
1570178556992807,-5,-1,-3,-4,-2,1,14,-6
1570178556992807,-1,0,-2,-2,1,0,-3,2
1570178557013278,-2,0,-2,0,0,-1,2,-4
1570178557013278,-1,-1,0,0,0,-3,-2,-2
1570178557014953,-2,1,-1,-1,-1,-1,0,-4
1570178557014953,-3,-2,-1,-1,1,1,0,-4
1570178557043201,0,-1,0,-2,-1,-1,0,9
1570178557043201,-2,-1,0,-2,-1,-1,-2,-14
1570178557045192,3,-1,0,0,-3,-1,-2,10
1570178557045192,1,0,0,0,-3,0,1,2
1570178557050432,0,0,0,0,1,1,1,2
1570178557050432,1,0,1,-1,2,-2,-3,-5
1570178557052210,2,0,0,-1,1,-2,-3,-5
1570178557052210,-6,0,-2,-3,0,2,4,-9
1570178557073358,4,-2,-2,1,-1,1,1,9
1570178557073358,0,0,0,0,0,-1,-4,-7
1570178557075113,0,-1,2,2,-1,-2,-2,12
1570178557075113,-2,0,0,-2,-2,2,3,5
1570178557087182,-1,0,-1,-1,-1,-2,-3,-8
1570178557087182,0,0,-1,-1,-1,1,0,3
1570178557095061,0,1,-2,-1,0,-1,-4,-5
1570178557095061,0,0,-1,0,1,-3,-2,-4
1570178557111027,-1,-1,1,0,0,0,2,-2
1570178557111027,2,-1,0,1,0,0,2,7
1570178557112019,1,-1,0,-2,-1,-2,-1,-2
1570178557112019,-2,-2,-2,-1,-2,-1,0,-6
1570178557132958,1,2,0,-1,0,1,0,-3
1570178557132958,-1,0,-2,0,-2,1,1,8
1570178557135489,0,-1,-2,1,1,-1,-1,3
1570178557135489,0,-3,-2,0,-2,-1,-3,-6
1570178557147528,-4,-4,1,1,-4,-2,0,-7
1570178557147528,21,7,6,4,2,0,-21,63
1570178557154446,-4,-4,-2,-1,0,-1,-4,-8
1570178557154446,2,-1,0,-2,0,-2,0,7
1570178557170489,-3,1,-3,0,1,0,3,-5
1570178557170489,4,2,2,0,1,2,9,41
1570178557172399,9,1,-1,1,0,1,-11,16
1570178557172399,5,1,1,1,2,0,0,9
1570178557192485,-2,-1,0,-3,0,-2,-3,-17
1570178557192485,-7,-2,-5,-2,0,-1,4,-26
1570178557209301,-7,0,-2,-2,-2,0,3,-9
1570178557209301,-3,-1,-1,-1,-2,0,1,-1
1570178557210298,-3,-2,-2,-1,-4,-3,-8,-11
1570178557210298,-4,-4,-1,-1,-1,1,3,-15
1570178557214286,-2,-2,-1,0,1,1,4,13
1570178557214286,-25,-7,-5,-5,-5,-1,9,-72
1570178557231246,6,-3,-3,-2,-2,0,-6,36
1570178557231246,-9,-2,0,-1,-2,-3,0,-26
1570178557233236,7,0,0,-1,0,-1,-1,13
1570178557233236,-2,1,2,1,0,1,-3,-6
1570178557253190,4,1,2,2,3,4,7,-3
1570178557253190,-13,-5,-5,-3,-1,-3,-11,-37
1570178557255177,-2,-3,-2,0,-1,-1,6,-7
1570178557255177,-1,1,0,0,1,-1,-2,12
1570178557267145,6,1,-1,-1,-1,-1,2,12
1570178557267145,3,-2,-1,-3,-1,0,1,8
1570178557274209,-5,-3,-1,-1,-4,1,0,-14
1570178557274209,4,2,0,0,1,-2,-1,4
1570178557291081,1,-1,2,2,0,5,23,49
1570178557291081,1,0,0,2,-1,-1,1,2
1570178557292078,-3,-1,-3,-2,0,-1,0,-3
1570178557292078,4,0,-1,0,-2,-3,0,6
1570178557313068,-7,-1,-1,0,-1,-3,1,-21
1570178557313068,-3,-1,0,-3,1,0,5,-7
1570178557315018,2,0,2,0,-1,-1,-1,12
1570178557315018,2,0,0,-2,0,1,-1,16
1570178557326996,6,5,3,3,4,-1,-14,29
1570178557326996,1,-2,-2,0,-2,2,1,9
1570178557335962,-4,0,0,0,1,-2,-8,-18
1570178557335962,13,1,-2,0,-2,-1,-2,22
1570178557350922,-6,-4,-2,-3,-3,-3,-2,-18
1570178557350922,2,0,1,0,-3,-2,-7,0
1570178557352317,-1,0,1,0,-1,0,-1,4
1570178557352317,-3,-2,0,0,2,1,-2,-1
1570178557372868,-2,1,1,0,1,1,-3,-11
1570178557372868,2,1,-1,1,0,0,6,6
1570178557374858,4,1,0,-2,-2,-3,-7,-1
1570178557374858,1,0,-1,0,-1,-1,-6,4
1570178557386829,-4,-1,-3,-4,-2,-2,-3,-21
1570178557386829,-8,-3,-3,-2,0,-3,-4,-21
1570178557395803,-2,1,0,-2,0,1,3,3
1570178557395803,0,-2,-1,-1,-2,1,3,10
1570178557410897,-3,-3,-2,0,-1,0,-4,-4
1570178557410897,-3,1,-1,-1,-2,-2,4,-3
1570178557412768,2,0,-1,-1,-1,-2,-1,0
1570178557412768,3,4,0,-2,0,-2,3,8
1570178557433698,-15,-6,-3,-2,-1,1,16,-45
1570178557433698,1,2,1,3,0,-1,-2,3
1570178557434699,-2,-1,0,1,-1,0,-1,-1
1570178557434699,-1,0,-1,1,0,0,-7,1
1570178557446667,1,0,0,0,-3,-2,-5,-1
1570178557446667,2,0,-1,-1,0,0,4,7
1570178557455646,-8,0,-1,-1,1,-1,3,-17
1570178557455646,6,-2,-1,-1,-1,-2,-1,0
1570178557470604,2,1,1,-3,0,0,-4,9
1570178557470604,0,-1,-3,-2,0,1,-1,2
1570178557472595,-4,-1,0,0,-2,1,3,-8
1570178557472595,-5,-4,0,1,0,-1,-1,-1
1570178557493541,3,2,0,1,3,-2,-3,2
1570178557493541,3,2,-1,0,4,2,-5,15
1570178557494539,-2,-2,-1,-2,2,-3,-1,-2
1570178557494539,0,-2,-2,0,-1,-2,-3,0
1570178557506504,3,-2,-3,-1,-2,0,-1,13
1570178557506504,0,0,3,-1,-2,-2,-4,-4
1570178557515485,5,1,0,-2,-1,1,-2,-3
1570178557515485,-5,0,0,1,-3,-2,11,-5
1570178557530442,-1,-1,-1,2,-3,-2,-6,1
1570178557530442,0,-3,-3,-1,-8,-1,0,-4
1570178557537423,5,0,0,1,-5,0,-3,17
1570178557537423,-9,-3,-4,-3,-5,-2,9,-9
1570178557553385,-4,0,0,2,-1,-3,-7,0
1570178557553385,-3,-2,-2,1,2,0,4,0
1570178557554378,-1,-2,-2,-2,2,-2,-4,8
1570178557554378,1,0,0,-2,1,1,-3,9
1570178557567343,-1,-3,0,-1,0,0,2,-4
1570178557567343,1,-2,1,0,-1,-1,-3,-5
1570178557575324,-3,0,0,0,0,-2,3,-5
1570178557575324,0,-1,0,-1,2,1,-5,-9
1570178557591283,4,1,-1,-2,0,-2,-2,0
1570178557591283,-7,-2,0,-1,-2,-1,-5,-34
1570178557597263,-4,1,2,0,0,-4,-4,1
1570178557597263,-2,0,-2,0,2,-2,-2,4
1570178557613223,0,0,-1,-2,0,0,-1,1
1570178557613223,-3,1,1,0,-4,0,1,-9
1570178557615215,3,2,-3,-1,0,7,-2,13
1570178557615215,4,1,1,2,-7,-23,-10,6
1570178557627190,-6,-2,-2,1,1,3,8,-1
1570178557627190,2,-3,0,-2,6,-4,-4,-13
1570178557636159,-18,-8,-7,-9,-9,8,4,-53
1570178557636159,4,1,2,-1,0,-9,1,5
1570178557651161,5,1,0,0,-2,-4,2,7
1570178557651161,-1,-1,-2,0,-4,-6,0,12
1570178557652301,2,-1,-4,2,2,4,-1,11
1570178557652301,-3,-2,-4,0,0,10,3,-3
1570178557673582,0,-1,-4,-5,-3,1,3,-8
1570178557673582,1,0,-3,-2,2,4,2,7
1570178557675058,-3,0,1,3,0,-5,5,-8
1570178557675058,-4,-2,0,0,0,2,-2,-11
1570178557687022,4,0,-4,-1,0,-1,-8,3
1570178557687022,-11,-2,-4,-3,-4,-6,-1,-36
1570178557695998,3,0,-3,0,0,3,5,13
1570178557695998,-1,0,0,-2,-4,1,-7,1
1570178557709961,-1,-2,2,1,-1,0,-2,2
1570178557709961,-4,-3,-5,-3,-2,-4,3,-1
1570178557716943,7,2,2,2,2,0,-11,19
1570178557716943,0,-1,0,1,8,6,5,-4
1570178557732923,-1,1,5,-2,7,-3,-5,2
1570178557732923,2,3,9,3,3,2,-1,26
1570178557734895,2,0,3,-2,1,-5,3,0
1570178557734895,-13,-5,0,-3,-3,7,0,-3
1570178557746981,-3,0,3,1,-2,1,-3,-7
1570178557746981,2,-1,0,-1,-5,-4,-4,3
1570178557755924,2,0,1,-2,-2,-3,-4,2
1570178557755924,-3,-1,0,-2,-4,-5,0,-8
1570178557769801,-11,0,10,0,-1,6,-6,-40
1570178557769801,0,1,-1,2,1,2,-1,21
1570178557776947,-3,-3,-4,2,0,5,2,-5
1570178557776947,9,0,-12,0,2,1,1,22
1570178557792739,2,0,-11,-1,-3,-3,4,8
1570178557792739,6,1,-5,-1,-3,-1,1,4
1570178557795241,1,-1,-4,1,-2,-4,4,11
1570178557795241,-1,0,0,2,0,7,-1,-11
1570178557815686,0,-1,-2,2,-1,1,4,4
1570178557815686,-3,-2,-1,1,0,3,3,-16
1570178557817734,13,4,2,4,4,-6,-14,48
1570178557817734,-4,-2,2,1,2,6,12,20
1570178557829646,0,0,1,1,-1,-3,1,3
1570178557829646,2,1,-2,-2,-1,3,3,24
1570178557836798,-6,-3,-1,-1,-3,-2,11,-17
1570178557836798,2,2,2,-2,2,1,-5,-3
1570178557853581,-1,-1,-2,-2,-6,-8,-10,2
1570178557853581,-3,-2,-4,-3,-1,-1,0,-16
1570178557854574,-5,0,0,-2,-1,2,11,-20
1570178557854574,-6,-3,-1,-3,-3,-12,-5,-41
1570178557875520,-3,0,-1,0,1,-5,2,-1
1570178557875520,1,0,1,0,-2,3,1,-1
1570178557877515,-1,-1,0,-1,-1,-3,-5,-6
1570178557877515,2,0,-1,-2,-3,3,-2,4
1570178557890485,0,1,0,-1,-2,1,0,10
1570178557890485,2,2,0,1,-1,-2,-5,7
1570178557904447,-2,1,-1,0,1,1,-6,-6
1570178557904447,-6,-1,0,0,-1,-6,-10,-56
1570178557913499,-1,-4,-1,-1,-2,1,14,-10
1570178557913499,2,0,2,1,1,5,1,13
1570178557914417,-3,-2,-3,-2,-2,-2,-1,-11
1570178557914417,2,1,0,-2,-1,0,-4,2
1570178557935359,-4,-2,3,-1,-1,-2,-2,-20
1570178557935359,4,1,4,0,-1,-1,3,16
1570178557937450,-2,-2,2,-2,-2,-2,0,-7
1570178557937450,17,3,4,2,1,1,0,96
1570178557950319,-2,-3,-3,-3,0,4,-2,8
1570178557950319,-3,-3,-1,-3,0,-2,0,-2
1570178557957301,-3,1,-1,1,-2,-2,-3,-16
1570178557957301,0,0,-3,2,-2,2,4,-1
1570178557973258,5,0,-3,1,-1,1,4,8
1570178557973258,-1,-1,-2,-2,-2,-1,-4,-3
1570178557975253,1,-2,0,0,-2,-6,1,7
1570178557975253,-6,-2,-2,-1,-1,3,14,-16
1570178557996198,4,1,2,2,4,6,2,23
1570178557996198,-4,-3,-2,-3,-6,-5,6,-12
1570178557997194,-2,0,1,0,0,1,0,1
1570178557997194,6,1,-2,1,0,1,3,56
1570178558011158,-3,0,-2,0,0,-1,-4,-6
1570178558011158,1,1,2,1,2,5,1,8
1570178558017265,2,-2,-2,0,-3,-1,-2,15
1570178558017265,-3,0,-2,-3,-1,-3,-4,-23
1570178558033200,-5,-2,-2,-3,-2,-3,-7,-9
1570178558033200,-6,-2,-3,-2,-1,1,-2,-39
1570178558035092,-4,-1,-1,-1,0,0,-1,-1
1570178558035092,-2,0,1,-1,1,-2,-6,-15
1570178558056035,1,-1,-3,-1,-2,-2,-3,-5
1570178558056035,1,0,0,-1,1,-3,-9,-6
1570178558057032,2,0,0,-2,-1,2,-3,-3
1570178558057032,-1,-2,-1,0,1,15,-1,-12
1570178558070345,3,1,2,-1,-2,-7,3,6
1570178558070345,1,0,1,-1,0,2,5,2
1570178558076978,-2,-2,0,1,0,-5,-5,9
1570178558076978,-1,-2,1,1,2,5,-1,10
1570178558092942,2,-1,-4,-2,-1,0,3,9
1570178558092942,-16,-5,-3,-1,-3,-4,7,-41
1570178558094933,1,-1,-1,-2,-1,3,5,4
1570178558094933,-1,2,0,1,-3,-14,0,-1
1570178558115935,2,1,-1,1,4,10,0,15
1570178558115935,-2,0,-1,-3,-2,-1,-2,-2
1570178558117772,-3,0,-1,-3,-1,-2,-1,-14
1570178558117772,-5,-2,-1,-4,-3,-6,-8,-25
1570178558129844,2,0,1,-2,2,-2,1,-7
1570178558129844,3,2,0,1,3,1,-3,23
1570178558144799,0,0,-2,2,2,5,1,15
1570178558144799,2,0,-1,0,-1,-2,-3,4
1570178558152780,4,1,-1,-1,-4,-7,-30,11
1570178558152780,5,-2,-2,-2,0,10,1,21
1570178558154772,18,6,4,3,0,-5,-7,71
1570178558154772,6,-2,0,2,1,0,-10,39
1570178558175714,0,-2,-2,-2,-2,-5,0,-12
1570178558175714,7,2,2,1,3,2,-1,11
1570178558181700,0,-2,-2,-3,1,-1,-3,-11
1570178558181700,-1,0,1,-2,-3,-2,4,-20
1570178558189778,0,-1,0,2,0,5,6,-1
1570178558189778,0,0,0,0,1,-1,-2,19
1570178558196661,-9,-1,-3,-11,4,1,4,-31
1570178558196661,-5,-1,-1,0,-6,-2,1,-15
1570178558213617,-2,-1,0,2,-2,2,3,5
1570178558213617,-1,1,-1,-2,-2,-4,-2,-3
1570178558214612,-3,-2,0,-4,-6,-3,-1,-4
1570178558214612,0,2,0,-2,-14,-2,0,16
1570178558235563,-4,-1,-2,1,-12,-4,1,4
1570178558235563,2,0,-1,6,-4,-1,0,4
1570178558237551,-4,0,-1,8,7,4,0,-13
1570178558237551,-2,-2,-2,3,9,0,8,-7
1570178558250515,-3,1,0,4,5,0,3,-7
1570178558250515,-2,0,-2,0,6,-2,-1,-2
1570178558256504,-19,-8,-5,-6,-4,-1,23,-64
1570178558256504,14,5,5,3,6,-3,-15,54
1570178558273456,-5,-1,0,-5,0,-4,1,-2
1570178558273456,1,-2,-1,-4,-1,-1,1,8
1570178558275451,-1,-2,-2,-1,-5,-3,-4,-2
1570178558275451,-2,-4,-2,-4,-1,-1,3,-4
1570178558295395,-1,0,-1,-1,2,3,2,-2
1570178558295395,5,0,0,0,-2,-1,-4,11
1570178558297390,9,2,-1,3,-2,3,7,27
1570178558297390,-7,0,-1,-1,3,-2,-2,-23
1570178558309545,1,0,1,-1,3,0,-4,3
1570178558309545,-3,-2,-2,-2,-4,0,2,-16
1570178558318337,3,1,2,-1,-3,2,-7,3
1570178558318337,-1,0,-1,-2,-1,1,1,-1
1570178558333298,-7,-2,-3,-2,-1,5,-3,-29
1570178558333298,-4,-2,-1,-1,-7,-17,-3,-5
1570178558334292,0,0,0,-1,0,-5,-7,0
1570178558334292,5,1,0,0,0,0,1,-1
1570178558355239,0,-1,-1,-3,1,2,3,-3
1570178558355239,-1,-1,-1,-2,-1,6,17,-5
1570178558357231,-2,1,1,1,-3,-6,-14,-50
1570178558357231,-1,-1,0,-1,-1,-2,2,-6
1570178558369200,-6,-3,-2,-2,-5,-5,5,-31
1570178558369200,-3,-1,-1,0,0,1,0,3
1570178558378180,-9,-3,-3,-3,-4,-4,9,-28
1570178558378180,-3,-2,-1,-1,2,4,0,-7
1570178558393140,1,-1,0,0,0,-2,-6,4
1570178558393140,0,-2,0,1,0,1,-7,-2
1570178558395129,2,-2,-1,-1,2,2,-3,13
1570178558395129,-1,-1,-1,-2,0,-3,-4,-4
1570178558416082,2,1,-1,-1,1,-2,3,26
1570178558416082,-1,1,-1,1,1,0,-2,-7
1570178558417071,5,1,2,2,1,0,-1,19
1570178558417071,-2,-1,1,0,-1,-1,6,-8
1570178558429045,1,-1,0,-1,-2,-3,0,8
1570178558429045,0,-2,-1,-1,-3,0,-6,-5
1570178558438667,4,-1,-2,0,0,2,3,14
1570178558438667,2,-1,-1,-1,1,-1,-12,8
1570178558452139,3,2,1,0,2,6,16,16
1570178558452139,5,2,2,3,0,-2,-17,-1
1570178558460954,15,5,2,4,2,4,7,67
1570178558460954,-3,-3,-2,0,-1,0,5,-7
1570178558475950,-5,-3,-3,-2,-2,-1,-1,-9
1570178558475950,-2,-2,-3,-1,1,-1,3,-3
1570178558477519,-4,-1,-1,0,-1,-1,-5,-9
1570178558477519,-1,-3,-2,-2,1,-1,3,9
1570178558489880,5,2,2,0,0,-3,-6,1
1570178558489880,5,3,2,1,0,0,-3,23
1570178558498853,-1,2,2,-1,0,0,-9,-8
1570178558498853,-1,-1,-3,-2,-1,3,5,4
1570178558512814,-4,-1,0,-1,-4,-15,-7,3
1570178558512814,-6,-2,-1,-2,-1,-3,12,-27
1570178558514811,5,0,0,1,-1,5,-5,24
1570178558514811,-2,1,2,0,-1,-4,-3,-9
1570178558535757,0,0,-2,-1,0,3,0,4
1570178558535757,-7,-4,-1,0,0,-4,-5,-9
1570178558537748,-11,-5,-6,-4,-2,-5,8,-24
1570178558537748,7,1,-1,1,-3,1,-7,27
1570178558549722,-1,0,-2,-1,-2,3,0,-3
1570178558549722,-8,-4,-2,-4,-4,1,15,-9
1570178558558692,12,2,2,1,0,3,2,60
1570178558558692,-4,0,0,0,-3,0,-4,-29
1570178558572660,-3,-1,-1,-3,0,0,0,-22
1570178558572660,-1,2,-1,-2,1,1,4,4
1570178558573654,-7,-4,-2,-1,-1,-1,4,-21
1570178558573654,-3,-3,-2,-2,-1,-3,-2,-16
1570178558594998,3,-2,0,2,-1,-1,-2,8
1570178558594998,4,1,1,1,-1,-2,-9,1
1570178558595593,-4,-3,-2,-1,-1,-2,-1,-18
1570178558595593,-3,0,0,1,-1,-1,-4,-7
1570178558617536,-3,0,-2,-2,-1,1,-1,-5
1570178558617536,1,0,-1,0,0,2,-2,10
1570178558618534,2,4,2,-1,0,-1,-5,40
1570178558618534,2,-2,-2,-2,0,-1,-3,13
1570178558632499,1,1,2,-1,1,1,-2,8
1570178558632499,2,-2,-1,0,-1,2,-2,1
1570178558633492,-9,-4,-3,-2,-5,-5,-4,-52
1570178558633492,-1,0,0,-1,0,2,11,13
1570178558655449,2,-1,-1,-2,2,0,-2,13
1570178558655449,-3,1,-2,-3,0,0,-3,-7
1570178558656192,-6,-1,-1,-2,-1,-4,-7,-30
1570178558656192,4,1,1,-2,1,6,5,6
1570178558677621,-2,-1,-1,0,-2,-1,-5,-34
1570178558677621,3,1,2,2,-1,-5,-9,19
1570178558678372,-1,0,1,2,2,1,0,0
1570178558678372,-4,-1,-1,1,-1,-3,-1,-10
1570178558692336,0,0,-1,0,-2,-2,1,8
1570178558692336,-3,-2,-2,-2,-1,5,3,-4
1570178558693333,-2,0,1,-1,-1,0,-1,2
1570178558693333,-2,0,-1,-1,-2,-4,-3,-4
1570178558715273,-2,-1,0,0,0,0,0,-1
1570178558715273,-1,0,0,-1,2,-1,4,1
1570178558715273,0,-1,0,1,1,-2,-2,6
1570178558715273,-2,-1,-1,-2,-1,-3,1,0
1570178558737220,2,0,0,1,0,1,0,9
1570178558737220,-1,0,-1,-1,-2,0,-4,-5
1570178558738219,-5,-1,-2,-2,-2,-2,-8,-34
1570178558738219,-7,-3,-4,0,-3,1,15,-39
1570178558752179,4,1,0,0,-1,-1,-6,24
1570178558752179,-3,-2,-1,0,-1,-2,1,1
1570178558753441,2,-1,0,-2,-3,-2,4,-1
1570178558753441,-2,-1,0,-1,-1,-3,-2,-12
1570178558775113,0,0,-1,-2,1,1,2,1
1570178558775113,2,-2,-1,-1,0,-1,0,3
1570178558776115,2,0,0,1,0,1,0,8
1570178558776115,-16,-6,-7,-5,-4,-1,9,-30
1570178558797058,-3,-1,1,2,-1,-1,-7,0
1570178558797058,1,-1,0,-2,0,-1,-5,-5
1570178558798275,-2,-2,-1,-1,2,0,3,-3
1570178558798275,0,-2,-1,0,2,3,9,-6
1570178558813012,3,0,-2,-1,0,-5,-9,-1
1570178558813012,0,-1,-1,0,-2,-1,1,-6
1570178558813558,-5,-3,-3,-3,-1,1,3,-4
1570178558813558,2,2,0,1,0,0,-4,20
1570178558834954,-3,-1,-1,-1,-2,2,5,-4
1570178558834954,0,1,1,1,0,3,1,6
1570178558835950,1,0,0,-1,0,0,0,10
1570178558835950,6,2,4,0,-1,-1,-7,17
1570178558857891,0,-1,-2,0,2,1,1,2
1570178558857891,0,-1,-3,-1,-1,-1,-1,-4
1570178558857891,2,-1,0,1,-1,-2,-6,8
1570178558857891,-7,-3,-1,-4,-3,-5,-13,-36
1570178558872853,6,2,1,1,1,0,4,27
1570178558872853,6,2,1,0,-1,-1,7,26
1570178558873305,2,0,-2,0,1,1,-2,9
1570178558873305,3,0,1,2,0,-4,-7,8
1570178558894792,-1,-1,-2,-3,-1,6,1,-5
1570178558894792,-1,0,-2,-1,0,-1,1,-1
1570178558895861,-1,0,-3,-2,-3,-2,-1,1
1570178558895861,-2,-1,-2,-2,-1,0,7,-8
1570178558917731,-16,-7,-4,-5,-2,-1,21,-48
1570178558917731,-4,-2,-2,-2,1,10,3,5
1570178558918729,0,-1,1,-1,-1,-2,0,2
1570178558918729,2,0,-1,0,0,0,-7,13
1570178558932694,-1,-1,-1,0,-2,-5,5,-5
1570178558932694,-2,0,-1,0,0,2,-2,-3
1570178558933688,2,0,0,0,0,2,4,1
1570178558933688,3,2,1,-1,1,1,3,7
1570178558954641,3,4,0,0,1,2,-4,5
1570178558954641,3,2,-1,1,-2,-6,-9,7
1570178558955630,3,-1,0,-1,-2,2,-1,3
1570178558955630,3,0,-2,0,0,1,0,19
1570178558977572,-1,-1,-1,-1,0,-1,-2,4
1570178558977572,-2,-1,1,1,-1,-4,-4,-7
1570178558978569,0,2,0,-1,2,-2,1,-4
1570178558978569,4,0,0,0,1,1,-1,17
1570178558993629,2,0,1,1,2,-3,-3,6
1570178558993629,1,-1,-2,-2,-2,-1,2,-2
1570178558993629,1,0,1,1,1,0,-16,16
1570178558993629,-2,0,0,-2,-2,1,-3,3
1570178559015470,4,0,-1,0,-1,1,2,16
1570178559015470,5,3,2,0,2,-4,-18,5
1570178559016468,-2,-2,-2,-3,-1,-1,2,-10
1570178559016468,7,1,1,2,1,-3,-13,24
1570178559037411,1,0,-2,-2,-1,-1,-8,7
1570178559037411,3,-2,1,1,0,-1,-1,9
1570178559038413,0,-1,-1,0,-2,2,2,0
1570178559038413,-2,-2,-2,-1,-1,2,4,-1
1570178559052371,4,2,2,0,1,2,6,32
1570178559052371,-2,-3,-1,-2,1,3,7,11
1570178559053378,-1,-1,-2,-2,1,-1,1,-7
1570178559053378,2,-1,0,-1,-2,-1,2,5
1570178559074635,-5,-4,-2,0,-3,-3,-3,-30
1570178559074635,-3,-1,-2,-1,0,-3,-5,-5
1570178559083000,-1,0,0,2,0,-1,4,8
1570178559083000,-3,-1,-1,1,0,-2,-3,-10
1570178559097398,-6,1,2,2,-4,-2,-4,-15
1570178559097398,-1,2,0,1,0,2,6,2
1570178559098516,-4,-2,-2,-1,-3,1,3,-12
1570178559098516,-11,-3,-3,-4,-3,-2,6,-65
1570178559112219,9,1,1,1,1,1,-12,34
1570178559112219,1,-1,0,-2,-2,-3,1,-7
1570178559113211,2,-2,-1,-1,1,-2,-1,-2
1570178559113211,-3,-1,-1,-2,2,0,1,-7
1570178559135155,-1,-2,-2,-1,-1,-2,-1,-2
1570178559135155,-3,-1,-2,-4,0,0,3,-11
1570178559136148,0,0,0,-1,-2,-1,-2,2
1570178559136148,2,3,0,2,-1,2,0,14
1570178559157094,-2,-2,-1,-2,0,1,1,-13
1570178559157094,1,1,-3,-1,-3,-1,-3,7
1570178559158091,-4,0,-1,-1,1,0,0,-10
1570178559158091,2,0,0,0,1,0,0,21
1570178559172056,-4,-1,0,-1,0,-3,-4,-14
1570178559172056,-6,-2,-1,-1,0,-1,10,-22
1570178559173158,7,2,-2,-1,-1,-2,-6,17
1570178559173158,3,0,0,1,0,0,0,9
1570178559194991,-4,0,-2,-1,-1,0,1,-4
1570178559194991,0,0,0,-1,-2,-1,1,-5
1570178559195986,-5,-2,0,0,-1,0,3,-11
1570178559195986,7,0,0,0,0,0,-1,25
1570178559217930,-4,0,-2,1,1,0,-3,0
1570178559217930,-2,-3,-2,1,1,0,-1,1
1570178559217930,-1,-1,0,0,1,-2,-2,-6
1570178559217930,-4,-2,0,-3,-1,-1,-2,-18
1570178559232889,1,-2,-1,-2,-1,0,0,-1
1570178559232889,1,0,2,0,-3,-1,-2,3
1570178559232889,-2,0,-1,-1,-1,1,1,1
1570178559232889,-1,1,0,0,-1,0,1,-4
1570178559254834,0,0,-1,0,-1,-1,1,6
1570178559254834,-1,-3,-1,-1,0,-1,0,-3
1570178559255913,0,-1,-1,-2,0,-3,0,0
1570178559255913,-1,0,-2,-1,-1,-1,-2,3
1570178559277773,3,0,-1,-1,-1,1,4,1
1570178559277773,1,0,2,1,0,0,0,2
1570178559277773,8,2,2,1,1,-1,-20,26
1570178559277773,-5,-3,-3,-1,-2,-2,0,-11
1570178559293726,1,0,0,-2,2,-2,0,6
1570178559293726,-4,0,-1,0,0,-2,-2,-6
1570178559294724,-3,0,0,-1,-1,0,4,-7
1570178559294724,-1,1,1,-1,0,2,-2,1
1570178559314671,1,0,-2,-1,-2,0,-2,7
1570178559314671,-1,-3,-1,-1,-4,1,0,0
1570178559315668,-2,-2,-2,-1,-1,1,6,-5
1570178559315668,0,0,-1,-1,2,-3,-2,4
1570178559337613,-2,-1,-2,0,-1,-1,4,-7
1570178559337613,-3,-2,-1,-1,-1,-1,-3,0
1570178559338606,-4,-1,0,0,-1,0,2,-4
1570178559338606,0,0,2,-1,1,-1,0,5
1570178559351574,0,-1,-1,1,0,0,2,5
1570178559351574,2,0,-2,1,0,0,-7,-1
1570178559359560,-2,-1,-2,0,-2,1,-1,-3
1570178559359560,0,0,0,0,-2,1,-1,1
1570178559375509,-2,-1,-1,-3,-3,-1,0,3
1570178559375509,4,1,-3,-2,0,-1,-1,5
1570178559375509,-5,-4,1,-1,-3,1,5,-11
1570178559375509,0,-2,-1,-2,0,0,-3,3
1570178559397448,0,-2,0,-2,-1,-2,0,-6
1570178559397448,0,0,-2,-2,-3,0,1,5
1570178559398445,0,0,0,0,1,-3,-5,6
1570178559398445,-2,0,-1,2,0,0,2,2
1570178559411412,-5,0,0,-1,2,2,-2,-3
1570178559411412,-3,0,1,-2,0,-1,-3,-1
1570178559420387,1,-1,-3,-1,0,-1,3,0
1570178559420387,-1,-2,-3,0,1,0,2,-1
1570178559435349,1,-3,-1,1,-2,-1,-1,-3
1570178559435349,-2,-1,-2,-1,0,0,3,-3
1570178559436346,-1,-1,-1,1,-1,-4,-1,-3
1570178559436346,1,1,-3,-1,-1,-2,0,-1
1570178559465546,1,0,-1,0,0,0,-1,-3
1570178559465546,0,-1,0,-3,-1,1,0,-3
1570178559466265,0,-1,0,-1,-1,-1,0,0
1570178559466265,-1,-1,-2,0,-4,-1,-3,2
1570178559472250,-4,-1,1,0,1,-1,-3,2
1570178559472250,-2,-1,-1,1,-1,0,-2,-6
1570178559480232,-1,-1,-2,-2,0,0,-1,-15
1570178559480232,3,-1,2,0,0,2,2,9
1570178559495190,-5,-2,-2,-2,0,-1,1,-5
1570178559495190,-2,-1,-1,0,0,-1,-4,2
1570178559496186,-2,0,2,1,0,0,-1,4
1570178559496186,-3,0,-1,0,-1,-1,0,-2
1570178559518127,2,0,0,1,-2,-3,-6,-1
1570178559518127,-1,1,2,-1,-1,-1,1,-2
1570178559519124,0,0,-3,-2,-1,-1,-1,-2
1570178559519124,-3,-1,-3,-3,-2,-2,-5,-5
1570178559532091,-1,-1,-2,-1,-1,0,6,0
1570178559532091,1,-2,-1,-1,0,-2,0,2
1570178559540073,-1,0,0,1,0,0,0,5
1570178559540073,-1,-2,1,0,-1,-1,1,1
1570178559555028,-1,0,-1,-2,0,-2,-3,-3
1570178559555028,0,-2,-2,0,-1,0,3,3
1570178559556026,-1,-1,0,1,-1,0,-2,2
1570178559556026,0,0,1,0,-1,-2,0,-1
1570178559577969,1,0,-1,0,0,0,-1,0
1570178559577969,-1,0,-2,0,0,1,0,-2
1570178559577969,-1,0,1,-1,-2,-1,1,-5
1570178559577969,3,1,0,-2,-2,-3,-4,2
1570178559592080,-2,1,1,0,0,1,-1,1
1570178559592080,-2,-1,-1,0,-1,-3,-2,0
1570178559599907,2,0,-1,-3,0,0,3,11
1570178559599907,-2,0,1,1,1,0,-2,-4
1570178559614869,-1,0,0,1,-2,-1,-5,-7
1570178559614869,12,3,1,2,2,1,-9,35
1570178559615865,-2,2,-1,0,0,0,1,-1
1570178559615865,1,0,0,-1,0,-2,0,1
1570178559637805,3,-1,-1,-1,-1,-2,-3,7
1570178559637805,-2,-2,1,-1,-2,-1,-1,-11
1570178559637805,0,-1,0,-2,-4,-1,-1,-2
1570178559637805,-3,-3,-3,-1,-3,2,8,-5
1570178559651788,-3,-1,-1,0,0,0,3,-1
1570178559651788,0,-4,-4,0,-2,-1,5,-3
1570178559659750,-1,-1,-3,-2,1,0,1,5
1570178559659750,-5,-1,-1,-2,-1,-2,2,0
1570178559675706,1,0,0,-2,-1,-1,-1,-1
1570178559675706,-3,0,1,0,0,0,0,-9
1570178559675706,1,1,2,1,0,0,0,-3
1570178559675706,0,-1,1,-1,2,1,-2,0
1570178559705734,-1,-2,0,-1,2,0,2,-2
1570178559705734,4,0,2,-1,2,-3,-4,5
1570178559709615,-2,-1,-1,0,-1,-3,-3,-8
1570178559709615,0,2,1,0,-2,-2,-2,-1
1570178559721583,-1,0,1,-1,-1,-2,-2,-4
1570178559721583,-2,0,-1,-2,-3,-3,-15,4
1570178559721583,-3,-2,1,-3,-1,0,0,0
1570178559721583,1,-1,0,1,-2,0,-4,-1
1570178559734547,4,-1,0,0,0,-2,-1,8
1570178559734547,-1,-1,-1,2,0,-1,5,-6
1570178559735544,-1,-1,-4,1,-2,-1,2,0
1570178559735544,-1,1,2,1,0,-1,-1,-3
1570178559757487,-4,-3,-2,-1,-2,0,2,-3
1570178559757487,-4,-2,-1,0,-2,0,6,5
1570178559758483,1,-1,0,-1,-1,-1,-2,-1
1570178559758483,0,-2,-2,-1,-1,0,4,0
1570178559781421,-1,-2,1,-1,2,0,1,-2
1570178559781421,-6,-1,0,-1,-1,-1,-1,-15
1570178559781702,0,-2,-4,-4,0,-1,7,6
1570178559781702,-2,-3,-2,0,0,-1,0,4
