timestamp,emg1,emg2,emg3,emg4,emg5,emg6,emg7,emg8
1570181659596044.0,1.3839009619135585,1.433404632218992,1.619476538101845,1.6248472702015662,1.512930382733942,3.7683434963370788,5.262219112505867,1.8502820389884906
1570181659596044.0,1.3268203331377113,1.0157772637678588,1.58546608391538,1.4368435844847638,1.4518000389505104,1.9686717328343222,2.978074672020296,1.6270242398543842
1570181659596598.0,1.3119505799142765,1.0336175544216395,1.548205633275195,1.4297723292010007,1.4455650040307542,2.058375807485042,3.0515915964871834,1.7169781710559242
1570181659596598.0,1.2994964065077927,0.9712555618864136,1.513000650237067,1.3643717901535748,1.4215998866201558,1.9305202521549625,2.425602462691823,1.7868469051459164
1570181659600185.0,1.2827059782072767,0.9736591768074235,1.4770117092439214,1.352833256633028,1.4138208520804485,2.029217115780677,2.4859909254887116,1.9058160670626225
1570181659600185.0,1.2735397155645847,0.9491779774603308,1.4432802908057107,1.3105893784529403,1.3951914381170825,2.1506162189994122,2.199113894235725,2.0238973755381924
1570181659601122.0,1.258761491032892,0.9449507129302154,1.4114642407840878,1.3023912189997326,1.3863031863875894,2.247741194915139,2.2639778787414397,2.1423649284184716
1570181659601122.0,1.2569553784450032,0.9349514984062745,1.3802026103730685,1.275811482327561,1.373796812887692,2.414947307361798,2.1279209135996937,2.255386754883131
1570181659607192.0,1.2501329576993083,0.9314680995491637,1.3501060144337957,1.2718780194438684,1.3701077239041155,2.5082059540629946,2.198456815893966,2.3716712047945885
1570181659607192.0,1.2563685585058157,0.9315853432098588,1.324181643102756,1.252245442886365,1.361310601117588,2.6591937767186598,2.146427096396953,2.492088636769255
1570181659615140.0,1.256747942322253,0.9317722519364685,1.3025559677493952,1.2492617736864347,1.3552265190906552,2.713599223021645,2.2250670997547766,2.613066617255529
1570181659615140.0,1.2696208148744421,0.9392975142181602,1.2854229081576265,1.236975288789018,1.3461062559380428,2.8282890621602887,2.2221312878618793,2.72418834317413
1570181659621284.0,1.2749144852911138,0.9389966853457512,1.269883848881655,1.2405382204284834,1.342799011596716,2.8815627254316354,2.3015454949854117,2.80858480928625
1570181659621284.0,1.2909602253327035,0.9436709362625391,1.2528620980196434,1.2336730395840725,1.3378096780273225,2.9902833079667506,2.3191917207451973,2.882833860063665
1570181659635963.0,1.2968568593379628,0.9385630950866336,1.2328618362034636,1.234136781005588,1.337071112641684,3.030784497479225,2.3898754023989306,2.950734592247242
1570181659635963.0,1.3089028884432738,0.9404060980620726,1.212378249580937,1.2228951554103273,1.3353388396289698,3.104008589141161,2.3999428305615313,3.0053342321626952
1570181659645912.0,1.3135960578850778,0.9340392092210121,1.1943955089222698,1.2193740476157717,1.3367612043128891,3.1148533294181466,2.4539032932332234,3.046993723057733
1570181659645912.0,1.329376889185527,0.9370617955342827,1.180065561612018,1.2090239572270667,1.3338981615658065,3.1512645824554313,2.4648920532690477,3.081248887690387
1570181659667851.0,1.3392074286183897,0.9319961274657346,1.1674996887566742,1.207463715432261,1.3284233849018374,3.138256826664374,2.498073302386198,3.1138637889584744
1570181659667851.0,1.3603181823456663,0.9343278614222643,1.1556989723878688,1.1965338935322631,1.3176346454649854,3.1665483641344943,2.474400626257659,3.1498710701691097
1570181659668961.0,1.3757580310093653,0.9266739043409141,1.144265360375831,1.1912110975651051,1.3081477422399155,3.1689856922722974,2.4835306588222474,3.188513199488612
1570181659668961.0,1.4009411222201378,0.9269671993173845,1.1332916667352333,1.180644357271717,1.2984935815983518,3.214325607919166,2.464190977260536,3.2248796745056527
1570181659680946.0,1.4176681972836511,0.9176718816622165,1.1224304099383895,1.1757323030089646,1.2942294503196767,3.2297037285010304,2.4838373387085197,3.2553568045734345
1570181659680946.0,1.4406765050106325,0.9204410503308967,1.112578528076451,1.164705380975759,1.292917042851574,3.274241678465312,2.481350055959493,3.28366922567376
1570181659723269.0,1.457904613558436,0.9178135008975319,1.1057495784166642,1.1611920463930452,1.2946105099430067,3.283248251680645,2.511632513087915,3.3181590218142714
1570181659723269.0,1.48589633596221,0.9285837546912675,1.1027554239796098,1.1547982426275425,1.2936004586538463,3.3207754891723282,2.5174960854999897,3.3607110367222055
1570181659723911.0,1.5093914123318546,0.9323410373643298,1.1018116105238422,1.1560487835538669,1.2917508370934145,3.337079212613899,2.5479088479347753,3.4078482014406783
1570181659723911.0,1.538215234083707,0.9472253301801684,1.1011176895749375,1.1547369778286887,1.289647755782001,3.3866573787942427,2.5592104508235862,3.457577440114079
1570181659727739.0,1.5523978325261363,0.9488315868156413,1.0973199817486656,1.158155794015941,1.2926714041494265,3.4039431985201007,2.591376198852995,3.497921633103943
1570181659727739.0,1.5644029019128922,0.954588773022991,1.0894234737630326,1.1560855140552913,1.2966100093773203,3.4170870170554095,2.578292393744053,3.5134821572946455
1570181659728748.0,1.5683013939893817,0.9486412480634768,1.0818452154837066,1.1575934653027207,1.2970178074565741,3.384370008887512,2.5677568893415783,3.521106202105064
1570181659728748.0,1.579054026227889,0.9539852455329779,1.0774697171676912,1.1555949418241849,1.2924900730296924,3.3757058162999503,2.5281887931009535,3.5368265571285473
1570181659733677.0,1.5853092840071574,0.9515450385435318,1.0747284118491154,1.1584071231859916,1.2884955694906026,3.359902771012143,2.5135516440063204,3.560939695952637
1570181659733677.0,1.5986097027584556,0.9590594628169683,1.0717050917496502,1.1567287984006245,1.2846955414123487,3.3679254648117403,2.4802610908077085,3.5947201007660685
1570181659740663.0,1.6062898271964385,0.9568207062945516,1.0670721499565514,1.1556421381468829,1.28256451480771,3.3587804947279403,2.473069405377192,3.637462592272399
1570181659740663.0,1.6187462997571018,0.965058925505678,1.060678096133716,1.1479994345903222,1.2817813106318585,3.3651217056297043,2.45127466170461,3.6816760864866334
1570181659764778.0,1.625911787667996,0.9642930943306505,1.052219934433037,1.141917101725983,1.2847087305811686,3.3488339314508813,2.4535998287726484,3.7224684674595183
1570181659764778.0,1.639596633884424,0.972950633201163,1.042450910435128,1.1308785687116112,1.2904084479387845,3.3526741567319265,2.436707505801304,3.75876061566877
1570181659765589.0,1.6512174765746677,0.9735588887024027,1.0331957555903595,1.123053488162098,1.2990949221583905,3.3461722513909007,2.439960238663233,3.8015011019694493
1570181659765589.0,1.6713384773186946,0.986588802139459,1.0267575168281626,1.1114730592358009,1.306948655710858,3.362742643777895,2.4304182678133306,3.857260756921192
1570181659771573.0,1.6878002323080337,0.9918930312038843,1.023686786808021,1.1037453840818439,1.312826093602042,3.3657814015203313,2.4421297560049875,3.9220221321520725
1570181659771573.0,1.704494144094676,1.0065208006474997,1.0203743631808366,1.0946125356239902,1.314822792962482,3.3783874067602593,2.4370897189848066,3.9656350194330483
1570181659794519.0,1.7104609302252505,1.0122582162375642,1.013199536762802,1.0898824048283324,1.3117844211008263,3.3634292484189037,2.440583910643544,3.9673327477201514
1570181659794519.0,1.7197688138591383,1.0284182921044511,1.0035710199282561,1.0821964143921818,1.302337740647895,3.357068363781822,2.426005865999928,3.948899056357563
1570181659796504.0,1.7236022696958009,1.035184974462394,0.9943715005811148,1.0780764851047118,1.290052941799411,3.340480401623402,2.427338061996219,3.9359880232546725
1570181659796504.0,1.7277391388424546,1.0515586339385654,0.9878937173507462,1.074059808783976,1.2778352437484046,3.344793796759502,2.414033821835789,3.9210954804697296
1570181659808668.0,1.7284258239488977,1.0597520335872574,0.9844446245516488,1.0754485916595675,1.2680016773849423,3.337256268607094,2.417410287823137,3.9070142686479006
1570181659808668.0,1.738137225187278,1.0765588913478477,0.9831357205144081,1.0748630344878911,1.2576950938959721,3.3445718278829943,2.4125970396294742,3.897188996142376
1570181659817734.0,1.746867587806594,1.0846748212988446,0.983966461137011,1.0781491048790015,1.2476975056055108,3.3372628859201483,2.425045115729662,3.894537242756408
1570181659817734.0,1.7595581907760653,1.1019435176420176,0.9859927261598145,1.080967283648473,1.237182880983052,3.3399674080724924,2.426855121717881,3.8897201320237933
1570181659832583.0,1.7667595376496044,1.109364440150882,0.9891162738091634,1.0855882088461646,1.2258345704747708,3.3297158963481626,2.4460717613756717,3.8825520912173275
1570181659832583.0,1.7709342928035894,1.1212868587284373,0.9934154592914574,1.0836765284864882,1.2147379554538953,3.3415561989744083,2.4570176073696026,3.8767550206309505
1570181659834406.0,1.7599579090748558,1.1221333870021912,0.9968566769029295,1.0807059867758948,1.2076749100822184,3.342214051026863,2.4763659290529816,3.875481795367609
1570181659834406.0,1.7455374978492217,1.1300531154622404,0.9993436589190914,1.0751518008761765,1.2053402607075443,3.3467213778578606,2.4828106082229136,3.8739649426011513
1570181659855347.0,1.7256857396495437,1.12901819815892,1.0018523977292837,1.0710457910251237,1.2073022910354494,3.330161484869919,2.4964772019417274,3.8715552223057665
1570181659855347.0,1.7069741051963094,1.1346996024288936,1.0053993602657885,1.0634323665772154,1.210224520305796,3.330929573817644,2.4798389194462898,3.854005060388333
1570181659856357.0,1.6862451626701969,1.1326973284532107,1.0120232126387971,1.0578443383003153,1.212241858756343,3.3255811745751487,2.4630450149655543,3.8277177379790417
1570181659856357.0,1.6738248921009442,1.1360215263048437,1.0207951676718252,1.0499829058906296,1.214139600201309,3.339114616945943,2.433061551124658,3.7980850423555053
1570181659869358.0,1.6620025141233379,1.1283011975010635,1.0277298656368024,1.0433469780014013,1.2170235253193118,3.344495936092109,2.417071654933433,3.770430533079906
1570181659869358.0,1.6552642786168825,1.1260234818843786,1.031814372102701,1.0330222093132164,1.2218820624557516,3.3697405074008864,2.3817895227299886,3.739909158999797
1570181659877510.0,1.649081609246588,1.1203936700032375,1.0360258068424186,1.0250919896312094,1.2296640986058338,3.3888393748201784,2.3539045039867066,3.7040290837826286
1570181659877510.0,1.6515763693827004,1.1258806702478799,1.0423742264613554,1.0168259628745828,1.2403978280368568,3.428813062589743,2.307015160333515,3.655394783240982
1570181659892250.0,1.6544941096399342,1.1263053466384265,1.0479029879333535,1.010989031178852,1.2498687874375631,3.4566837083486432,2.271344466829233,3.606375345131981
1570181659892250.0,1.662819619202485,1.133141275134826,1.0506554782645874,1.0009423205276067,1.2524198247111462,3.4948389319373,2.225985616374652,3.562530210586429
1570181659894296.0,1.6692292218577798,1.1324533574314182,1.0536138310434482,0.9919973343494186,1.24906223183798,3.5165710503502177,2.199544430998951,3.5290245001996126
1570181659894296.0,1.6770774610849706,1.1375465832427991,1.057768203907731,0.981510139114637,1.244970104924477,3.551286497389057,2.1635515217504135,3.503707459531413
1570181659915187.0,1.6773239406417972,1.1342824139403347,1.0601634763186403,0.9732229370204474,1.2429178144777868,3.5757823099110877,2.142329197073101,3.485100271192401
1570181659915187.0,1.677796777028267,1.1353512297324382,1.0578591247700504,0.9646116167335012,1.2440701677285757,3.6123820094296506,2.110636694287452,3.4588873587634876
1570181659916187.0,1.6750113778505407,1.1285075301259186,1.0528217190239968,0.9585119448637017,1.246081069150988,3.614517975176366,2.0883834558196157,3.4266250592178378
1570181659916187.0,1.676653691798851,1.1269870008198024,1.0489978408260525,0.9512207414299209,1.247440179311036,3.601347977717249,2.0495686468603354,3.390741025122913
1570181659928158.0,1.6761179448824668,1.1198399315798124,1.0463912852203057,0.9470929369819973,1.2509267874262913,3.575116608437076,2.0217771040856207,3.358988533639574
1570181659928158.0,1.6772101579191105,1.1212937679907784,1.0450089827363218,0.9432634669926716,1.2587812147016115,3.5735944049603297,1.985496559894449,3.329581148827701
1570181659937129.0,1.6742732942352283,1.11881745852165,1.0448358257078998,0.9419322640932217,1.268423808768007,3.5679196410573284,1.9590643372915721,3.308051649123415
1570181659937129.0,1.674515429607513,1.123651102679645,1.0438999140283045,0.9390363570328919,1.2805119421257056,3.57691602123851,1.9265043841278007,3.2938613705097644
1570181659953123.0,1.6720954723188266,1.1240719258451053,1.043293851800206,0.9381153043586585,1.2953199160735136,3.5803196924961536,1.9090689848722964,3.2838767195419964
1570181659953123.0,1.674244325900659,1.1342081763377942,1.0460036673771826,0.9368073940711661,1.3123429976264422,3.6058343828553445,1.8895884085644277,3.2648215325348837
1570181659954084.0,1.6752048669724577,1.141250343244898,1.0519232979975486,0.9365706743982826,1.3299148188916758,3.6281641444601784,1.8826936929687534,3.2400768852967823
1570181659954084.0,1.680535119125428,1.1566482072284996,1.0590258734942213,0.9348274259323051,1.3477648066315893,3.671102197213766,1.8717020656442707,3.2133661953278847
1570181659974030.0,1.6838148745893564,1.1657907271175856,1.0673758218090965,0.9347257554263874,1.3644059495678773,3.7090852013177753,1.8681890322518353,3.19030806909018
1570181659974030.0,1.6901350109520783,1.1783524713852824,1.0769117295158044,0.9353075871649429,1.3817767389096414,3.763433406534131,1.865551484406582,3.159198902322647
1570181659983007.0,1.6943793326244312,1.1819388943598603,1.0867406532968549,0.937903796197756,1.4010703076920528,3.8095011711161306,1.8744633519563751,3.1134321959531275
1570181659983007.0,1.7030773475999588,1.190897625613094,1.098941395325705,0.9394739089200846,1.422649453456384,3.8748858666411983,1.88553439930155,3.0597095720398655
1570181659988991.0,1.7100108727963304,1.1946382562321418,1.1152319757386717,0.941830963757561,1.4428053033554356,3.935575641915219,1.9047130843528772,3.0114254058505177
1570181659988991.0,1.7207977027665093,1.2038807130600293,1.1323025473675046,0.9431862719959276,1.4605882741399,4.014289180941498,1.9263840519436823,2.965168997245183
1570181659997967.0,1.729123517914406,1.2053473610504388,1.1454641717756269,0.9443733440481793,1.475556917065334,4.081126544952453,1.9508292506979112,2.9237625857978906
1570181659997967.0,1.7428188914628342,1.2119146553273707,1.15418890559918,0.9423887140928001,1.4854022101523698,4.151850362299324,1.977587603706152,2.884190780877102
1570181660013038.0,1.7566443897879291,1.213630443717744,1.160644187595668,0.9405231136997647,1.4862792738123272,4.202961134713681,2.012072537782062,2.8465507533455323
1570181660013038.0,1.775441234075354,1.2203726572328624,1.1657276939665906,0.9403619670408542,1.4820331848771324,4.255109290537744,2.0527922941157253,2.8109757691930297
1570181660013924.0,1.7928853623297074,1.2186131195355467,1.1665129315301415,0.9431154327870072,1.4770106187545338,4.282372716599021,2.095483860699379,2.7823667393660854
1570181660013924.0,1.814197491035617,1.2213370584205159,1.162301089285552,0.9433451171448672,1.4722898922773826,4.301145320822296,2.1378855654546234,2.7580013259784484
1570181660042847.0,1.8327957682115226,1.2190966856073373,1.1590776498832662,0.9409788256248195,1.4674839093867187,4.2966735713043285,2.1783009545627516,2.7418738118154042
1570181660042847.0,1.8524549354126265,1.2225390441946262,1.16052029930245,0.9372816155635424,1.4638384816486067,4.302529749705888,2.2197334404805398,2.7345810666986443
1570181660043904.0,1.865527072248472,1.221796893412679,1.1644690341211505,0.9340508552021851,1.4619305708096073,4.304763893004124,2.255919781969446,2.7249515088876515
1570181660043904.0,1.8793036729358947,1.227406343563913,1.1689575122904645,0.9276226521255525,1.4599896305654745,4.321432729606431,2.2746797203222626,2.6958751258728033
1570181660048831.0,1.8899753579057808,1.226638983960105,1.1730175189431498,0.9219878831693492,1.4578934535165018,4.336932124254536,2.2765459176964056,2.6569565497243244
1570181660048831.0,1.902066111661907,1.2278394035164664,1.1747569628897976,0.9181978877689001,1.4588110822431584,4.365496437820829,2.269683877825197,2.620339920466139
1570181660057807.0,1.909374372819934,1.222265350622035,1.1752698462255529,0.9167211553994788,1.4613097704922784,4.389190942186073,2.2645230770904243,2.5914771878629614
1570181660057807.0,1.9169676724117382,1.2204286376662907,1.1754974709130035,0.9154740340082386,1.4637507975055977,4.430472538076958,2.263079064367455,2.5700917102487333
1570181660072768.0,1.9199867608754442,1.2111567245688435,1.1744667370189912,0.9144087538010394,1.4669368793772501,4.477612099273782,2.268592008251414,2.555428549029241
1570181660072768.0,1.925979447675681,1.2076313987523293,1.1731815354081339,0.9134339099105216,1.4720617914864855,4.541503322851468,2.2782206312429487,2.5468982639887567
1570181660073766.0,1.9304461346126753,1.1997434934844093,1.1725907235398125,0.9144880145102275,1.4778111272038583,4.601405284247426,2.289231541010583,2.5451712645919513
1570181660073766.0,1.9368082732590637,1.1944349921689683,1.17168183961459,0.9178745318172095,1.4835414033077756,4.671003453186171,2.2945910725995216,2.549038449329795
1570181660094712.0,1.9402818860071136,1.182997545953526,1.1694852133234277,0.9244242934843707,1.4900665482444262,4.731039173294946,2.293484417681075,2.56067018688119
1570181660094712.0,1.949717120636451,1.1779516866877016,1.1650187165082302,0.9325989607126046,1.499517972501422,4.798497719769178,2.285050496626636,2.581144939594122
1570181660096704.0,1.9615549078945635,1.1710111839145312,1.1572938990615667,0.9419292719132557,1.5085230873513236,4.858876264564759,2.2767313858548723,2.606962152310342
1570181660096704.0,1.9810767124218063,1.172996741038187,1.149225430095056,0.9499654736552785,1.5136705061961802,4.923678761516161,2.2697913913865326,2.637602693519467
1570181660117654.0,2.0015766513604607,1.1726811791814276,1.142738218042233,0.9570140265713509,1.5188691726673624,4.985422047559252,2.269030571578945,2.672242563566425
1570181660117654.0,2.0257371750007507,1.1761416046790196,1.1348393167316049,0.964695840146228,1.5251178072284193,5.0526115952385675,2.2711284757186156,2.7098120981297242
1570181660118643.0,2.0465376319689437,1.1730817936100293,1.1254963892592678,0.9744541502284942,1.5283731073839142,5.092761290593607,2.2793922670881375,2.7515913653669166
1570181660118643.0,2.068596388927407,1.1769632863788673,1.1176462705636279,0.9841221520415278,1.5259733144782657,5.091027840313826,2.2880292153806807,2.7993550368260145
1570181660132697.0,2.0882374587194423,1.1787834193452849,1.1102751994495614,0.9900893764491056,1.5159675519972198,5.048693504263201,2.2927795204448747,2.8500040712848733
1570181660132697.0,2.113692863123966,1.1889743380013318,1.1023915299861942,0.9918397173825687,1.5022550441888762,5.004518856398626,2.2986243875160706,2.9071860008416897
1570181660133606.0,2.1408210126375673,1.1969030934194085,1.0969829255452863,0.9926734997840438,1.4895827464025835,4.961688541719288,2.3133962188097104,2.9710056578472144
1570181660133606.0,2.1733985423656415,1.2108615139617107,1.0949967727524832,0.9922120401027078,1.4778596414255099,4.921157017729279,2.3299327034635176,3.0426273827252452
1570181660155555.0,2.20458060791887,1.2203522208718154,1.0944160239701644,0.9917817930484465,1.46605057142831,4.879866528243624,2.343602751072364,3.120426117611974
1570181660155555.0,2.2365910855953732,1.2362934514105075,1.095274195754044,0.9930065204447548,1.455069897517045,4.841022947217734,2.3539840272408084,3.1970468758980304
1570181660156552.0,2.264104447808337,1.2472660532981388,1.0995083948273057,0.9963841226210366,1.44589294113445,4.801130028367552,2.365415327386646,3.2645168016021984
1570181660156552.0,2.2948890938609026,1.2622883918662342,1.105951894005267,1.0015982648511554,1.437491766271251,4.769443132024997,2.3785831530209793,3.3364277869474566
1570181660177485.0,2.324411307340692,1.269874846066013,1.1116090866939943,1.0081476023801912,1.4298512700192905,4.740954490215576,2.395013998508831,3.415422257745635
1570181660177485.0,2.3565745806565075,1.2784143865763367,1.1145684547701922,1.0127661906985386,1.4259492640569393,4.71273100254591,2.411446381982588,3.491499860668954
1570181660179480.0,2.385729434897959,1.2801141093695727,1.1130083751161959,1.0137812145895013,1.4267188434759872,4.6850522211382595,2.4255520299539217,3.5605366801895464
1570181660179480.0,2.4152929002335726,1.2882844509870264,1.1081024227343506,1.0116162821374621,1.4291869375450474,4.653052804103926,2.43354775162932,3.629015210216579
1570181660192685.0,2.439637422733569,1.2929175716774446,1.103852050530807,1.0076511360974707,1.4323373128833632,4.611092917447547,2.443045771061998,3.6968057086901864
1570181660192685.0,2.4622543934433256,1.3020721020585617,1.103088981399899,1.002299022132805,1.4391964963736303,4.564120751841502,2.458187977888101,3.772717883157001
1570181660194446.0,2.479233156523817,1.3057225080917096,1.1046227110014448,0.9970306575284642,1.4486038913287822,4.5187130851554524,2.4826565703595778,3.8574168798938553
1570181660194446.0,2.4945883297456777,1.3142719824492228,1.1054776523952037,0.992313038579451,1.455744275150085,4.47420732328867,2.501246839065021,3.933376084259356
1570181660215499.0,2.5054802283687905,1.3190798337381675,1.1057844334303983,0.9897403465458128,1.4577490173908045,4.430898605405287,2.497499271427196,3.9880210917916195
1570181660215499.0,2.521104725414907,1.3293119521846135,1.1064947010481383,0.9869489161653311,1.454752301221511,4.392664915506107,2.4760808336873668,4.037491804643104
1570181660216624.0,2.536246092374993,1.333235731400167,1.1066025191308164,0.9832244032243045,1.450651126407731,4.364240698617203,2.4589775557207876,4.09115130257454
1570181660216624.0,2.5530546789548243,1.3417002433634393,1.1061960023844664,0.9810648622899694,1.446404870226936,4.345664971343145,2.446927931047337,4.148265059580293
1570181660237364.0,2.566209218707802,1.3468602960120515,1.106241919963376,0.9820250826919784,1.4390635843613602,4.3359416968979065,2.4432829995528524,4.206036297656575
1570181660237364.0,2.5795614820277613,1.3574755661954254,1.105724839956642,0.9838292152550093,1.4295113949795868,4.336037657436389,2.4433438143170285,4.266860597504696
1570181660239474.0,2.589201315699165,1.3646260107586201,1.104803356181054,0.9867151187583247,1.418761634393246,4.348370796106484,2.4502194429466932,4.332631439368805
1570181660239474.0,2.5984264610173264,1.378151754380037,1.1055290548954684,0.9914622127963842,1.4047095573708248,4.360500833702639,2.4562479212956414,4.40000994722186
1570181660251302.0,2.600590853202109,1.3881396715029624,1.1097955688526675,0.9973238470122193,1.3872731148584663,4.358582917627024,2.4648089232111756,4.461426187105894
1570181660251302.0,2.601681325513889,1.4038795283139454,1.1173367251168593,1.0041119039821533,1.3691681963059692,4.335463737133463,2.4771623981943507,4.520698791949552
1570181660260274.0,2.6041292539237926,1.416111291962761,1.1261159769690177,1.012993801099731,1.3524672077533018,4.296715105892289,2.4985217611999064,4.580416078823179
1570181660260274.0,2.6117232932471404,1.4348334559269986,1.1362427718195256,1.0238946491218708,1.3360645566461486,4.247344082768578,2.5246481007202686,4.620534139021477
1570181660275433.0,2.616659009722104,1.4502327159506636,1.1486012367858318,1.03599420059648,1.3209702917927482,4.195399723687618,2.556059726001979,4.628204113689792
1570181660275433.0,2.619508935835515,1.4696974240842229,1.1619846431615166,1.0472872185545414,1.3101293395754285,4.1383870649196135,2.5853165117484895,4.62312328819137
1570181660276682.0,2.6121227563133282,1.4804972246399437,1.173468908377583,1.0560250929393509,1.304625260555109,4.087043643710876,2.611256033391182,4.59875282081245
1570181660276682.0,2.6022870522761665,1.4917371289012933,1.1814813909367416,1.0610638662855008,1.3024180464997264,4.038664357431614,2.612275213414038,4.5383776805339116
1570181660297400.0,2.5929642426828132,1.4987569933827682,1.1881984358319684,1.064589849588728,1.3014444126816838,3.9912352789540138,2.590561823379396,4.468345642255305
1570181660297400.0,2.5816753327965114,1.51090284686677,1.1924596894634045,1.0664578083937228,1.300684428089346,3.9330956305909885,2.557490665452801,4.409619083857023
1570181660299278.0,2.558211670926002,1.517110005918856,1.1906603424425375,1.0640365233303766,1.2971103725029578,3.872427697819969,2.5329446343047333,4.360040447584147
1570181660299278.0,2.5287620510587696,1.52513700769003,1.1860760751923667,1.0576233296374662,1.291825987207317,3.8148228228136385,2.5108101817911748,4.3073575293269935
1570181660312128.0,2.495463712475223,1.5239978965880092,1.182426299361676,1.0495349617843701,1.2867116694404528,3.7673852602325844,2.4969078162653373,4.245594907782715
1570181660312128.0,2.466630208223743,1.5243052507836445,1.1785820330931074,1.0400891438799609,1.2808692915108695,3.723112425183949,2.479510855685115,4.183343630518537
1570181660320105.0,2.438972081149764,1.5236209512940688,1.1755569309125686,1.0317808934341095,1.2772288584394176,3.6873805056437847,2.464918291031378,4.125220901806744
1570181660320105.0,2.414838320042012,1.5319868594980637,1.1741905923167872,1.0241416859860433,1.2777023274978054,3.653637233474807,2.441540764362415,4.065104676914187
1570181660335070.0,2.393602205580348,1.5386514275364602,1.1724766079700855,1.0176900903358805,1.2780378555619143,3.618714705057869,2.4140497122978832,4.003641097320299
1570181660335070.0,2.382065321239378,1.549328643335646,1.1704752140007058,1.0128881389499593,1.275518464337943,3.565791449843663,2.376951093114818,3.945948850876717
1570181660337060.0,2.374870194003331,1.5530571466577376,1.1691381756870383,1.010400452161633,1.2711028768542638,3.5074507430629938,2.3464233423457976,3.8995566715625998
1570181660337060.0,2.3706515924475142,1.5589273555386554,1.167430484980117,1.0098233393280718,1.2659440626976504,3.451738029785332,2.3115096549635914,3.865526529615275
1570181660357013.0,2.362995561613189,1.5606489156008243,1.1634271218368162,1.0089430632211536,1.2608862231469729,3.400460519146141,2.2808428326380286,3.843980300436067
1570181660357013.0,2.356258087158302,1.5669587298834302,1.1571746757972494,1.003916402092331,1.257017251633931,3.343280604192586,2.2451786340056206,3.8278673864150083
1570181660359011.0,2.3494686115823127,1.5694336021966677,1.1486486617541531,0.9979150251894522,1.2530778741622592,3.288980470139212,2.2129787736238558,3.810648124926262
1570181660359011.0,2.3473480266593776,1.576464776367053,1.135853457654105,0.9925427458099272,1.2483776633731973,3.2333185291041686,2.172556953689623,3.7926407068948884
1570181660372314.0,2.345612296645373,1.5802322195288077,1.1206783701699456,0.9865041661435338,1.244776025843536,3.1822182044307463,2.1378533074353205,3.7728590607584622
1570181660372314.0,2.3489714708279754,1.5901783365828503,1.1059806733276132,0.9789802193354311,1.2432897540964456,3.1328038270602674,2.0999344640429274,3.7393448913514566
1570181660378961.0,2.3553814829456274,1.5982734582966207,1.0916937972309737,0.971583431417366,1.2416380530589688,3.089040704026832,2.0692792414292516,3.6953400609944502
1570181660378961.0,2.3656383570234643,1.6097728306013972,1.077765702654012,0.9627496960173247,1.2402473104668166,3.045248207747848,2.0369046619850306,3.648177949812889
1570181660395312.0,2.3756752242260415,1.6158007544499993,1.0641572092061566,0.9518671009443664,1.2398525801969043,3.0064511406009977,2.0116752708066574,3.602074065227941
1570181660395312.0,2.390810289040561,1.627246815099513,1.0528328796442838,0.9399797569076497,1.2417491900311362,2.9697592947211047,1.981046873400945,3.5580777384185263
1570181660396904.0,2.4055936023615576,1.63655038998259,1.0447587677063268,0.9307405554338298,1.2463595412721367,2.939783516422156,1.9553148740175728,3.5183594432402723
1570181660396904.0,2.421086759106302,1.6511437783670193,1.0389110676360511,0.924860993790473,1.251831204428352,2.912540459946026,1.9255421789340361,3.4841161587050107
1570181660416900.0,2.433081964663389,1.663191120726688,1.0362458468851292,0.9220917825122072,1.2570923718110358,2.886687646902982,1.9032242211995103,3.456009200059655
1570181660416900.0,2.4463044891865735,1.678769334995737,1.036610924713689,0.9199797215881873,1.2645061181259771,2.8603342035861763,1.880005174698658,3.4319289033921723
1570181660433114.0,2.459607382375222,1.6879927356650002,1.0359404386265558,0.9178638198568696,1.2733110063801654,2.8405398821861345,1.8610068006915947,3.4140686895811654
1570181660433114.0,2.4752289994653767,1.6979085836215242,1.0313753754544799,0.9152560048807846,1.2818534784753175,2.828884540223579,1.8371245974296897,3.401771499126274
1570181660433805.0,2.485844168342061,1.7010446879902903,1.0239972414925373,0.912483556970835,1.2888902669522366,2.8266762221954758,1.8221292384001837,3.3972264145580495
1570181660433805.0,2.495729804323006,1.7079447908037866,1.0147713432846572,0.9101148087423847,1.2939842728512831,2.8320894471747127,1.8074410891828085,3.3861397997798943
1570181660438794.0,2.506805528440087,1.7140494206310308,1.0036897940012197,0.9105188577674962,1.2971757018368946,2.8472722372845096,1.7938441978811712,3.3530294683303437
1570181660438794.0,2.5241377084400987,1.7272617003088624,0.9917586311881581,0.9135641841515556,1.302839262104824,2.8689878887993716,1.7728441833651554,3.3107790284291
1570181660455089.0,2.5409295320650305,1.7376656934647865,0.9809438222647902,0.9166072652415601,1.3105330394117916,2.8848711454906506,1.755989322578907,3.2759319679767347
1570181660455089.0,2.56006149844658,1.7516208754582865,0.9721627632562712,0.9163328490069006,1.3124930097507703,2.8855431968710774,1.7351881638250672,3.2461046100999695
1570181660456740.0,2.579391518460692,1.760015438864091,0.9653198461852395,0.9137966638938007,1.3048718540710327,2.8728069368054374,1.718093241379112,3.2205403445283847
1570181660456740.0,2.6018947058454853,1.7694005004695,0.959317795856047,0.9117347317601018,1.2948262254503475,2.8547821825664124,1.7000785764247477,3.196348639404048
1570181660476985.0,2.6229499717064177,1.775377186915386,0.9531321707799354,0.9095227222705918,1.2873949503584496,2.8281787629266266,1.6879454175009758,3.1743489550252453
1570181660476985.0,2.644680902586082,1.7874078629013699,0.9457462948490005,0.9048633929765104,1.2822905128349806,2.7911592044359637,1.6757198082475304,3.1517962859578468
1570181660485198.0,2.6632728152209695,1.7972583826474946,0.936291966299667,0.898899758461503,1.2770315628551085,2.751362903708669,1.668446405846635,3.1279983256756463
1570181660485198.0,2.681771103322928,1.8113312530832657,0.925947523188217,0.8913738554705759,1.271125951186109,2.7130762570428804,1.6586131676122282,3.1039119895041
1570181660491869.0,2.6973918365646155,1.8209997278568353,0.9167714348232111,0.8824116874520441,1.2643711732310599,2.677838601306566,1.6500335792656167,3.0795141279686966
1570181660491869.0,2.714528756681025,1.8335586770172863,0.9096810860322462,0.874726858722466,1.2583098176278378,2.6486139277073573,1.6385006091552452,3.052557426305849
1570181660498627.0,2.7311535481894658,1.8422199628457354,0.9046956213630262,0.868662932174268,1.2544343314521162,2.6263137803287964,1.630577562717576,3.025264443890243
1570181660498627.0,2.752751012898544,1.8544450736481795,0.9028404301396789,0.8620126725496026,1.2527367364080806,2.6145911789185656,1.622257481064543,3.000883712982911
1570181660514589.0,2.7755760768432935,1.8635212497865385,0.9048920839935456,0.8568697007187753,1.250904897871987,2.6100734367793526,1.6163555731362103,2.9806939577137133
1570181660514589.0,2.8021475751609595,1.8776045646032558,0.9104517683319998,0.8541817429151874,1.2507632331955136,2.6143864480562025,1.6111755082382686,2.9639520442497775
1570181660514589.0,2.8290347388152974,1.8892892664006375,0.9180144131216854,0.8520136282100755,1.2536124001622337,2.6242160493903595,1.612164877496706,2.9526944002630615
1570181660514589.0,2.857782347586743,1.9049541801793963,0.9243238767349642,0.8493217551427399,1.2596288526147394,2.6440155082578465,1.615773613376209,2.9458069233344544
1570181660538531.0,2.8842893364820887,1.9164812377366673,0.9269556609066497,0.8460821052053351,1.268071345354072,2.6679862037991193,1.6215144712988234,2.9378039974960517
1570181660538531.0,2.9110849955860125,1.9289035221666189,0.9268468511272888,0.8423727350011232,1.2782115422568083,2.6976636762900066,1.6240208693465414,2.91518393430143
1570181660539520.0,2.9330714341536837,1.9358125206917924,0.9275184766538188,0.8391527103856229,1.288650188757094,2.728360879889994,1.6259461807024271,2.87999750316241
1570181660539520.0,2.9545532550114855,1.9462241923713863,0.9316782888617607,0.8386170057248094,1.3000814120993391,2.767272984220727,1.6295685086255018,2.8451382479621348
1570181660551660.0,2.97396015646781,1.9535239512312668,0.9397719244929558,0.8414983490404417,1.3129905392309447,2.8092668450543803,1.6375846285011573,2.8136285756308856
1570181660551660.0,2.9942586825455635,1.9644291696363083,0.9512535055809033,0.8469656174470185,1.3283786124808186,2.859669512946731,1.6458228386057416,2.7787777631471533
1570181660558902.0,3.0132168606054646,1.9724246707464033,0.9646102636080116,0.8537064649403995,1.343274420844582,2.911693260317397,1.6514188694248912,2.7423614720646112
1570181660558902.0,3.0343581370800097,1.9854055661223113,0.9779262838227253,0.863103353181821,1.3566505468775136,2.967825201718618,1.6511712106066634,2.7078545165409027
1570181660574768.0,3.054418403429186,1.9964864001423046,0.9916839340607266,0.8745251731822887,1.3690893934620656,3.0206123141965557,1.6499134483990014,2.676952571166672
1570181660574768.0,3.0771264523324713,2.0093145226300906,1.0066851657828353,0.887412990712359,1.3792601116761467,3.0654110689579017,1.6507707961125153,2.652340610072731
1570181660575424.0,3.09801216228902,2.016027423689467,1.0226738938697433,0.9011956596817787,1.3781382845513022,3.0739896890721035,1.6508031112211041,2.634971869172461
1570181660575424.0,3.1175650316630876,2.024911548293127,1.0393158370910398,0.9153297824211664,1.3640633544668306,3.0541905929892588,1.6470373207321065,2.621535140534587
1570181660596373.0,3.13324067165408,2.029797855129566,1.055154938238851,0.9283427255353648,1.3466847605867716,3.0261648184534935,1.643238785511046,2.6112042934745654
1570181660596373.0,3.1512202020679316,2.036457231397182,1.067221282708749,0.9388122134058661,1.3322110280173527,3.0058661351781444,1.637647088715435,2.6046245979793046
1570181660597440.0,3.1687590281904705,2.0373559523626006,1.0736137397221028,0.9437027593452398,1.3205220806263094,2.9885052919461574,1.630936537992038,2.603041513645077
1570181660597440.0,3.188178675350085,2.0386071028377635,1.0753758571329142,0.9448332814755835,1.3124293489164476,2.979015751279051,1.6253639868762775,2.6062982652218696
1570181660611328.0,3.206638851414574,2.0334758840347487,1.0738968793984012,0.9437336610574193,1.3050161811673977,2.974174152435309,1.6216131581943576,2.613452270594191
1570181660611328.0,3.2272927226618244,2.0287732829476552,1.0704550708241585,0.9397181727482466,1.2970123494627066,2.9745266094512948,1.6171385744842297,2.624342954130118
1570181660618316.0,3.245396973604139,2.019137878026648,1.067103435811649,0.9325877385097542,1.2891323934649594,2.9709561603334476,1.611405193074541,2.633921502390727
1570181660618316.0,3.2628696351937276,2.0120338991028697,1.0652652225553225,0.9245731801667051,1.2815623569064478,2.969396612262541,1.6039210551850616,2.6352028702602324
1570181660634328.0,3.2775172092263802,2.003213257422745,1.063290664866551,0.9173059372641881,1.2729827556982387,2.9649923915892558,1.5950735812327956,2.633172308000244
1570181660634328.0,3.293441232830615,1.9978878468787997,1.0598315373980147,0.9118772367778597,1.2640715039362194,2.959576649012466,1.584427842338532,2.632843132668213
1570181660635263.0,3.3085178274455656,1.9887049566783042,1.0581758898040585,0.9069552505746732,1.2556933982473941,2.9504656084243432,1.5732809440221767,2.6341084974423445
1570181660635263.0,3.3249566137536006,1.9841701819795678,1.0581491343874738,0.901825959885817,1.251083197825422,2.9481166565593466,1.5622964494874958,2.6360349825340017
1570181660657559.0,3.3406570863365186,1.9803580215955694,1.0567054908187847,0.8972636730237228,1.2488388284294007,2.9487564924669467,1.5497079258095392,2.637509632112244
1570181660657559.0,3.36062395676175,1.98217179510725,1.0535201915817294,0.894425564448739,1.2465055443948352,2.953650408307181,1.5332791731945785,2.638668472631045
1570181660657559.0,3.381074535762741,1.983205626786641,1.0500423986979017,0.8919763997336412,1.2440938773924113,2.9570649306581704,1.5140694112006876,2.638399955882343
1570181660657559.0,3.402915798442365,1.9914824899109507,1.0481216162818112,0.8902464356456602,1.243070883059014,2.962575166220419,1.4949853160406044,2.6389366717785965
1570181660671170.0,3.4209412639979466,1.99981204564865,1.048031879392952,0.8898152083541679,1.242820663143111,2.964075375705868,1.4778953053740425,2.6399804089405503
1570181660671170.0,3.438757973589119,2.0115474851769144,1.0471820714565134,0.8888755209786371,1.2440029968855315,2.9590301911828463,1.4620874654978524,2.641910740799431
1570181660679184.0,3.4566813051082423,2.019084035614361,1.0434661986282086,0.8852702138339029,1.247109753741513,2.9369390149314887,1.4470235881717706,2.6493442608039635
1570181660679184.0,3.4782111369258897,2.028459604195933,1.0398837474512033,0.8794005037079625,1.2532232209823841,2.9103618298460683,1.4344715720299657,2.66181639546324
1570181660702150.0,3.500453947603626,2.0332881374596488,1.0386990521001653,0.8710605932714897,1.2603431865863557,2.8855024607291493,1.4222677478431727,2.665896469742443
1570181660702150.0,3.525287397588918,2.040556627977787,1.0382603821042395,0.862604192064497,1.2682453029764014,2.870720893270045,1.410871469482088,2.6562410890398906
1570181660702150.0,3.5484877106648343,2.046323530296212,1.0377972308010932,0.8555715958404366,1.2765233651344048,2.86139046623694,1.399678448569997,2.6461677045368073
1570181660702150.0,3.5735202263118357,2.0577230692692456,1.0374304059346553,0.8491810671030653,1.2867275269538434,2.8605198412644977,1.3927726133733775,2.6451874278220746
1570181660717042.0,3.596155879189335,2.068063303225371,1.0372516557808165,0.8431694155372998,1.2974559736991826,2.8607867903822,1.3884622578676935,2.649167847223416
1570181660717042.0,3.6164578716909728,2.0825677163292893,1.0374413615378757,0.8388392605352065,1.306469833965951,2.8659043117897904,1.3873067867135287,2.6524522358087608
1570181660718042.0,3.6336629766447213,2.0943591974248004,1.039163425161039,0.8357117980072305,1.3134587156541493,2.8663631487730967,1.384315388595693,2.6539982847665367
1570181660718042.0,3.6539514569682483,2.1079602589001496,1.0428362060096372,0.8341052377346143,1.3225787426821016,2.864681202327713,1.385315500410579,2.6560407810085596
1570181660739984.0,3.674025425444021,2.11666495643823,1.0472231504884257,0.8324579395283853,1.3350857342305158,2.860544747970214,1.3878723948462184,2.654831959051309
1570181660739984.0,3.69542082813141,2.1277899979059836,1.0525320860915532,0.8303321949899041,1.3492208476356837,2.863269599676025,1.3927704966746532,2.6441707187683443
1570181660739984.0,3.7163725726459806,2.1375256446757125,1.0583011625345171,0.8273029275296524,1.36061026497715,2.8621176098527608,1.3930905620876317,2.6238075669221024
1570181660739984.0,3.7415161969619914,2.152994966360578,1.0630041883870673,0.8239884097602839,1.3702894738328009,2.8581495233853635,1.3974455865455142,2.604591571608969
1570181660762100.0,3.768702773171009,2.1676519807705055,1.0686297401525864,0.82092294282036,1.3799778980761825,2.8520390190138776,1.4041354153762626,2.592393523932093
1570181660762100.0,3.799462251213184,2.1870692127470024,1.0766316487725907,0.8194939922042663,1.3917931685835645,2.8521593225691286,1.4184641851664503,2.587028767698852
1570181660763180.0,3.830013128817261,2.2053063809810656,1.0865910369199463,0.8179173788604649,1.4039976171903608,2.8485693210663072,1.42947092390391,2.585631285060043
1570181660763180.0,3.864309970451268,2.2263939863318325,1.0982992217086371,0.8160252089348462,1.4142187148878442,2.849518230621078,1.4378758832859098,2.586820805704405
1570181660777134.0,3.899464250205874,2.2429654541064643,1.1117630681563198,0.814318510018147,1.4216577232753083,2.854357236827528,1.4378334971299354,2.5930724572092845
1570181660777134.0,3.935758877008483,2.2611881106879355,1.1274658433892453,0.8142707210436081,1.4267802225660828,2.8674151354372945,1.4373491939915455,2.605623887330296
1570181660777884.0,3.971480215464628,2.275401293543787,1.143551597955132,0.8139581178644729,1.4266357165593389,2.8774326363163256,1.4327057260451648,2.6130690486786725
1570181660777884.0,4.011520130384462,2.293681768042854,1.1587330252914319,0.8133396520787126,1.424346777722046,2.8918668975698534,1.4342457348842144,2.6098267026599564
1570181660799937.0,4.0517883216691155,2.3119902231042313,1.174504370709447,0.8118927336055065,1.4226407438120918,2.906082406980331,1.434032869487611,2.6022192834510083
1570181660799937.0,4.092892279196373,2.3343694638975117,1.1909144935177471,0.8117542778842792,1.4202864036180431,2.928260258954606,1.4367166876699937,2.5911511793762374
1570181660799937.0,4.132008754073963,2.3539677910839676,1.20530918479059,0.8139723906222082,1.4161854989342932,2.9502911692378615,1.4379508864483839,2.572785844955345
1570181660799937.0,4.17146689866523,2.3764722061330916,1.2159806255273258,0.8200196782826891,1.4118597930512131,2.975130252864645,1.447749745226446,2.553639008491306
1570181660821763.0,4.207499184754253,2.3957064312406438,1.2249582900111966,0.8283276918205595,1.4064957958312263,2.9987807202513035,1.4575819817148914,2.53743185016557
1570181660821763.0,4.242679619081862,2.4164007544481008,1.2316783403634979,0.8374673053175943,1.4004520371456264,3.0304199817537483,1.4762209304109142,2.5236191551647673
1570181660822834.0,4.276209469548718,2.431001567007844,1.2353910062019189,0.8449442901101345,1.3916190236809298,3.049899015965375,1.4928571906768642,2.5138248104641514
1570181660822834.0,4.312851112197514,2.4460130969770173,1.2390405953329662,0.8531471567077262,1.3758768258833571,3.0457397739117735,1.5137660257409986,2.5112348757509233
1570181660836882.0,4.351098063998084,2.4577408545639563,1.2440756784293094,0.8607960161019846,1.3523167590064142,3.0155549128859427,1.5306768950527239,2.5142984678518894
1570181660836882.0,4.392901950496156,2.471558893184624,1.2511013877005364,0.8693377155718253,1.3299812482286941,2.985927804327933,1.5538396599791442,2.5213874865950294
1570181660838025.0,4.433671322227199,2.480781860819774,1.2600818448457263,0.8792581754955363,1.3139133142673756,2.9604639966701423,1.5736921034940248,2.530946527912313
1570181660838025.0,4.475527711066332,2.491650847416601,1.2684001660565123,0.8895632105033611,1.304142473517448,2.9431319000888365,1.601044429394973,2.5454783564191494
1570181660859869.0,4.515966237792988,2.499809154242373,1.275207890921655,0.8946067340100156,1.2983705127453347,2.926341894082132,1.626817104009068,2.562305179659106
1570181660859869.0,4.554109533562958,2.510016002862793,1.2823439199593076,0.8965854621799321,1.2961389929086018,2.9160664147554076,1.6572725361524727,2.5819579072216614
1570181660860664.0,4.584441625325651,2.517440824577745,1.2915344310436614,0.8997573492313087,1.297734520845873,2.905047739847092,1.6784579682029572,2.5987417603368295
1570181660860664.0,4.615089430408802,2.529436474265866,1.3027496450354485,0.9069158550506895,1.30364998331613,2.902214727216938,1.7017420147770865,2.603079978669373
1570181660881654.0,4.649209770090002,2.5389470103908396,1.3143005536537977,0.9145849546234587,1.310095599854122,2.9019851161465717,1.7209490363257376,2.598335325445917
1570181660881654.0,4.688218025301849,2.550194007717348,1.324434866995727,0.9188677966369214,1.3140191328822246,2.9102743571006147,1.7485005643996774,2.596534184324759
1570181660882601.0,4.727241689211618,2.5591976392372904,1.3333172754530431,0.9178703802008031,1.314227977878381,2.9156463773520973,1.7699668878907537,2.5968816339374436
1570181660882601.0,4.765469809991227,2.571636667580631,1.3432784923589713,0.9186599208514427,1.3133941730331067,2.9259045787583,1.7911217534726345,2.5993441378840685
1570181660896571.0,4.8016025519622465,2.5820013145532084,1.3541254884262313,0.9217258040824899,1.3129035081028104,2.941167332413639,1.8055031481006332,2.6036327927152914
1570181660896571.0,4.842662439283391,2.5959331997539015,1.3639019910498786,0.9267662651657973,1.313810610524123,2.970572923639314,1.8260700597466757,2.6102421139666445
1570181660897561.0,4.885547872799504,2.6060861674342113,1.373202379861206,0.9324007391135539,1.314172329956869,3.0028809062539707,1.840516125899146,2.615810512226295
1570181660897561.0,4.929474224091214,2.616196115199444,1.3818646361719416,0.9385684442669816,1.3144937298366135,3.045142383950997,1.8565030149978399,2.6204436347015636
1570181660919504.0,4.972805724578124,2.6232335034986907,1.3901467019295548,0.9434112776024881,1.3166249982003912,3.089815625236434,1.8654627705963909,2.625796096324135
1570181660919504.0,5.019486712201771,2.6343637813530982,1.3974295909249703,0.9483745978751593,1.322064061321126,3.1457154845795645,1.8781242034280814,2.6347139228205863
1570181660920501.0,5.065140252704546,2.6441941440005774,1.4015017058285282,0.9524919904687851,1.3275565595222394,3.2011127021435346,1.8850359724596333,2.646875594114816
1570181660920501.0,5.110790171994567,2.6576307569159745,1.4051714900948324,0.9581317865004082,1.3340499849318666,3.259138840085115,1.8968171535921938,2.664944687781489
1570181660941444.0,5.15259465149983,2.666721049504803,1.4114595135190373,0.9645263205101834,1.342987523142379,3.30403384637358,1.903393830321316,2.6873123886368626
1570181660941444.0,5.192085082028447,2.6763520963911853,1.4181908868772901,0.9715503084609939,1.3555931846364944,3.335848643606953,1.9137860148453651,2.712000416994566
1570181660942513.0,5.2291456262321,2.6862580464405332,1.4253365300961578,0.9772942382971194,1.3717098182984757,3.3457248476181247,1.9196942581662484,2.7341759523274187
1570181660942513.0,5.269271462404638,2.7035226101304186,1.435399887976198,0.9833491475688472,1.391921035471123,3.352611677716382,1.9303010226204331,2.7566386192471115
1570181660956410.0,5.311317034889907,2.7195489678306948,1.4464813170017325,0.9895896138461117,1.4133892523536966,3.359778105455961,1.9363786790471627,2.780749403818452
1570181660956410.0,5.355458284480204,2.7371964210583473,1.4544547035322237,0.9975312838790322,1.434981618860026,3.3765160267230083,1.9471597263662557,2.801282586839298
1570181660957516.0,5.398779585118067,2.7530862062518446,1.4578112276891486,1.0034881392427064,1.4557508355506015,3.3965619252349852,1.9529476085747177,2.809399357145185
1570181660957516.0,5.44535555435637,2.7735534219437437,1.4578178544138387,1.0076598761906392,1.4777128316819124,3.4297684133036146,1.9657905717541135,2.810047796718197
1570181660979393.0,5.491040643138512,2.7920182424987763,1.455703123027524,1.0104643805975335,1.5001402575915275,3.4664220918836075,1.977208607271224,2.8092491086146896
1570181660979393.0,5.536999430131011,2.8137629508633024,1.45173077146358,1.0138323516694985,1.5215234973280294,3.512470101873808,1.9960745821576473,2.811903194080788
1570181660980340.0,5.584093667465935,2.8347292782300775,1.447204189667453,1.01558134418552,1.5366098525493268,3.552603754187283,2.012623755837844,2.819501977761063
1570181660980340.0,5.637308665195903,2.8595031348723206,1.4428403598165482,1.0178908550416153,1.5471180103706537,3.5897742387646705,2.0369269156369536,2.836280659162539
1570181661001286.0,5.693447348320606,2.8818176788204366,1.4384136004630474,1.0225777444486022,1.5593688861901516,3.623938559746024,2.057962522636693,2.860636292599316
1570181661001286.0,5.752350162139198,2.9049298607506433,1.433282670845043,1.0316152956065185,1.5748376444420578,3.6659179117112415,2.082140629621578,2.891127662833581
1570181661002281.0,5.811023775061169,2.9228637783227756,1.4295453439892767,1.0415981232908516,1.5894107056176072,3.706153930572206,2.1001336700029065,2.9226320118855256
1570181661002281.0,5.871312502342604,2.9433411239944465,1.4306784600576044,1.0508128211206786,1.6017561418926767,3.7439145668732365,2.122059928650394,2.954652677108514
1570181661016290.0,5.9299918696671465,2.963686451503417,1.4360112810550965,1.0574146824033506,1.6034134529316735,3.7470310001264697,2.1311108013568942,2.9880746572166093
1570181661016290.0,5.989977601725497,2.989669098769291,1.4432925898691544,1.0655828552366324,1.590542767437772,3.7076435290938683,2.1325061865742025,3.026944265359406
1570181661024259.0,6.049731205823113,3.0154130624260542,1.4531505965566287,1.0753873233700817,1.5717149060412576,3.6482814644312227,2.1264950221930126,3.065754353321071
1570181661024259.0,6.109687734935898,3.042731554491433,1.467149803886107,1.0878644687341263,1.5560610814893105,3.6015938570433264,2.127735420011244,3.0996967853918362
1570181661039183.0,6.167133046784024,3.066046478555614,1.4848957292955403,1.1025802796414363,1.5419154743918035,3.5531395646838932,2.1244474379685663,3.1292726031069558
1570181661039183.0,6.227666187942293,3.092055474498413,1.5031745603174709,1.1209308376426048,1.5268245963336164,3.493732337578652,2.124543458842853,3.1570316491228003
1570181661040181.0,6.289693271577389,3.1159388211868393,1.5187049333044915,1.1397791034819826,1.5119215458446447,3.4270177296184974,2.1221987881526867,3.17251713285738
1570181661040181.0,6.353797094224628,3.1441405164570977,1.5321794493250998,1.158567210109684,1.5025534939384875,3.3700455152527216,2.129377412097158,3.179667389117081
1570181661062129.0,6.417728102136251,3.1725567769901195,1.5457780048263092,1.175601984297693,1.4976862011339156,3.3174116565625376,2.137101588516112,3.1916353424912214
1570181661062129.0,6.482287246815385,3.2050319603773754,1.558743093639964,1.1924450309692847,1.495227808438957,3.2709405109571366,2.1513665147646566,3.2111562856964486
1570181661062129.0,6.5444521980681385,3.2374627500997497,1.569556282239357,1.2079090530621084,1.4938009410550723,3.223460397020263,2.158443415597316,3.2257041510763726
1570181661062129.0,6.6076831821563635,3.274958298208319,1.5791122822202295,1.2229789005165024,1.4942894759538496,3.1783763489006156,2.1630322125110957,3.23193342296493
1570181661077094.0,6.671145132098483,3.309994133376856,1.5885504365935414,1.2344015723844997,1.496902964321844,3.1352510873743684,2.158839006094754,3.2345537486491938
1570181661077094.0,6.736035760962749,3.345883895222112,1.5989343495358492,1.2425096908488111,1.5020003154451615,3.100279587875844,2.1603180753217446,3.2409513962769863
1570181661078080.0,6.798885036359755,3.3799717351631844,1.611468328698134,1.247865675821982,1.5051292534672047,3.0627414212122948,2.160285236104475,3.252328884413443
1570181661078080.0,6.863912030963979,3.4183820972375574,1.6238063042890594,1.2521786661963388,1.5062778478671601,3.027314566492148,2.1673661381243727,3.27062435105475
1570181661099181.0,6.9303926635513955,3.4550638021367854,1.6323613439610505,1.2522748783903688,1.5087946106417247,2.9928687378474534,2.170207933840662,3.289586799961494
1570181661099181.0,6.9996245542151705,3.4952360631271446,1.6367019677395283,1.2486283644660612,1.5138400566145893,2.9643034870975264,2.173634644123865,3.3047378416398008
1570181661100545.0,7.068432480942639,3.535682704221298,1.6386757767185718,1.2450022209988847,1.519496420722398,2.937893201807741,2.1717567271601066,3.3168101342682244
1570181661100545.0,7.137585963115009,3.58147338173385,1.6393773374170102,1.2448859439246758,1.5273023917083584,2.924433754911694,2.178054410632269,3.3350706845987927
1570181661122181.0,7.204486240925443,3.626238603772103,1.639794995377947,1.2450538873523123,1.5349528714441376,2.9144865487653244,2.1827643760005917,3.358277151802705
1570181661122181.0,7.272584384752246,3.672492059587705,1.6395979657070334,1.242168485887215,1.5392596545071957,2.90373451939281,2.1929347790991596,3.3781017010240597
1570181661122960.0,7.343829128145291,3.71447413078945,1.6385356452310544,1.2318634297308155,1.5396640388562934,2.884243298187425,2.200713345925308,3.392965675652454
1570181661122960.0,7.421654957573872,3.757422053541385,1.6402016618975912,1.2188971516984954,1.5427546543291977,2.8736193484143047,2.218083922185404,3.4141664056862266
1570181661145244.0,7.499880900749994,3.796524531327315,1.6474043734199892,1.2089189793396065,1.5500322323741498,2.8718182143030235,2.2360166958850516,3.4414051126155942
1570181661145244.0,7.578611633337629,3.8353534491199754,1.6593467062998306,1.2030745469305106,1.5578200919636593,2.8844674554700642,2.2614765843547566,3.472700783876907
1570181661145898.0,7.656583265920969,3.8713007384506923,1.671787185236836,1.1979856573612773,1.562854857286888,2.8974349545360254,2.283229129575977,3.506229513333719
1570181661145898.0,7.735908376031061,3.9125335326922204,1.6806364163413394,1.1933981233658277,1.567615069300707,2.911763334160028,2.3115150201977306,3.5458304472705295
1570181661158873.0,7.813786551433379,3.9554577409960983,1.6870735569813369,1.1871964538783464,1.5729552383885,2.923570784052011,2.338470246994884,3.586933643454873
1570181661158873.0,7.893054690196979,4.003748107289779,1.690724266456567,1.1762765048056898,1.5818633822668104,2.946911919328129,2.368473264174232,3.6219460262019725
1570181661159861.0,7.974579521127305,4.050349527573001,1.689147354353895,1.158322073200291,1.5942610855721742,2.9696817615299427,2.3857343972540366,3.6510086847265346
1570181661159861.0,8.060590628383748,4.098147782612119,1.6823945972948053,1.1380756866138861,1.6101829549189364,2.998189699353699,2.4009138546778663,3.681721682101774
1570181661181809.0,8.148817033596854,4.142962620304168,1.6720237920717747,1.1195396328468756,1.6291079523317127,3.027823842531035,2.4095629152226286,3.7116006924130884
1570181661181809.0,8.241598295324126,4.188984122762481,1.6589800177926448,1.1045839026300306,1.649783662751818,3.067643611818491,2.423440008160417,3.7408331529967827
1570181661182800.0,8.33580711027347,4.230743433191436,1.6435916256864467,1.0921742861631731,1.6675211320989096,3.1069358538498513,2.434586846201471,3.7564526853393203
1570181661182800.0,8.43361902249172,4.274831025941576,1.6289606264987404,1.0836336076070103,1.684103612387902,3.153833194284496,2.4511223322521904,3.7548208924759026
1570181661195772.0,8.534536342204031,4.318592708170444,1.6161582867937534,1.0764886346663176,1.701864174159132,3.198819007609601,2.45853995110365,3.7482853353530525
1570181661195772.0,8.640373893285467,4.366614536323267,1.6038538536161624,1.0688191930405173,1.7200312889989469,3.2529079656837787,2.4662315408081277,3.744536334399492
1570181661204740.0,8.746951916110081,4.4144271077852775,1.5919398253701214,1.0615591172460115,1.7372050456030779,3.3071768968336266,2.4729803369057635,3.7455118951014756
1570181661204740.0,8.855221697828423,4.462734702040643,1.579339143659347,1.0570145916276381,1.7567346275818991,3.3720083694749587,2.4898999846893917,3.758037186141837
1570181661219716.0,8.964444616001394,4.506705215765288,1.5663918128096832,1.052982968431582,1.7772615233348574,3.4377347859339893,2.505336486994292,3.7808754419283157
1570181661219716.0,9.07640065345449,4.55386726108617,1.5539734196681443,1.0496068089963717,1.7987906214799692,3.5139729216114386,2.5276429664135827,3.811665816017584
1570181661219716.0,9.18816693263007,4.600073234882516,1.5421690205736716,1.0473851932312719,1.82090329222366,3.58802827809578,2.5484803110070486,3.841737765407475
1570181661219716.0,9.30037953484604,4.648614382556173,1.5330058458187414,1.0487406867319116,1.8415095413040985,3.667715064647642,2.5758076766353244,3.8712859459283164
1570181661241688.0,9.411702748761606,4.694801209210127,1.5278097852561563,1.0518492220677287,1.8596038586219945,3.7433361412195314,2.5987493359315326,3.904673345295613
1570181661241688.0,9.524520489174725,4.741649186464327,1.5256731203574565,1.055242871745674,1.8803458010578014,3.826210709557603,2.6271699314042167,3.9444465524152594
1570181661242645.0,9.633512765721607,4.782912067300495,1.522999268555306,1.0562843443804502,1.9033552563149598,3.9086940795820246,2.6525188700839166,3.985464194063118
1570181661242645.0,9.740147858421537,4.822946986781064,1.5163563829590705,1.055508568831257,1.926404310449404,4.002467649968803,2.6829977150056226,4.027114196676487
1570181661256643.0,9.843622799681478,4.858203898357084,1.5055496212924182,1.0523928227759227,1.9491253977877387,4.096073987323312,2.706792522837955,4.0644966122105
1570181661256643.0,9.94457861306134,4.892703831818732,1.491080413496423,1.0484169732337651,1.9728661833205523,4.193137818350521,2.729588681370189,4.100240833340888
1570181661264808.0,10.040029077724022,4.923920506672929,1.4743869650716064,1.044888845771522,1.9919738458001854,4.280492606609646,2.7454897517261254,4.13945262396086
1570181661264808.0,10.126650494485324,4.954558554139743,1.4576850709898024,1.0430559659643293,2.0080444431750917,4.37289057128265,2.770345738595829,4.185848885885226
1570181661279687.0,10.199355925548323,4.978332361549719,1.4437969264041768,1.041061483772301,2.026806689819708,4.463698594436301,2.7984436473482597,4.239523490818899
1570181661279687.0,10.255482582242506,4.998573738041866,1.4340823467838242,1.0411259323977484,2.0502743038653257,4.563489332259556,2.8360065045452783,4.301965125741064
1570181661280541.0,10.290840193011405,5.012632176510603,1.4286601910668246,1.0426403561328628,2.076284700414624,4.6591552583442954,2.869525841816097,4.363793701326443
1570181661280541.0,10.295620131458652,5.019116249953008,1.4235520410801292,1.0450915553632243,2.1015567291442117,4.7502296647482805,2.903078957117518,4.411412790849362
1570181661301493.0,10.24296773506401,5.002010709795838,1.414837797956956,1.0460622262899695,2.12197826656282,4.820807161196288,2.9274742675684204,4.440576680751577
1570181661301493.0,10.140599533877083,4.969014945527227,1.4067173545079013,1.048591767992535,2.139919565740079,4.8831204945352775,2.952113048010367,4.467294182623739
1570181661302478.0,10.01507798861331,4.929639591338778,1.40227578321304,1.053114112709869,2.1560780376300013,4.936751672516597,2.9635034337835204,4.501998945359872
1570181661302478.0,9.898949920277364,4.8968444146431995,1.399695524211003,1.060458045347479,2.1716398070101293,4.997185921956429,2.968696477882611,4.549118902858045
1570181661317455.0,9.81833528602702,4.876640599902881,1.3978534251377677,1.0703635814629129,2.1874359781535473,5.05887594669548,2.9682505180846004,4.604100085824114
1570181661317455.0,9.766636163477184,4.871667503397278,1.3953839858057242,1.0839720024421649,2.2053517939803107,5.130980930646169,2.9763979111464605,4.666012579167821
1570181661324618.0,9.715367236192746,4.8678884620947915,1.389517375288909,1.0981589162097214,2.2235062881947654,5.199779667412475,2.9862877212285612,4.73334963401323
1570181661324618.0,9.665830309265212,4.866186352527263,1.380285965609407,1.1122046439149216,2.24157997349037,5.273348550367942,3.0018746834371886,4.801310490614696
1570181661339497.0,9.632191650063074,4.865617389004323,1.369924215799873,1.124516698795091,2.2580069701428505,5.349657273536044,3.0046103627954572,4.847882425281837
1570181661339497.0,9.6090309753656,4.863843881730268,1.3582441829407168,1.1366153036446116,2.2737745135904723,5.4341837171057215,2.9989909437656457,4.869211422933245
1570181661340384.0,9.580545285407172,4.85251477861409,1.3457390695996934,1.14719060335248,2.2911422696968637,5.511231161509018,2.9914477652193887,4.8887980308274885
1570181661340384.0,9.544817472392896,4.836871495493766,1.334458901123478,1.1565093842850458,2.3088121505303656,5.564269261665964,2.9967719176139096,4.916873392296466
1570181661362360.0,9.507524163617912,4.818462018038051,1.3250280323460228,1.1630977112106304,2.3213300884047556,5.559565626847031,3.000730212414872,4.944131382796766
1570181661362360.0,9.482010722521304,4.8098653249276815,1.3172510129706865,1.1687658931468503,2.32925433511113,5.520588712212124,3.0071402537832324,4.969616826992172
1570181661362360.0,9.467045401409155,4.808786076724859,1.3112009158577056,1.1730604010679873,2.330517250722623,5.473639189744971,3.0157457015146303,4.994707565071908
1570181661362360.0,9.456244772199994,4.816705600573166,1.307979465241404,1.1798338186754755,2.3259326721375286,5.43317653472745,3.0365337386391857,5.02383361320524
1570181661376490.0,9.445529045391648,4.83134227073388,1.309008603271459,1.1896832242326019,2.320900294513803,5.390746143370877,3.0582202081708068,5.054898784975976
1570181661376490.0,9.445024645273573,4.852961410730093,1.3128474620265618,1.2022227494073154,2.319428877387634,5.3518783189541,3.0867607074715857,5.087237842236035
1570181661384467.0,9.460844588532327,4.875470704496387,1.315081412691521,1.213890170798431,2.3210057606476946,5.31599800555632,3.1128874609591426,5.11756494592617
1570181661384467.0,9.487130234379624,4.901509587695422,1.3142733808374534,1.2247056637598084,2.3243911649249376,5.286718150813598,3.1406367335784093,5.148467562727089
1570181661399374.0,9.513678062355805,4.924979002878626,1.313635611893179,1.2348280046455826,2.325316880412074,5.256080020753791,3.1614517656545864,5.177216497020345
1570181661399374.0,9.528705612424767,4.941737335370676,1.3154559684122373,1.248070984092646,2.3218386931869337,5.231651394680966,3.179568724462216,5.183890139883631
1570181661400542.0,9.520003027757118,4.943260632090026,1.3176777861317026,1.261392700670286,2.3157655909147374,5.2130867981638165,3.1793363752967605,5.15289624966481
1570181661400542.0,9.509822765517992,4.9444706388025965,1.3183910878119371,1.273641708353743,2.310868764040153,5.208692794396358,3.168003723859607,5.107295348820059
1570181661422161.0,9.522966691056597,4.953427846655322,1.321153337790661,1.2847775036703222,2.3034303024377256,5.201166617716133,3.154924020284335,5.074064745378159
1570181661422161.0,9.56199481209851,4.972793012105204,1.3291488199351986,1.296905059705697,2.2942880430155452,5.1865638977629835,3.1501936881646833,5.058423594516794
1570181661429291.0,9.617803919151438,4.999476096815826,1.3418633757506764,1.3088470941634884,2.2872155593909604,5.163557024839849,3.1449237118009306,5.053011565059756
1570181661429291.0,9.688333484722621,5.038237129736134,1.3574175765596634,1.3227018783512676,2.2836433059329413,5.138099219315868,3.148595502450378,5.055829576331078
1570181661436125.0,9.767262963567438,5.083136210989696,1.3747558869640057,1.3363169661297565,2.2842050985398425,5.115048222662184,3.156409634505291,5.064627160479776
1570181661436125.0,9.849078702589056,5.13329760509297,1.3935327826672663,1.3493639262992443,2.2881793265446855,5.105672518751468,3.174041012250389,5.070604431750989
1570181661444217.0,9.933500322263447,5.183879535341184,1.4122417518194195,1.3617616097710408,2.2902958609800548,5.099537572956627,3.1930173428418076,5.070351503795228
1570181661444217.0,10.026224600716917,5.240382883507671,1.4292076928753092,1.3767179269592795,2.28979530635616,5.093455751126747,3.2182043821432758,5.075192519182079
1570181661459270.0,10.122535614515282,5.299131507986377,1.4445192858717233,1.3936485120952071,2.2889813344153143,5.085147234400867,3.242232574100266,5.0716214547076675
1570181661459270.0,10.213870384959156,5.357668059115672,1.4595225406590893,1.410882174986755,2.289123642132124,5.085929244665351,3.265882062105391,5.039837700853264
1570181661460061.0,10.285726060751845,5.40783361526983,1.4738298074547218,1.4227433830149303,2.2812260748414546,5.090030853184182,3.2763319324148954,4.994206565619503
1570181661460061.0,10.35049116763694,5.457869212867839,1.4870618031167506,1.4304907362375399,2.257004109549506,5.0740347297061765,3.2767702650870496,4.963735504975838
1570181661482204.0,10.429613665014726,5.511528267000068,1.500559970986019,1.4376664657349654,2.222941532006536,5.013875168205796,3.2639833488977104,4.951455559820143
1570181661482204.0,10.517319461576879,5.5697574659903,1.5139769406227033,1.4480340221015746,2.1924200571275287,4.939759804990031,3.2507018730340835,4.950203512521032
1570181661482997.0,10.601325282060097,5.623264536081159,1.5281455662440486,1.4590061794360758,2.1697971954468427,4.878102938742565,3.239115106116119,4.952950564345034
1570181661482997.0,10.688834183935683,5.6730532192573655,1.5450369654093936,1.470361472287891,2.153865206992903,4.83504401119449,3.239262585446578,4.95574088705106
1570181661505154.0,10.785919297534027,5.720711715050421,1.5608486159867148,1.4789732597441625,2.1415348938292973,4.801130831139235,3.243592780726628,4.955986066746796
1570181661505154.0,10.8935447381886,5.775040263137276,1.5738386036475838,1.4855451115525111,2.133762708761136,4.777912927395936,3.252542448128003,4.95752407887051
1570181661505946.0,11.000107598573097,5.828703327408694,1.5881858366089914,1.4920253738147682,2.131412967125755,4.765341692919437,3.259883602683779,4.961823591762849
1570181661505946.0,11.095369993541539,5.879932201349886,1.6042455002759615,1.5014713028515132,2.1338193249081456,4.766015812115574,3.2676810321055716,4.955654633848771
1570181661519948.0,11.167589013627294,5.9237778070212945,1.6203373387455782,1.5112064743369904,2.1394798308128196,4.7713766420991615,3.2561466407114588,4.926274687829851
1570181661519948.0,11.22500400614385,5.964013182082186,1.6345739588973598,1.5193609194754483,2.1494836420561927,4.78108201550879,3.2287032985677344,4.887907055486121
1570181661519948.0,11.291618714048594,6.006942146701761,1.6475459557814536,1.525131558865618,2.161312898480894,4.790294521905748,3.2021177576422777,4.8528819887275985
1570181661519948.0,11.375447839613212,6.060512666272546,1.6616992521579799,1.5303542404278874,2.1744515250191765,4.804800293786683,3.1909665718827274,4.8207818928237245
1570181661542054.0,11.465860131255743,6.117379286694099,1.6733696334817012,1.5320438589179024,2.1907031537112664,4.821312690357218,3.18382214965478,4.7853880329393315
1570181661542054.0,11.560901359928778,6.176494789920476,1.6802088399564266,1.5318782420558281,2.210184663014355,4.842446619686789,3.181247260897489,4.747291491241936
1570181661542861.0,11.656193316082103,6.232137336701933,1.687926405707071,1.5322428569160698,2.231153186630656,4.858578749087076,3.174717100619084,4.718294057075688
1570181661542861.0,11.735500514357335,6.280174960172975,1.700693925565444,1.5349187464505145,2.254190933835386,4.864921516397879,3.1701620849850305,4.70569434753432
1570181661564978.0,11.783301860352585,6.3090785564373215,1.7160920113396176,1.5373107540280815,2.2743373134726284,4.850366346858986,3.1676653752708375,4.700173521740748
1570181661564978.0,11.817792776850519,6.3277545553949555,1.7324592591571484,1.539868500561641,2.2894354580765737,4.820804635317183,3.172003799686259,4.698518478697401
1570181661565776.0,11.857887055602617,6.345832817152811,1.7512945389348042,1.5428566450064076,2.302502154471911,4.791707723045376,3.178242790291949,4.703832992859328
1570181661565776.0,11.879384184026437,6.358574506269814,1.7689801721987974,1.5472865036229533,2.3130105217043835,4.767663012690279,3.1927356637530133,4.708050770843777
1570181661579742.0,11.842637193256284,6.346530195184964,1.7785342324398257,1.548921916849871,2.314126773631307,4.739189589153723,3.2090765833663,4.6891007785803795
1570181661579742.0,11.772694762001802,6.321895418582718,1.7809054761173166,1.54896522035788,2.3075596703456576,4.715436172095747,3.227689528181466,4.648115904255018
1570181661579742.0,11.713644477593242,6.301064377342101,1.784201573464711,1.551993907521707,2.302229650460481,4.698782429130704,3.240677496363589,4.608591731497139
1570181661579742.0,11.656926686307413,6.279261822484217,1.7918153716454144,1.5594945783478433,2.3031740829168887,4.697102063866866,3.259401985434962,4.581988631672919
1570181661601678.0,11.564339362377286,6.236859163709885,1.8007073222937087,1.5664363089114548,2.3088087085425673,4.706137118876214,3.284509731451162,4.566266984428838
1570181661601678.0,11.44938075014158,6.187742736370613,1.8092305053030566,1.5717436663833075,2.318923435626715,4.725360480662072,3.3218330372323774,4.564984237654531
1570181661602677.0,11.363658104355338,6.155611415317662,1.8171658590683106,1.5755104951316956,2.3331387241388772,4.752531723486489,3.3639703625242077,4.576659960477669
1570181661602677.0,11.314735423460334,6.14072026979932,1.8216332105749629,1.5798215256622266,2.349969887759045,4.782950334506696,3.4120811085220644,4.592987560035886
1570181661623619.0,11.27905163234916,6.125827108663599,1.8233624050912058,1.584730037411411,2.3635045623810345,4.793563639601183,3.4519733753239024,4.603699697209721
1570181661623619.0,11.259837517448977,6.1181442400751935,1.8282771036508014,1.5913599861899108,2.373105734396699,4.7844616813951575,3.473139786905444,4.6048319633945125
1570181661631643.0,11.267732749787672,6.1244176623128395,1.8380809393974933,1.596506912991735,2.382210176177281,4.770903543224295,3.4704105817976854,4.59999743994476
1570181661631643.0,11.300872695617041,6.144570179987989,1.8502321870367857,1.601194020002293,2.3948019487138525,4.764561086656969,3.466836178972159,4.60524668296027
1570181661639576.0,11.345857179324648,6.171976357551491,1.8627145123016855,1.6065198346857914,2.410050155473105,4.750452747130624,3.4647252712544945,4.627524503831666
1570181661639576.0,11.395978984645474,6.207795901886606,1.8752241543522135,1.6125832183686115,2.423461187660561,4.7215000454034834,3.461230694004594,4.664313351020497
1570181661646596.0,11.450910750919315,6.246543163421822,1.8889653071947392,1.6169668562003625,2.4332479651777543,4.6888655207009915,3.4535740323521598,4.709295628151124
1570181661646596.0,11.511518099657996,6.28268178612834,1.9042712627951814,1.6226781538952684,2.444798025049795,4.668191893452973,3.454906931218211,4.758524161868661
1570181661661520.0,11.575528398427442,6.310299217349428,1.9199310507551086,1.6317743803148692,2.461307252432757,4.6557059003587185,3.4628792402076405,4.80815193901198
1570181661661520.0,11.641749166655103,6.338822799025424,1.9314759831434505,1.642045904044853,2.482367589911348,4.652112869556459,3.473914091876595,4.851186469305301
1570181661662571.0,11.693860797254057,6.36599069737026,1.9372534933383119,1.6480054334254466,2.501420600681703,4.651574390512101,3.479895683232319,4.881689345264316
1570181661662571.0,11.729793079201873,6.391082073843132,1.9395949586445478,1.6492682315309626,2.513070832611633,4.647470509755642,3.490162054709927,4.899436744840763
1570181661685455.0,11.756405815039587,6.409049649435657,1.9391182297483505,1.6469403903076492,2.5195612210824443,4.633515686571224,3.503601466502347,4.89938867139717
1570181661685455.0,11.77787264303011,6.424206511572589,1.9387770927201848,1.6466361960740337,2.5297690012582645,4.622237002509608,3.523355009088226,4.8923222123173575
1570181661685455.0,11.809730083106674,6.445594614404126,1.9406580075447728,1.6505628457108232,2.546472688105186,4.614974722628453,3.5461916121824695,4.895485747562734
1570181661685455.0,11.86423743878598,6.476060291568336,1.9442287511329497,1.6602048622015428,2.568088551777731,4.604820464126431,3.576227905202838,4.914841284233481
1570181661708394.0,11.931624116597112,6.5028855592335395,1.950362612129258,1.673178185175049,2.593226979927947,4.577792895383374,3.602067338654916,4.9442327096067995
1570181661708394.0,12.009418465133617,6.52980127034304,1.9591352302546279,1.6867166511701024,2.6196200657983875,4.5387937522131105,3.6169319617902502,4.9789806136013235
1570181661709033.0,12.099239572351275,6.5656026859108385,1.9685340784788348,1.6979401645406467,2.6416369833525755,4.5057073572543045,3.604272640626469,5.006942890091076
1570181661709033.0,12.192925659682773,6.610134695268456,1.9750311563568188,1.7088245632996495,2.656542128662423,4.482774984353943,3.565784579186336,5.024432302686876
1570181661721359.0,12.290889406091361,6.6577357876281615,1.9801089814276058,1.7205847231569042,2.663540452412666,4.450388144252633,3.522820205901074,5.040510959358728
1570181661721359.0,12.407919288933895,6.717060680171946,1.9887352902540987,1.734153711216626,2.6665550791641834,4.410900702141341,3.4927188948903,5.051424563367853
1570181661722359.0,12.546336266968233,6.78411360549855,2.0000369783912366,1.746181747033636,2.670776001453782,4.37459432729895,3.4646847130576397,5.054731222894445
1570181661722359.0,12.696018253381855,6.856383505106022,2.012357931995454,1.75555609836208,2.6800369285368775,4.3495220386586135,3.4339782737664466,5.062641710478439
1570181661745295.0,12.830736829853677,6.9266822642471,2.0278339352374117,1.7638180933161778,2.693110542214529,4.334255274064992,3.4007306067626435,5.077552474040029
1570181661745295.0,12.918298908997265,6.982340285766031,2.0455504645565634,1.7742993779918579,2.7095389105610708,4.3308901360007255,3.3677767668384484,5.092342206015905
1570181661745295.0,12.933393038276185,7.00499161163377,2.059965724773607,1.785435415935429,2.726279153038874,4.329768665476538,3.3311292505567427,5.0927186969107865
1570181661745295.0,12.909843554575218,7.00243310029546,2.068926157698961,1.7970920596379842,2.737140169202092,4.328909516797763,3.2973915841940618,5.087131035110096
1570181661759257.0,12.911107416526605,6.999182248099717,2.0779979807257205,1.8087506955169232,2.7420220641733417,4.332540114166611,3.2667498081258612,5.094071672356034
1570181661759257.0,12.94861889370117,7.014948603097067,2.092128871478236,1.8220506606959648,2.747750850680222,4.346666928284102,3.2441922992890477,5.118306673592076
1570181661760253.0,12.993042983858583,7.040926634224152,2.1105254553025077,1.835368290937943,2.7531152876080975,4.3627714098424555,3.228347761998478,5.157771139553193
1570181661760253.0,13.041090417958682,7.072449611408107,2.131995887353242,1.8456798248512967,2.7492934787672154,4.374037049729871,3.2191701633408507,5.210766080869397
1570181661782248.0,13.114359667157867,7.110432414034184,2.157303620876831,1.852989939893631,2.733586957448896,4.37659610497863,3.2149821014530913,5.268440320664846
1570181661782248.0,13.208970111552782,7.157879134523948,2.1854490149097803,1.8610297472127761,2.7121669364613883,4.3846006578646906,3.2173962483328222,5.317470538389607
1570181661782248.0,13.31190703768442,7.215621293744655,2.2145222540239007,1.8687007728063938,2.689209759002662,4.401750042498021,3.220976121844393,5.353390824419768
1570181661782248.0,13.422016801295642,7.280055079099619,2.2451494775298624,1.8771386188023815,2.6658777229527773,4.423299485895855,3.2166705577809,5.373395524901979
1570181661805135.0,13.526260899304095,7.341374008106081,2.2789472324200664,1.8885561725192275,2.640590222695282,4.437477503554354,3.193476603170142,5.374461884924234
1570181661805135.0,13.626413700484225,7.3988992274205865,2.315263745467033,1.9041606377750302,2.614529104249846,4.45024920434665,3.169238611439948,5.377026121135809
1570181661806135.0,13.718314052799057,7.4497346982053845,2.3491394706115125,1.9194573579485714,2.585976634721363,4.4536849907931195,3.153575843274057,5.384394124915579
1570181661806135.0,13.802618694322845,7.502116450536066,2.3774442164853085,1.932455585382016,2.555874797962259,4.444233199579838,3.146981063963923,5.390530753897782
1570181661819097.0,13.879767570523887,7.5344434345717755,2.39452152772674,1.939255067718523,2.5268268517128853,4.426386973529699,3.14370597861129,5.394289052573645
1570181661819097.0,13.937871663643115,7.521225981632553,2.3849012363684587,1.9299005475490731,2.4912252001113293,4.409152243057615,3.133413096051158,5.38921123284437
1570181661820100.0,13.994625454364433,7.488475588837485,2.3525607141183866,1.904350658287249,2.4466391308299626,4.39577976354293,3.104525729997303,5.3797523309323205
1570181661820100.0,14.064725376231886,7.476935730322171,2.3212772280738356,1.8787532136848748,2.404381452383548,4.393928679040821,3.067792108654868,5.37445271273545
1570181661842213.0,14.125068987506928,7.480129991860532,2.297077650831436,1.85899630066949,2.370442051085223,4.400538128319642,3.0347247310838474,5.3708422593310345
1570181661842213.0,14.174664252681591,7.48955359727124,2.2766203589578016,1.8422882773811278,2.3445691700930245,4.419756601403835,3.0116005556239065,5.374609840979702
1570181661843036.0,14.239073804541555,7.511102491665401,2.2622889084682782,1.827116325580296,2.325513353446485,4.446392398126856,2.99109936918268,5.38940281318147
1570181661843036.0,14.331825223546808,7.54866682827642,2.253426294659463,1.8138183931485516,2.3103730057314387,4.473855829067692,2.9720936730529104,5.4094907154190075
1570181661865991.0,14.435128698274664,7.58394530537995,2.24515091389006,1.803822806198045,2.2938565642155746,4.495833583015221,2.9567712112131814,5.431141369289127
1570181661865991.0,14.539679660182033,7.606705090590878,2.2320566564414315,1.7967032786408903,2.274968090139916,4.525122455306678,2.9506075014570445,5.462965549842678
1570181661865991.0,14.659011872720196,7.630930018774802,2.2138017533645535,1.7882290370878895,2.252735562648988,4.564087474921154,2.9500867211300417,5.508449829244406
1570181661865991.0,14.785320506532305,7.672343957602758,2.196013208805353,1.7802983461385873,2.227506848196059,4.61144914296126,2.953671507523789,5.5594359094291255
1570181661879936.0,14.878570806607005,7.715485266077441,2.1817917083388854,1.7740398035163478,2.2044177990209173,4.656490154572647,2.9518648443454323,5.597210347731159
1570181661879936.0,14.934592802416828,7.751515389223973,2.1707944831227293,1.7667421435726063,2.184595457018404,4.68916401316052,2.9447225517377675,5.618304008974902
1570181661879936.0,14.991868090320784,7.787131312132453,2.1656063608490403,1.7595305962819077,2.1668377404901675,4.703384701948577,2.9338681191983556,5.636638718384441
1570181661879936.0,15.067907432164768,7.823101201178644,2.16394454987451,1.7541913974248529,2.1530818319149234,4.713153002333803,2.927217606642071,5.637061094373836
1570181661901885.0,15.157630907085087,7.853609575893226,2.1613788283507467,1.7473246661741455,2.1414329891467263,4.716708947179315,2.916873188660856,5.59312032693017
1570181661901885.0,15.24635267817217,7.878917943145655,2.161642951237607,1.7395730312938482,2.1315749442307195,4.719596930148323,2.901516877941832,5.527086017166671
1570181661902872.0,15.303219665620844,7.897420965791632,2.167645929438129,1.731450534132702,2.125210844659761,4.728662486258783,2.887868722535709,5.468122755868353
1570181661902872.0,15.286994163198644,7.915212078399234,2.1760716415240906,1.7220662400591213,2.122625306712171,4.750014969535432,2.884291035844282,5.412760774096425
1570181661925350.0,15.163313250252246,7.9167971615593355,2.1787181066273025,1.708097884883222,2.1200427656456546,4.77352547295974,2.8867445883690817,5.351684785908706
1570181661925350.0,14.97479794450879,7.886478835814404,2.168414001751315,1.6854476589067648,2.1170051644791394,4.79481945398383,2.897315789983633,5.29596243904113
1570181661926048.0,14.800323106774698,7.833949546609815,2.1472751530973966,1.6576655825354394,2.1175396339670036,4.81024649032676,2.9089753384690527,5.258732024610579
1570181661926048.0,14.645349304446567,7.776287374093276,2.122838318509982,1.632639131487975,2.1221744713401507,4.822275195654049,2.9213639642696028,5.2375565577039325
1570181661939954.0,14.482496680077878,7.727389542224639,2.1014842144101986,1.6124462044684928,2.1259560877703354,4.828972022907972,2.931589535366215,5.22644285545271
1570181661939954.0,14.319165596587338,7.695663138597004,2.0852839105981182,1.5958663428353037,2.128384750702664,4.835233314381258,2.93984701684067,5.227268580563714
1570181661939954.0,14.175672595897232,7.677459110553713,2.07377333145217,1.5806069051309293,2.1309201654832464,4.837524074867954,2.941851908469046,5.235757208658203
1570181661939954.0,14.065785703336273,7.677442193194387,2.067755338347811,1.5670496107715643,2.1304203633253835,4.841791424409022,2.948295502357063,5.246740759809506
1570181661961938.0,13.987686536170969,7.692927582659382,2.068644597433337,1.5568418976491931,2.1266935947101087,4.854764606440185,2.96038326042424,5.261063483860463
1570181661961938.0,13.93678825539803,7.7207161621884515,2.0745550024788173,1.5498929552799658,2.126285924351977,4.879703254013108,2.9791927234417086,5.2848138996828
1570181661962725.0,13.898982724527176,7.748818682225589,2.081205189981967,1.5449109690916405,2.128516554582987,4.900297159213919,2.999606920452878,5.318352038215642
1570181661962725.0,13.855854082978228,7.753838545711613,2.084771722909786,1.5430216890093587,2.1289665027343747,4.910227960864801,3.0280253512519746,5.348854382172825
1570181661985793.0,13.818843413534049,7.737772932101168,2.080969002990577,1.5424672000086137,2.1239004221735454,4.917023778370525,3.0581301062285355,5.355694336797026
1570181661985793.0,13.80495233894052,7.723223101055207,2.0700513238976472,1.5396247237245724,2.111725136933762,4.924566987301527,3.0896421272789443,5.341079543673773
1570181661986655.0,13.81203042334488,7.714994135368318,2.0583288928579275,1.5338201229324844,2.097858200957704,4.9172028034734705,3.123070033535221,5.32585379132604
1570181661986655.0,13.82083781487732,7.712736822150684,2.048954824580107,1.5275249303038745,2.0897663870771694,4.901553530176205,3.1647060574727877,5.321066731771297
1570181661999664.0,13.806774639773092,7.70781652029578,2.0384582642784648,1.521374622518669,2.086071042165025,4.884722891902636,3.208392770599485,5.3264445322916405
1570181661999664.0,13.784425760062442,7.7008310251616985,2.0243368409118894,1.5166359231399438,2.0861832291753855,4.867219833303936,3.25462021250792,5.338286368788368
1570181662000613.0,13.778859236767838,7.699907976262386,2.00995327218033,1.5137212418435901,2.091060414378585,4.848485526783405,3.289623076976804,5.327517999230909
1570181662000613.0,13.775741736454613,7.705363801177605,1.9988347356417542,1.5116515772527597,2.0988240801327316,4.835694197046484,3.3153303196864727,5.278828496573065
1570181662021564.0,13.74628838700032,7.709366498178568,1.9894557777586042,1.5081209300093847,2.107241379795952,4.832901332685109,3.3425865560666366,5.221199894766406
1570181662021564.0,13.698134756443968,7.715357681109553,1.9799429910079571,1.5019279156248402,2.115840435109948,4.844495844243321,3.375422736386304,5.1743366924178975
1570181662022558.0,13.648268687783805,7.724727026650389,1.9721720681218935,1.4954779140349825,2.1239720496764924,4.852621717190734,3.3987836502796624,5.1286998674918065
1570181662022558.0,13.574423172807707,7.726036086494101,1.962644758029709,1.4938558546156289,2.1333419584934536,4.839517534966568,3.412105483993958,5.06871068369108
1570181662045546.0,13.466376058091763,7.717961672037286,1.946120323932368,1.4968427244860338,2.1435624039667376,4.811438055056512,3.4164280629142465,4.99867558423424
1570181662045546.0,13.365448559877054,7.724241418683288,1.928281054618314,1.5024432779195662,2.156510624042638,4.791626085308922,3.4197763908574843,4.942141522251135
1570181662045546.0,13.288821374512116,7.754343312449448,1.9145109284404105,1.509287320785189,2.1728521495891124,4.78477458542217,3.418793353242486,4.904595227712897
1570181662045546.0,13.224375708381519,7.804947413298907,1.9032760247061657,1.5166183935829245,2.1913583751702874,4.794443312650358,3.418802875781675,4.878428451280564
1570181662059477.0,13.179138404685103,7.871773345979088,1.8925421988804798,1.5223923670111448,2.211795985725249,4.815798515006119,3.417359720957982,4.860530565111174
1570181662059477.0,13.15915392073037,7.943560396895452,1.8824426889601082,1.528585068726041,2.2337890698926786,4.8474931124141065,3.4186391727389283,4.853565659803211
1570181662060451.0,13.15393835283682,8.008334792986165,1.8747902975664936,1.5375871155321452,2.2553763278680017,4.885329024248775,3.4210964112483566,4.852527259333883
1570181662060451.0,13.158339859367647,8.065083027658524,1.8681510635211271,1.549900158377611,2.278480630030552,4.923893977052226,3.4266364371340665,4.852649869859289
1570181662082485.0,13.155480286417312,8.097985805633188,1.858560410377305,1.5605687066273866,2.3016242126477664,4.954484509392488,3.435477268068861,4.857619679257902
1570181662082485.0,13.127253389563577,8.103243626303902,1.844582902563345,1.5671819459637322,2.323349014353008,4.98393587992611,3.452266180760639,4.873666282230312
1570181662082485.0,13.103499017485195,8.108710746484798,1.8304690389624532,1.573768372581875,2.3467722273373797,5.012300711753423,3.4723203110108423,4.899538311164851
1570181662082485.0,13.106601188529917,8.121422773169478,1.817622184677548,1.578727442847443,2.3748155853417634,5.024612459064977,3.486091204167263,4.915913988681161
1570181662105663.0,13.132229543229672,8.133536432852386,1.8020703511746283,1.5777545210991792,2.404892410734282,5.015201214439987,3.478843126172124,4.896469799879242
1570181662105663.0,13.18873600795982,8.160961428980608,1.7853002880016806,1.5760834494808826,2.433946896667404,5.008759754619629,3.464744720331171,4.851494823033948
1570181662105663.0,13.272341401700265,8.203747610396174,1.7701938299614053,1.5755859267119807,2.460051915336164,5.013567904604227,3.4580935099943217,4.808806658890369
1570181662105663.0,13.364340914395871,8.24668823467956,1.7576137796087754,1.57544906858511,2.4817899447227973,5.032326771485751,3.463290143446794,4.778648827779511
1570181662118347.0,13.448372050021776,8.281024200231547,1.7483112051995409,1.5761734430187273,2.4966667276953722,5.052751485752345,3.4724134382577545,4.763473151564279
1570181662118347.0,13.530844839196208,8.307429334448772,1.7411119601023144,1.576617612259584,2.5038555840256196,5.061850880597013,3.484040348685894,4.762289799005515
1570181662127328.0,13.617610008719847,8.333310545648624,1.7360172034437846,1.573521049150839,2.505303740146339,5.067401843646368,3.4954220656209363,4.770353299269112
1570181662127328.0,13.666946186324274,8.348589354594171,1.7318707982207076,1.5647199487993273,2.504370716011969,5.078272425303978,3.5003607987466774,4.78343964353381
1570181662142303.0,13.658327539002169,8.336433718040622,1.728146511529645,1.5499672694292856,2.499629886414029,5.081271912244187,3.4895552924898148,4.798446978434209
1570181662142303.0,13.64511612201123,8.317460038241045,1.7279387250077374,1.5350476528776698,2.4929400153794052,5.078456023002988,3.4774792070924434,4.822384459688513
1570181662142303.0,13.665152696031132,8.308765623200323,1.7307951168514293,1.522054781511911,2.486610737139108,5.078881817762777,3.471887180208454,4.855067329750761
1570181662142303.0,13.710012796601978,8.306413750481193,1.7361016533847047,1.5114035694264445,2.4848255656287277,5.081864274693358,3.4682374797232978,4.890637551999539
1570181662165406.0,13.775072591115418,8.31132991135841,1.7469878818120603,1.5058161859064765,2.492112290873914,5.082623207256877,3.460567864453223,4.922606378892083
1570181662165406.0,13.87193615496517,8.330345017742358,1.7646297602636931,1.507051806883608,2.5089047871305823,5.090873844467815,3.455381752520245,4.946416563216302
1570181662166171.0,13.993525805020305,8.360993423202371,1.7871509908390997,1.5142521820173207,2.5313808336237704,5.106206047647321,3.4531655452076477,4.965671763593263
1570181662166171.0,14.119152155946537,8.399242021137422,1.811153699294692,1.5273269019929854,2.554114247312451,5.118506064483643,3.4564753592347,4.989765691564616
1570181662179188.0,14.254167054263457,8.45105063894424,1.8341791240156322,1.5443866151809034,2.574582213229576,5.117052510046083,3.464917882540657,5.019624993030492
1570181662179188.0,14.413965460391367,8.518271162452876,1.856970227552835,1.5646622876055232,2.59857242766105,5.108215032545161,3.479980976007621,5.050343465296449
1570181662187116.0,14.607054084910645,8.602883069080866,1.880745812703771,1.5864397113818856,2.6293695001982473,5.101671068848409,3.486983357995323,5.069326109832472
1570181662187116.0,14.840820887237559,8.713517407408128,1.9067895073345738,1.6082468520921902,2.6666371534223794,5.104910629210541,3.476611089812932,5.072212535804408
1570181662202104.0,15.113240323115107,8.846466939062962,1.9378260615119653,1.6291529028062295,2.7091457963086847,5.119845604840707,3.45844177617335,5.063228839101054
1570181662202104.0,15.416807622750428,8.995424707339346,1.9737225315608073,1.6507971247940798,2.7562621762715103,5.1506593179847036,3.4447220481049063,5.048249536850669
1570181662202104.0,15.744248641217416,9.159334673394982,2.011788612421664,1.6722419440990381,2.805877502928406,5.193678757039779,3.4308584247415084,5.04211128434302
1570181662202104.0,16.061592731795972,9.326190404840105,2.0480859473568533,1.6911654543382346,2.856443258469067,5.241713388530334,3.417357606275458,5.047557579670457
1570181662225255.0,16.3351575443475,9.484727749903888,2.08198741700533,1.7079521911805848,2.9022216815493187,5.261313706200207,3.401166994679158,5.05669729028022
1570181662225255.0,16.565724726983028,9.63047069554986,2.116894063417301,1.7234499749324792,2.9409532243689798,5.229447920394703,3.3739622940709038,5.074795027752164
1570181662226017.0,16.705296609959273,9.71988008831113,2.142728885686508,1.7315182791010921,2.97618211051917,5.171652179434082,3.333083341883198,5.095255231532022
1570181662226017.0,16.72142995452151,9.733971693845197,2.151550118337573,1.7328343622292215,3.01196766207683,5.115527041171431,3.290255765888914,5.109198157290857
1570181662238978.0,16.693953754088703,9.722529903398632,2.155748320607521,1.7344480321301157,3.0514901467366706,5.066625623603478,3.253659331372775,5.119495057661944
1570181662238978.0,16.694208116154876,9.715219872325072,2.1625162015376325,1.7387379997942751,3.0950043821750817,5.022618310701343,3.2285178406792077,5.130271459408139
1570181662247145.0,16.710452658308164,9.700287353217,2.1691739143721813,1.7451917062498385,3.138750369656879,4.976904412669392,3.2108251724431174,5.138212340309052
1570181662247145.0,16.71696598741136,9.66678494030344,2.1770970389608535,1.7560328220987438,3.1837168785537284,4.936990511890012,3.199967944716174,5.140766645099908
1570181662262918.0,16.74051643667371,9.628875230872774,2.190671228753774,1.772211310632034,3.234237385247386,4.90654511597003,3.196427888381123,5.148165040590404
1570181662262918.0,16.80137697759013,9.599866459577765,2.2076318500611145,1.7921049554149795,3.2896131335193046,4.878801356544645,3.201257336819407,5.167237453456189
1570181662262918.0,16.835833529986594,9.56586569712517,2.21922085773683,1.8104862096736027,3.3453578078039516,4.85046033910798,3.212852911801942,5.187255974403279
1570181662262918.0,16.794100001772595,9.510410431030232,2.2209167956368856,1.8276677752928954,3.3951126328848753,4.828020741544617,3.2343783964020316,5.195072537973311
1570181662284858.0,16.715785553921137,9.437307044562733,2.2156335693827707,1.844243201826597,3.4133323997100784,4.814246227049228,3.263368263363257,5.191074769876995
1570181662284858.0,16.632241020794503,9.364873087947608,2.2081773319304734,1.8589285867134884,3.3916950122771707,4.797359691852035,3.297856248167895,5.191345888437782
1570181662285979.0,16.54355773906466,9.291267278006037,2.199180492829743,1.8747619604332544,3.3627399478980364,4.76874518281101,3.3319760835656025,5.196355167167404
1570181662285979.0,16.447074415086398,9.197953383323004,2.1885284916266277,1.8919545228209356,3.347695389948761,4.7432116540138045,3.3612916839724507,5.1960051449135936
1570181662298859.0,16.339958817012466,9.091334480396679,2.175097464208476,1.9015068916351772,3.3324314083706903,4.7273289098546565,3.3724467976039736,5.1883940494275596
1570181662298859.0,16.237129660288446,8.986490509791329,2.155982983003557,1.901537254292942,3.3037990152009087,4.714257754143983,3.3639076974535453,5.161286872142173
1570181662307009.0,16.138817268132232,8.889693171338235,2.132160254699916,1.8982698079099718,3.2686158567849803,4.697616898485092,3.348347584338848,5.10286653384591
1570181662307009.0,16.023748792731748,8.793761055247655,2.1063395477902223,1.8943620888888566,3.238043845022268,4.677323776255988,3.3356831575182695,5.033916711899377
1570181662321753.0,15.913562303912638,8.698402524780631,2.0812034880808534,1.889591704282759,3.214911821133691,4.656974504075075,3.3220174562199465,4.972667649758647
1570181662321753.0,15.837298208120268,8.616897870327097,2.06046160101181,1.8880044863768746,3.1993205809901557,4.643070073180702,3.308576528472533,4.921908148495542
1570181662322749.0,15.752611276271937,8.550941538162755,2.045932969407471,1.891789034435551,3.1920114872553955,4.6376450821991275,3.2948696678614477,4.880919932021813
1570181662322749.0,15.599112497750603,8.481619785226025,2.0326456398314496,1.8967327880880527,3.1880050591648326,4.643105144628008,3.2780392767178954,4.8493912004994595
1570181662344691.0,15.394416078017668,8.40194770694204,2.0156354691161513,1.8961858010858001,3.180893874397638,4.657963874641409,3.25952494152157,4.828069847738991
1570181662344691.0,15.183305921188108,8.318847044236845,1.99872353964029,1.8898322366383644,3.1724402406513525,4.670755607839064,3.2449736205888406,4.814156950936197
1570181662345728.0,14.970812614532328,8.23422770314462,1.9838745488896647,1.8815505884785066,3.1609471987394424,4.675029435641585,3.2331732896061647,4.804559428150104
1570181662345728.0,14.767109912078261,8.148071580508846,1.9661414632924468,1.8731828944551996,3.1341792841378306,4.685268368806819,3.227967851978236,4.802628397507949
1570181662358763.0,14.58079142602432,8.068950361154409,1.944304774698051,1.8635893520555722,3.0872719396464032,4.710475071226248,3.2278503688640874,4.807282221984822
1570181662358763.0,14.396158085165666,7.998384341594317,1.9220991205250069,1.8517888599923438,3.034442288765207,4.744343040908333,3.2319214989303338,4.811602880435279
1570181662366631.0,14.219636630010179,7.937397878850763,1.9014109630467273,1.840615403673116,2.985114702114895,4.774286506437949,3.2420437109294435,4.815857537599686
1570181662366631.0,14.067968187911733,7.888037588538392,1.884138753421588,1.833912790442276,2.9404171612032863,4.798158065939653,3.258769407796443,4.827625390780568
1570181662381636.0,13.946105845101647,7.848887384584373,1.872350867650424,1.8288214366983893,2.8986601035679285,4.818464521901065,3.2789115613331474,4.841990391310335
1570181662381636.0,13.851250370941548,7.814482108431274,1.8632259071825439,1.8185229093784616,2.8518225330184928,4.833940830089143,3.3004407864273895,4.84123457469077
1570181662382588.0,13.769236885758747,7.785949715153778,1.8527833279714445,1.8028839753486843,2.8000377607646527,4.838490916063038,3.319540373581442,4.818906654669469
1570181662382588.0,13.684515924657143,7.764382879499354,1.8389551547682612,1.7846082244318269,2.7518961670148028,4.837495397445401,3.3225936944652963,4.775286850179851
1570181662405533.0,13.607170772888711,7.752458115877741,1.8205430338412052,1.7645190210553072,2.7088873786315264,4.839123332506235,3.2942254773880566,4.7107848296819945
1570181662405533.0,13.541352529804989,7.7415380556987365,1.7992484644152797,1.7463165007678536,2.669862923502651,4.850559926447224,3.253249967061094,4.65087485740708
1570181662405533.0,13.480158628291475,7.7246679620599235,1.7768986199043662,1.7294490202616055,2.6376176581435744,4.874446740126344,3.215872984415532,4.610350833201841
1570181662405533.0,13.423267106735173,7.70424676021017,1.755311797439742,1.7086463064072743,2.6138853867349185,4.903874063677468,3.175864765972229,4.568259605090604
1570181662418496.0,13.3706262818461,7.693694429378658,1.7375253532448913,1.6864819535486186,2.5963626169583707,4.923819476947461,3.1299536469838265,4.51058363665366
1570181662418496.0,13.318541926246459,7.69149022269651,1.721753725263058,1.6649579489894435,2.5799933026258426,4.920067466541533,3.074949336872299,4.4551414356875485
1570181662426697.0,13.272146611437982,7.686791747725128,1.7048412396492219,1.6412208748186743,2.561894013747299,4.890273012072217,3.011401332563163,4.414103510712879
1570181662426697.0,13.238305100025952,7.690568212264399,1.68854645919763,1.614600030363072,2.5451283999192813,4.852284194328865,2.9516124532619195,4.385364871118801
1570181662441650.0,13.2195146260605,7.721064859906501,1.674882867725025,1.586849289650992,2.5324430044511783,4.822954988026482,2.902496720750935,4.363311508415844
1570181662441650.0,13.210488432488244,7.772235987741946,1.6638881701849082,1.5605342965213405,2.521674258949347,4.800978272997965,2.858943157907532,4.344052975636793
1570181662442897.0,13.19797235875063,7.829468340709428,1.6555654003882605,1.5380140146567405,2.507867622910292,4.7733837698832895,2.8168807442631176,4.3317193886700185
1570181662442897.0,13.185299959449027,7.887707710122739,1.649916827937609,1.5192934234343705,2.4912616901340887,4.7371728671271445,2.777191197667142,4.3249172713132165
1570181662465477.0,13.188839244405685,7.956996108340585,1.6470068502872723,1.5047450698186657,2.477677209042727,4.698043813199129,2.741734104857074,4.318400966840405
1570181662465477.0,13.197267194598517,8.032927937615053,1.642968436086951,1.4924669835900128,2.4659093292195515,4.656687023503674,2.7115468295083436,4.319284559227936
1570181662466370.0,13.183719858608878,8.08488983215558,1.6336303309829465,1.4794475960661657,2.4530201713776716,4.6158915145087205,2.68537416804628,4.332384246081132
1570181662466370.0,13.143039500448708,8.101616196093007,1.6226835518030782,1.4671521094188402,2.442034074565636,4.581329889143638,2.6645187064964606,4.355617669470222
1570181662487309.0,13.097063963032939,8.117656286668678,1.6132325208251794,1.4562168934371633,2.43578320659588,4.555989721142811,2.65152091372284,4.38234983320518
1570181662487309.0,13.055095960216677,8.149863500816076,1.601388671610787,1.4413759669101156,2.435145249218228,4.543711489927697,2.648610398983999,4.409981756409241
1570181662488306.0,13.011512627026633,8.184667348599024,1.5858671392554244,1.4230452716856994,2.440029988235785,4.545545825952775,2.6546418112449612,4.43941769861868
1570181662488306.0,12.968675446684863,8.217354467037081,1.5704807743803015,1.4038489698081953,2.4523315956983818,4.551624893111101,2.6637315804031996,4.470225021940254
1570181662501272.0,12.935323405576726,8.2617952196069,1.5563433469930152,1.3849130853311324,2.465123876560158,4.543476088687799,2.6684063143608463,4.497480444824872
1570181662501272.0,12.899302105716146,8.305516080271678,1.5404905320882434,1.3680971426216444,2.4662644406721212,4.509098131100726,2.671590899838821,4.517593552450512
1570181662502268.0,12.844957031912566,8.32288134482891,1.5216494872712207,1.35301681053559,2.4533714084484233,4.456870675127412,2.6661740257152178,4.5346887889074425
1570181662502268.0,12.783078381829055,8.31990995300959,1.5036309186997283,1.3363882291394835,2.422621549875414,4.401847796865472,2.6441686445568475,4.560174497313078
1570181662525211.0,12.724747452995722,8.321094382354834,1.487546766509845,1.318007024882338,2.374195255022867,4.3520922167267635,2.6176297480033335,4.593165359406893
1570181662525211.0,12.667571524597799,8.33586589127112,1.472352669337794,1.2984688690953066,2.320645825190839,4.308383629199333,2.5964909637214895,4.625413789457658
1570181662526205.0,12.624355105389682,8.370590506839536,1.460003712595965,1.2788265598526973,2.271577708652585,4.267918199124057,2.5776804790949233,4.657140808072787
1570181662526205.0,12.58420665960763,8.403096852569416,1.4515491017799549,1.2598894796876843,2.2280611819445024,4.231336028914934,2.565027957431524,4.69558448442177
1570181662547679.0,12.52248723371052,8.407732174263382,1.447015077814008,1.2418825601129697,2.1891387400012436,4.204741826435671,2.559955925091421,4.739409777633275
1570181662547679.0,12.437723378780408,8.386052471806432,1.4424115759942782,1.2245980596762673,2.154812016710898,4.18707170809371,2.5586102506221584,4.779832559130204
1570181662548266.0,12.32824081417006,8.34555914309783,1.4336587022259033,1.2081429256627199,2.121212460565546,4.171331284059229,2.5519432431030213,4.806845949697371
1570181662548266.0,12.199506266590607,8.28354923842277,1.423658507978494,1.1933402898178935,2.085808466154087,4.157473028998583,2.5356401526591967,4.810500128447019
1570181662562357.0,12.068557627656016,8.20753323430623,1.415398368592838,1.1794816244072526,2.054308367982654,4.151357207079224,2.5086399632316114,4.793899492283266
1570181662562357.0,11.944291698910964,8.130972146086252,1.409881923178437,1.1651746030025123,2.0290328303582172,4.151958312414698,2.4786307151153677,4.779221644422746
1570181662562357.0,11.840607754777839,8.066177455447749,1.408076170080569,1.153443420492498,2.0041934310393543,4.152137543153879,2.4523870140897297,4.772787414071216
1570181662562357.0,11.754999159129575,8.006308416222982,1.4089193874857873,1.145409071920476,1.977315309014689,4.155284937407446,2.433547579374937,4.770639221491764
1570181662585106.0,11.667520669132058,7.9405711918774635,1.4113520198023757,1.1402225382003173,1.9522717365438436,4.169893150396784,2.421604661597275,4.769598021256596
1570181662585106.0,11.562994626147704,7.858012376796993,1.4133180311071667,1.1377834022162303,1.9272430566334293,4.190817283187163,2.418392783529168,4.768462259786481
1570181662585959.0,11.450813305003408,7.7642546176883505,1.4119068540532682,1.13716185545023,1.897010982727117,4.205006155204053,2.4208682434112916,4.767256107793105
1570181662585959.0,11.343210908874589,7.6686451525303125,1.4082381307806056,1.1362466263740079,1.863926661132533,4.216428813929163,2.4281544547511653,4.760823237331404
1570181662607895.0,11.237378288047198,7.573183744707591,1.4052829053654585,1.133983543607309,1.8339562384110646,4.2365088725203535,2.4365119972032163,4.746199498621
1570181662607895.0,11.13242022321413,7.472691829523722,1.4039531564735543,1.132263582693034,1.8072759239543592,4.2681808279794575,2.44741008169271,4.734128111711049
1570181662607895.0,11.037869498954416,7.372174169790926,1.4041910878323451,1.1331243565408373,1.7818813028236413,4.309483927208541,2.4544337722114187,4.734114792841058
1570181662607895.0,10.955210404539235,7.273063579411804,1.405878107139239,1.1345847565351903,1.7576324299492376,4.336953124401795,2.45384061295678,4.7447380610117245
1570181662622070.0,10.878222960569953,7.17885256883354,1.4049578864229049,1.1307191453564127,1.7335142844183404,4.31858614939965,2.449778859394193,4.76098313115513
1570181662622070.0,10.782623109353954,7.084768532201811,1.3977578064077896,1.1194251691604047,1.7083467605641038,4.270205365039115,2.4528199595819866,4.78515058019743
1570181662622867.0,10.673554717049566,6.9976653470676515,1.3894348418246862,1.1065404830254388,1.6830314043237384,4.226316528202022,2.4625006551745803,4.814399170840308
1570181662622867.0,10.571767329935103,6.919843071532548,1.3837478626670332,1.0960367143361769,1.656505830982045,4.1923622090668715,2.4798785809362607,4.8451116662814
1570181662644848.0,10.461641789079403,6.837369339466057,1.3796039540202996,1.0879456432416073,1.6266288903457544,4.160161501741088,2.500859768461013,4.876681713644609
1570181662644848.0,10.329965387517815,6.742365238018248,1.377908096111032,1.0812427434151421,1.5951932681981469,4.130762123694891,2.513380385246202,4.898356383305032
1570181662645757.0,10.184331545140319,6.643847506309023,1.3764503358080635,1.0738955721455328,1.5641777949482445,4.110880949725323,2.507860411110007,4.901920085056554
1570181662645757.0,10.030466931587563,6.542536435539009,1.3703835246701996,1.064900604404531,1.5355901195532873,4.100449339224931,2.501819616969504,4.902541949879522
1570181662668225.0,9.874297162568537,6.440656223505457,1.3600216788592887,1.054234010253843,1.512504457406342,4.093178676575806,2.496278337014443,4.895959543322019
1570181662668225.0,9.71456472147028,6.335554134818123,1.3493849496671961,1.0429429723607524,1.495915986964501,4.083305475379291,2.48667311660076,4.874191647252142
1570181662668225.0,9.552763705895588,6.23110027692657,1.3403280381231863,1.032987277506056,1.4846286415217924,4.067776697404263,2.474096896545542,4.855910725227351
1570181662668225.0,9.391607104056972,6.127539428259979,1.3327971533991365,1.0243943621434644,1.4754286552997242,4.0519508259146955,2.463595403350725,4.851481368453467
1570181662681880.0,9.234817841606878,6.028347412641822,1.3277776048205014,1.0171738613299874,1.4652621084789936,4.043436308920581,2.455625646336685,4.854717807977288
1570181662681880.0,9.082064832485038,5.932278007032915,1.3260992571249477,1.0134046459577246,1.4553125968020764,4.046271714749252,2.45195806805183,4.862934471264997
1570181662682689.0,8.932744018561932,5.838078319609356,1.326556643765936,1.0128056245529218,1.4473939646139293,4.0605892866601865,2.4438899202215656,4.875162025223986
1570181662682689.0,8.784778414825348,5.739207898688467,1.327078208343619,1.014430272770374,1.4404324431915247,4.07234198754286,2.431808883996502,4.889332472451546
1570181662705029.0,8.63859416063656,5.63790333261173,1.3257970895127875,1.0180260562706298,1.4344704968826854,4.063149851143718,2.4192346416480337,4.903580626760888
1570181662705029.0,8.492105596615012,5.536449445253876,1.323032400406418,1.022616097644553,1.4315043420144875,4.044257953467966,2.4162972080549325,4.917956215420431
1570181662706088.0,8.348453503243597,5.439086328404504,1.321893037151048,1.0270763427820526,1.4320146018736768,4.033852413784156,2.4204050310589658,4.933570867372759
1570181662706088.0,8.209015287415767,5.343017679414422,1.3240820675886709,1.0317072390020785,1.4345086546492158,4.035575449562013,2.432076469561858,4.956446653211983
1570181662728012.0,8.072839717959281,5.250858825266134,1.3283474106491955,1.0373393594295492,1.4343898622860405,4.039488993677754,2.4502604454758696,4.983083664871383
1570181662728012.0,7.936187516511135,5.159372091608471,1.3337317546572436,1.0448669051989898,1.4253101595760957,4.030516029507933,2.4772812133956994,5.00911586269665
1570181662728012.0,7.800984323866784,5.071288984404801,1.3411583518715928,1.0516676455169958,1.4077440980877056,4.011135091550992,2.506135713834949,5.038036928241789
1570181662728012.0,7.667899427908306,4.986597104525658,1.349234089600136,1.0543207401435652,1.3894170503927852,3.9956780054922048,2.5386512073139644,5.072585022898505
1570181662741941.0,7.53422349018441,4.904391241406669,1.3541629745715233,1.0535235250057091,1.374782413868577,3.988230846130488,2.573207505006288,5.107587279466617
1570181662741941.0,7.3979520485896035,4.821132934732681,1.356506912691434,1.0546267821456161,1.3654025054721226,3.987977267630223,2.610318725509377,5.14530629091137
1570181662742923.0,7.263985961796931,4.741079930013991,1.3582111949560993,1.058474036141212,1.3603225704040416,3.9923210697213523,2.6414433224468397,5.192004951797218
1570181662742923.0,7.134274591845673,4.662970514172955,1.3582268919759637,1.0609202806868359,1.3562357168105308,4.003786169030966,2.6653324717831968,5.249165500727873
1570181662765176.0,7.008013068594414,4.5879364706507175,1.3568225029423278,1.0594653302163524,1.3513304947849787,4.024049162822614,2.6786947665897314,5.314577958666118
1570181662765176.0,6.885086683378277,4.513356434680207,1.3559922524290144,1.056979811158138,1.345933619537717,4.040017591638846,2.694596717575397,5.382013201844752
1570181662766166.0,6.771227668625674,4.4406878469526765,1.3564803609461975,1.0560728401651724,1.3391787935944135,4.032453853270164,2.7154245972113005,5.431870731363085
1570181662766166.0,6.663783490322221,4.367642381972315,1.3570700146933459,1.0575529181524597,1.3330847593392354,4.0076384110240575,2.742244706604716,5.4624672531868
1570181662787604.0,6.559235839974504,4.29730113684681,1.35587960587695,1.0598782789534296,1.3313299556256837,3.9829245772166466,2.768525814465162,5.49251719842902
1570181662787604.0,6.457490056058791,4.2281982471106065,1.3531672630136928,1.0624320873406927,1.3338328036651332,3.96524926705929,2.7988511489140997,5.526968402704793
1570181662788392.0,6.359166915517743,4.162957510445068,1.3499330419875,1.06511175228263,1.3370553796798603,3.9547948149817205,2.8318577002520473,5.54980558418727
1570181662788392.0,6.259893269590126,4.099671938384934,1.3461843539334732,1.0692789689568996,1.341206293257707,3.9541000950854333,2.868879589321452,5.551358578465342
1570181662802096.0,6.159291013508831,4.038988291675693,1.3430050307229806,1.0752845441082786,1.3492574926352074,3.9641374960448985,2.9054230764657767,5.544448064795553
1570181662802096.0,6.058784786283994,3.9780867973857084,1.3422056017688293,1.082109523744642,1.3621992067824984,3.984217438864325,2.943290618050171,5.548084386751516
1570181662802941.0,5.963252880898074,3.9202227938558694,1.3433616249715536,1.0886504785964837,1.3776481366615332,4.010389173354008,2.975677635527228,5.5677268386335355
1570181662802941.0,5.875478159440069,3.866592918872403,1.3433645027399193,1.096083837486853,1.393449300398369,4.043661394907451,3.0070018606777955,5.602194368535799
1570181662824662.0,5.796213965106765,3.820451304342643,1.3405817969307725,1.1016277089706905,1.4074192317819652,4.084875877646797,3.0364662970386025,5.643107591817029
1570181662824662.0,5.716692785852088,3.7744575618403475,1.336236187153697,1.1035560658483647,1.4185325298342406,4.135441886500785,3.070082960969533,5.680209023185542
1570181662825822.0,5.635170222766244,3.726799536543136,1.3312529179015085,1.1051420430378476,1.4275788200705295,4.19054088081988,3.103326382269751,5.711789683970568
1570181662825822.0,5.556645190628851,3.6772572832494714,1.3255758388670147,1.1079141354463788,1.4368978565061872,4.241316533940339,3.1345065474676566,5.745383244309191
1570181662847820.0,5.485931830500626,3.6308326466948397,1.319145834190388,1.1090596452952863,1.4461565479874527,4.281983308903741,3.16061878445849,5.780724618547676
1570181662847820.0,5.422907712822528,3.5856698434299306,1.3109640853180986,1.1053210375228137,1.45226721514997,4.309300227322957,3.1821697022331055,5.804883318803724
1570181662847820.0,5.362088040046622,3.5394873557180837,1.3012219008607273,1.096970943647919,1.4547593238051768,4.320122949499408,3.1919597329751257,5.81270488019757
1570181662847820.0,5.29815767637362,3.4898615089976883,1.2918521352163057,1.0907511913616965,1.4572007463352499,4.330493438267013,3.2009087147334396,5.804437467902808
1570181662861984.0,5.232576733824232,3.442089005369387,1.2825804753592607,1.088221943842382,1.458303531073206,4.338982921699607,3.2081503675159326,5.770646831613338
1570181662861984.0,5.165021729202136,3.394713469281211,1.271442295723458,1.0883056999852996,1.4572015288564577,4.323158575851142,3.216432902434253,5.718864665795287
1570181662862774.0,5.0981970931781415,3.3498065460832964,1.2586977904195105,1.0905650063451302,1.456347466652642,4.281398878530218,3.226349889470102,5.664502241585207
1570181662862774.0,5.03311851393789,3.3060817071545907,1.2464129894178209,1.0951548209952817,1.4566922367598147,4.234890563963198,3.2398280192111795,5.618357806240317
1570181662884577.0,4.973331721970681,3.265973017713566,1.2364710410713073,1.1015338399569563,1.454501132206124,4.195036080363031,3.254088978371741,5.580578734067199
1570181662884577.0,4.9181174394759335,3.2263560625046286,1.2295748754622415,1.1097782819949067,1.4501568859668095,4.1627027581767395,3.2724815216926983,5.539814990921744
1570181662886026.0,4.863170010024992,3.1866693302725335,1.2245414000919548,1.118062109538004,1.448200039429693,4.139236351702631,3.2911109595468795,5.4922191777450395
1570181662886026.0,4.804349981151079,3.143879463025947,1.2214108222743973,1.1240983307886463,1.4501759548783704,4.125787711973495,3.3149058739384456,5.450176397611479
1570181662907668.0,4.746658627347381,3.1022359943748534,1.2209300489998427,1.1286464442426982,1.45392885185668,4.1207483365947395,3.340601506307844,5.421975996704326
1570181662907668.0,4.691723269311509,3.059730157115965,1.2217412646639256,1.1348260840077864,1.4595223504724182,4.12554107009164,3.3684590829493524,5.408298769623352
1570181662908454.0,4.637673433025107,3.015784421498658,1.2217523965585695,1.1406620628651882,1.4647668301575252,4.1403738469559315,3.394921743269494,5.40726617953014
1570181662908454.0,4.5845080243254515,2.9695180860003996,1.219064314058191,1.146196101125834,1.4680049194887037,4.165491295489493,3.4226333299669243,5.4113415091651555
1570181662921469.0,4.5337978278703925,2.92517702519097,1.211979306085072,1.1530015325495315,1.4713297579519997,4.19602009311015,3.4321421819158235,5.406620752023602
1570181662921469.0,4.480592495716665,2.8819360076630645,1.2000463154575365,1.1609202196864814,1.4764634889408377,4.230965876731126,3.416754935381127,5.3910059336927745
1570181662922417.0,4.425248055152225,2.8403045209175652,1.1857796860082441,1.1686315780721714,1.4828046442233045,4.274505530631654,3.39462670663018,5.375388042736393
1570181662922417.0,4.370595993046444,2.797164551358519,1.1732154111383883,1.1767582600772701,1.49152428089972,4.326617618464392,3.381112258426456,5.36682249121262
1570181662945602.0,4.319760605248016,2.755955522524865,1.1648988055942326,1.185809889694557,1.5018344102009302,4.376304387083877,3.3693852705998784,5.361684115024564
1570181662945602.0,4.273762713834844,2.7142020777677884,1.160201201449397,1.1956690467061097,1.5102837693345903,4.3939168572778176,3.3565425295541402,5.355926600754919
1570181662945602.0,4.232871848493525,2.6735365220537783,1.156905549688466,1.2049488346280286,1.5159117585647417,4.365408920018987,3.3376274157105965,5.336513611890614
1570181662945602.0,4.19120265526214,2.633338062129507,1.1542080635275676,1.2136568245751826,1.522932209417853,4.32182844804113,3.319837541800957,5.295359772753706
1570181662967337.0,4.145815026513137,2.5966564643026917,1.1532131963681103,1.2172394197430392,1.5303118645284313,4.283192372431883,3.3081284847540653,5.2498914724530845
1570181662967337.0,4.098588353850107,2.5622453740507174,1.1544658646474313,1.2138722198656562,1.5372541948031249,4.24505403869885,3.305731257664957,5.213975652788995
1570181662968297.0,4.053316142623558,2.5310017844788293,1.1555902079126574,1.207459871256373,1.5454982835873206,4.204106631547709,3.308161941549917,5.179521204576135
1570181662968297.0,4.007396171976961,2.498652729392771,1.1550566794200303,1.2017613447407995,1.5532680783530146,4.1611525296942675,3.3158340773051296,5.145305636598833
1570181662982256.0,3.9611662251454884,2.4661899229717945,1.1542466942575036,1.1957488006248211,1.5602677655705777,4.1149274071577375,3.3219693530810077,5.121666886552097
1570181662982256.0,3.916076597661172,2.4343947407474187,1.1540853558335846,1.1889294235349086,1.5704430129314406,4.070195817562254,3.3268862574737716,5.11342551598977
1570181662982336.0,3.8749046781830296,2.408275326735301,1.1554825895674607,1.182137306934809,1.5841736598295018,4.03669996013248,3.3286192407236377,5.119230791816071
1570181662982336.0,3.8401671739794767,2.3864233079721147,1.158756396432637,1.1764237668170312,1.6019126593858877,4.015371332529671,3.327970517549037,5.138352530856488
1570181663005195.0,3.8117732242182725,2.3677203949225065,1.1603067870978483,1.1712470420920609,1.6226866208710173,4.0040474640406165,3.325068364826197,5.164945327795951
1570181663005195.0,3.784153800817393,2.345858189249722,1.157152025867079,1.1668423872055615,1.644243806418919,4.00269386827569,3.3287235915820643,5.191723512817914
1570181663006192.0,3.760421064924151,2.3229990044839504,1.1524176303128542,1.1626927088092622,1.663037860711125,4.006025039747619,3.3367159400675708,5.2142205467351666
1570181663006192.0,3.7428631444225187,2.300617944734141,1.1487058545949218,1.1580284493532271,1.6781030783270257,4.006345946593705,3.340298909171025,5.2222139939954015
1570181663027184.0,3.7252266989858294,2.27839952639758,1.1458758097639639,1.1519309490614618,1.6907138259680772,4.006645508647395,3.325158110274192,5.205186491865627
1570181663027184.0,3.699782634040331,2.2529485922019794,1.1457275902331099,1.1461294409550529,1.702128292159601,4.0149214702962555,3.298808679984109,5.174078668474345
1570181663029131.0,3.669499942356683,2.2295789740560714,1.1471127526561886,1.142227130740012,1.7122730338414054,4.030808632079046,3.275545804928962,5.133054836753993
1570181663029131.0,3.638197788517631,2.2079406398226262,1.145975185107817,1.141777888398146,1.7225831936978897,4.049495051581668,3.261220422635275,5.078970325972685
1570181663041098.0,3.6085008126242384,2.187209149682626,1.1414723114074823,1.1414166928208336,1.7284135866238677,4.053469694196442,3.250407058441205,5.019307431258083
1570181663041098.0,3.577969552036802,2.1628979797404853,1.1364394622417038,1.13821565256996,1.7259615162333992,4.025722081631013,3.243325236352573,4.959312855777107
1570181663050076.0,3.543988721170382,2.137207079911035,1.1333647637031068,1.1337071115760402,1.7191794091092045,3.979693990705701,3.2326035028047215,4.906231379066117
1570181663050076.0,3.508390108188228,2.1112387795735272,1.1306192286233703,1.1289575813352657,1.712854965372698,3.9354804646360204,3.2188066922772065,4.866469419080332
1570181663065105.0,3.4759859844103516,2.0873817551532876,1.1278609866974632,1.123023115171871,1.7090106442459898,3.893152696462475,3.2026570270334025,4.838484734749486
1570181663065105.0,3.4433945024854418,2.0637091233076252,1.1272057934152773,1.1187346385646995,1.708303895986548,3.842531779253636,3.1893860849527056,4.825488788178903
1570181663067084.0,3.4091753747560065,2.04277961858988,1.129124771812497,1.117172470840406,1.7090258647967607,3.7802835274508597,3.1789533719099876,4.8294111704059715
1570181663067084.0,3.3745883297117487,2.022119308925874,1.1331228161995037,1.118321573043806,1.7130565146882142,3.714537779974011,3.1706963533610826,4.849429390830108
1570181663094958.0,3.3429749939728497,2.0034698664654145,1.1379138653743464,1.1215926615619642,1.7204968590211425,3.650347680578606,3.161130542492748,4.881298767800993
1570181663094958.0,3.314855969222129,1.9872663624683964,1.142742188100934,1.1273141758227812,1.7296280068688696,3.5883647702622716,3.1539325196036314,4.922901914459248
1570181663096951.0,3.2908417214424377,1.9757570165790657,1.1479631274308486,1.1357750582416484,1.7394402422283077,3.532715134048845,3.14914852403931,4.974125174409083
1570181663096951.0,3.2680786552967445,1.9647894554605738,1.1545581899776067,1.1464925798124503,1.7501232856844153,3.4883617567328287,3.151231427928567,5.0277381625787445
1570181663100944.0,3.244047457979503,1.9533259291014888,1.1620133333038747,1.1566936995622914,1.7604890784885119,3.4534211617374124,3.155205127291949,5.070225450341608
1570181663100944.0,3.217965054576522,1.9382908767781484,1.1697650176163144,1.1650195226238451,1.7717055208136212,3.4218762224666026,3.1646162294483706,5.100939880957918
1570181663109965.0,3.191112179044241,1.9225282094278224,1.179759699074882,1.1697898610519488,1.7838635110241419,3.397629542821818,3.1822813697423475,5.125480657770754
1570181663109965.0,3.1644652706569594,1.907482168262901,1.190631761475259,1.1724005551948282,1.796471104677864,3.382637409372124,3.2088732138539533,5.146418447460299
1570181663124875.0,3.14105484014611,1.8962806509290642,1.1994777737960671,1.1737121386208171,1.8109300894026104,3.3704797978520182,3.2349154891118816,5.158889798344986
1570181663124875.0,3.116848078419147,1.8856574432478281,1.2053633490888485,1.1754551152765473,1.827839420391048,3.3617264251719514,3.2612488537669213,5.163272323559647
1570181663126869.0,3.0912298264189753,1.87437924830521,1.209928364221537,1.1788369925633289,1.843924745181495,3.359807852759654,3.285985824870598,5.166609013485596
1570181663126869.0,3.0636691218886316,1.861195752166226,1.2174064859737386,1.1837069911782025,1.8593644210695157,3.364821274921575,3.298761855941008,5.159576677729057
1570181663147819.0,3.0308454520294354,1.8487984476112989,1.2281854226938833,1.1895861490667614,1.87646363027574,3.370829282319603,3.2932746757511064,5.129541189873798
1570181663147819.0,2.9910176658088576,1.8365127401656813,1.2407634612062177,1.1963461264092898,1.8957533963399025,3.375127404280512,3.2917770704090348,5.093352030564837
1570181663148811.0,2.9465261955170736,1.8283641503264214,1.25496591483387,1.201714333655776,1.914592178534271,3.382539970284584,3.2989462473004703,5.072129257946759
1570181663148811.0,2.8980856290527703,1.8226239663870674,1.2704229656975177,1.2068501902340163,1.9316137665869155,3.3984380882204976,3.30939303013561,5.0696423332706715
1570181663160779.0,2.848100940196222,1.817007013784198,1.286333229110096,1.2120751421400717,1.9461376017369323,3.4194439664349217,3.3205009846366242,5.081179586187766
1570181663160779.0,2.798593188377354,1.8086822165026546,1.2991634354808144,1.2168113773718043,1.9576704510584975,3.446777293878803,3.3398157951934673,5.103589261060754
1570181663169754.0,2.752826167563097,1.8002271330457664,1.306806508277824,1.2214336976932467,1.9653317660695189,3.480930447903859,3.3650813529164885,5.132978954263151
1570181663169754.0,2.710308514877142,1.792127715759237,1.3123434843940007,1.2291853196259783,1.9717435374211068,3.5217434437705117,3.397137049020578,5.164335337656492
