timestamp,emg1,emg2,emg3,emg4,emg5,emg6,emg7,emg8
1570179841531761,15,1,0,1,1,2,5,14
1570179841531761,-27,-11,-6,-8,-6,-2,-6,-18
1570179841532492,17,5,-2,-4,1,1,2,13
1570179841532492,-25,-9,-8,-6,-2,-3,-6,-12
1570179841532803,18,19,7,3,-2,2,6,12
1570179841532803,-6,-13,-2,-5,-2,0,0,-1
1570179841534754,-17,-12,-15,-6,-4,-3,-3,-10
1570179841534754,12,3,-3,3,1,0,1,1
1570179841534754,-13,14,20,10,8,2,1,-3
1570179841534754,32,-1,-2,-2,-3,-2,0,4
1570179841548733,6,13,12,2,0,3,3,-3
1570179841548733,-37,-42,-27,-2,10,-1,-4,-15
1570179841557691,40,20,8,5,-1,-4,-4,-5
1570179841557691,-44,-3,23,9,3,-2,-1,1
1570179841565670,22,0,-7,-9,-5,0,1,1
1570179841565670,25,-9,-6,-7,-3,-3,-6,-2
1570179841578768,25,-24,-25,-6,-2,-3,-4,-5
1570179841578768,-29,-10,-1,5,1,0,0,4
1570179841594594,-2,14,13,5,-2,0,0,5
1570179841594594,2,9,-1,-7,-1,3,3,13
1570179841594594,10,6,-9,-12,-3,-1,-2,-3
1570179841594594,7,10,5,2,1,-1,2,4
1570179841641637,-2,4,2,1,-2,0,1,3
1570179841641637,-9,-8,-1,-4,-2,-1,-4,-5
1570179841642470,-5,-7,-4,-7,-4,0,-1,-2
1570179841642470,-2,-7,-11,2,1,-1,1,-2
1570179841642470,16,35,14,3,4,-1,0,1
1570179841642470,-9,-16,9,9,4,1,0,-6
1570179841647665,-11,-16,13,-2,-1,1,2,-2
1570179841647665,3,-3,-14,-9,-4,-1,-1,0
1570179841653580,-4,-10,-8,0,-1,-3,-1,-3
1570179841653580,5,16,2,-1,-1,-2,0,0
1570179841662612,-3,-2,-8,-2,0,-1,-1,-1
1570179841662612,-9,-11,-11,-9,-5,-2,-1,-8
1570179841676375,-2,8,12,4,0,-1,-2,-1
1570179841676375,7,1,10,-2,-3,0,-2,1
1570179841685351,1,-5,-23,-3,-3,-2,-2,1
1570179841685351,1,8,9,3,2,2,5,5
1570179841691433,-5,-4,-7,-7,-1,2,1,0
1570179841691433,6,17,-10,0,-1,-1,0,-1
1570179841714272,-4,-19,10,8,2,0,-3,-7
1570179841714272,9,18,29,7,-1,-4,-4,0
1570179841715268,0,-10,-9,2,1,3,2,1
1570179841715268,-20,-12,-10,-5,1,0,0,0
1570179841728334,-2,8,-8,-8,-4,-3,-2,-6
1570179841728334,-7,4,4,-2,-4,2,-1,-7
1570179841736221,-2,-23,-7,4,-5,0,-1,-3
1570179841736221,23,27,6,2,9,0,0,6
1570179841751173,7,16,9,3,2,1,2,4
1570179841751173,-13,-24,-10,-6,2,2,2,3
1570179841752171,2,2,-13,-5,-5,-4,-3,-2
1570179841752171,-4,-14,-1,-1,-4,0,5,10
1570179841774300,3,8,11,8,3,1,-2,-2
1570179841774300,-5,-13,-3,2,13,1,0,-3
1570179841775359,-15,4,1,-3,-11,-2,-5,-17
1570179841775359,14,0,-4,-4,-4,-1,-2,2
1570179841788255,-3,-9,-4,-3,0,2,2,2
1570179841788255,12,12,9,4,-3,0,0,8
1570179841796054,-4,-17,-9,-5,8,-1,-1,-1
1570179841796054,-5,-2,-1,-3,-2,0,-3,-9
1570179841812011,-7,6,1,-2,-3,0,-2,-3
1570179841812011,-1,-8,-13,-4,-3,0,4,10
1570179841812011,8,6,1,1,2,1,1,6
1570179841812011,-12,-2,2,0,-2,-3,-9,-25
1570179841833953,-5,-12,-15,0,0,0,-2,-8
1570179841833953,16,19,7,-3,-7,-4,-3,0
1570179841834950,-10,0,18,7,3,2,8,19
1570179841834950,4,2,2,3,8,2,0,-3
1570179841847914,0,-1,-6,-5,-9,-2,-1,-2
1570179841847914,-5,-3,-7,5,19,-3,-6,-11
1570179841855895,-15,-10,-6,-11,-10,2,1,0
1570179841855895,11,-1,-6,-2,-5,-3,1,13
1570179841871850,5,7,11,1,7,2,-1,4
1570179841871850,5,10,8,3,-6,0,-2,1
1570179841871850,13,7,2,6,5,-4,-6,-4
1570179841871850,-18,-14,-4,-2,-2,1,-2,-12
1570179841894474,0,4,1,-5,-11,-4,-2,-4
1570179841894474,8,5,-1,3,7,2,6,13
1570179841894791,-3,0,3,-5,-11,0,1,-8
1570179841894791,-5,-13,-8,0,12,-3,0,8
1570179841917045,-1,8,8,0,-13,-4,-3,-3
1570179841917045,-5,-7,-7,-4,15,-1,-4,-13
1570179841917728,10,-6,-2,3,5,-1,-3,-10
1570179841917728,11,17,5,-6,-22,1,1,4
1570179841931726,-10,-7,1,9,25,2,-2,-12
1570179841931726,-13,-19,-9,-1,-13,-3,-2,-13
1570179841932692,5,14,5,-3,2,0,0,0
1570179841932692,-11,-15,-16,-9,-7,2,-3,-15
1570179841953633,10,12,8,6,-1,1,1,9
1570179841953633,1,1,17,11,-2,0,0,2
1570179841954658,6,-3,-9,-12,-24,-3,-1,-7
1570179841954658,-14,-8,-5,3,20,1,3,9
1570179841976570,-4,-4,-8,-5,1,-3,0,11
1570179841976570,4,7,4,1,-2,1,5,12
1570179841977568,-2,-3,1,-5,-18,-6,-7,-11
1570179841977568,5,16,13,7,11,2,3,2
1570179841991530,-19,-20,-16,-8,-5,-2,3,5
1570179841991530,-21,-12,-8,-5,2,5,5,13
1570179841992529,47,43,-6,-3,-8,-6,-5,5
1570179841992529,-33,-59,22,10,5,3,-1,-16
1570179842014468,16,6,9,2,5,7,6,10
1570179842014468,6,-7,-14,-15,-31,-11,-10,-16
1570179842015056,-20,-17,-16,0,32,4,5,0
1570179842015056,23,31,1,2,-3,-1,1,10
1570179842036409,-16,-2,1,-13,-6,0,2,-2
1570179842036409,-2,-2,-4,10,8,1,4,-8
1570179842037406,-9,0,14,9,12,4,-1,-7
1570179842037406,-2,2,-7,6,16,-2,-6,-6
1570179842051427,-2,-5,-1,-3,-11,-4,-2,-2
1570179842051427,17,7,-2,-7,-9,-1,1,-2
1570179842052367,-6,-7,-4,-1,7,2,7,3
1570179842052367,-14,-26,-22,-17,-14,-2,-2,8
1570179842074307,14,35,26,14,4,-2,-3,5
1570179842074307,-7,0,-4,-5,3,-5,-9,-50
1570179842074307,-8,-16,2,3,0,1,3,-42
1570179842074307,-7,9,-1,-11,-10,-2,-1,-76
1570179842096249,14,-3,-9,5,2,0,-4,-79
1570179842096249,2,12,15,-5,-12,0,-3,-113
1570179842097439,-8,-9,4,12,17,4,1,-118
1570179842097439,3,7,-4,0,-3,0,2,-91
1570179842111254,12,1,-7,3,7,-2,-1,-63
1570179842111254,-7,0,1,-10,-9,-1,0,15
1570179842112206,-16,-9,-3,-6,-9,-1,2,56
1570179842112206,8,13,6,8,0,-6,-11,77
1570179842134438,12,-4,-3,-2,-7,1,5,75
1570179842134438,15,13,5,12,22,5,4,79
1570179842135147,-27,-10,-4,-10,-15,-4,-4,68
1570179842135147,10,4,1,5,6,0,3,55
1570179842156089,7,-2,-4,-10,-19,-1,2,42
1570179842156089,-1,-5,-7,3,13,3,1,34
1570179842157439,-1,2,2,-4,-8,-1,-3,26
1570179842157439,11,11,11,8,0,2,4,23
1570179842171049,-20,-10,-6,-4,-4,-1,0,9
1570179842171049,0,3,3,-3,7,0,-3,13
1570179842172372,5,4,5,16,12,-2,-5,12
1570179842172372,-6,-11,-10,2,4,2,6,10
1570179842195750,5,7,6,5,8,-1,1,4
1570179842195750,-3,-8,-2,-4,-10,-4,-5,5
1570179842195982,6,-7,-9,-18,-15,1,5,5
1570179842195982,13,10,7,11,0,-6,-10,111
1570179842216928,-12,-7,-5,-1,13,1,2,117
1570179842216928,-13,-2,-5,-2,-4,1,3,127
1570179842217249,14,-2,2,-1,1,-3,-6,127
1570179842217249,-16,-4,-9,-18,-17,-5,-1,1
1570179842231886,-5,-3,-3,-3,1,1,-1,-102
1570179842231886,20,12,15,0,-2,-2,-2,-121
1570179842233082,-3,8,11,9,15,1,2,-128
1570179842233082,-2,-7,-12,-18,-19,-2,5,-125
1570179842253828,0,-1,-6,0,4,-2,-4,-114
1570179842253828,-4,0,0,5,9,-1,-6,-128
1570179842254826,1,2,-7,-14,-25,-7,-1,-117
1570179842254826,-2,6,11,26,29,8,1,-108
1570179842276768,5,-5,-9,-3,-1,0,1,-97
1570179842276768,-9,-12,-12,-5,-7,-1,2,-69
1570179842277764,1,4,7,4,5,-3,-15,-53
1570179842277764,6,8,6,-4,-9,1,7,-53
1570179842291727,-7,-4,0,7,4,-2,-3,-36
1570179842291727,-2,-6,-6,-2,-15,1,5,-18
1570179842292725,5,0,1,7,21,1,4,-19
1570179842292725,2,-3,-3,-7,-9,-1,-1,-28
1570179842313668,0,5,8,8,7,0,-3,-5
1570179842313668,-7,-7,-4,-15,-23,-6,-1,-3
1570179842314723,-4,-3,-3,2,-1,0,2,-13
1570179842314723,0,-3,-2,0,2,-1,0,-8
1570179842336607,1,0,1,-1,-3,-2,3,2
1570179842336607,-11,-12,-11,-7,-3,-4,-5,-1
1570179842337605,4,4,4,-3,-6,0,1,-6
1570179842337605,-5,2,8,4,-1,-1,-5,-2
1570179842351605,1,1,-2,-5,-10,-3,-7,1
1570179842351605,-2,-5,-3,9,8,1,-2,-4
1570179842359130,-2,-3,-6,-1,1,1,-2,0
1570179842359130,8,4,13,2,-1,-1,0,-2
1570179842373510,-15,-7,-6,-4,-2,0,-4,-2
1570179842373510,1,8,8,7,5,0,-1,0
1570179842374509,1,-8,-10,0,-1,1,4,0
1570179842374509,-4,-11,-11,-9,-7,-3,-3,-2
1570179842396724,10,13,8,1,-2,-1,-3,-1
1570179842396724,-5,-3,-6,0,4,2,1,2
1570179842397445,0,5,5,3,1,0,5,-1
1570179842397445,-12,8,3,0,1,4,4,-4
1570179842419427,27,-12,-11,-4,-4,-5,-5,0
1570179842419427,-8,11,6,5,2,-1,6,-14
1570179842419427,-7,-9,-24,-11,-6,-2,3,-50
1570179842419427,7,7,18,-1,-5,-2,3,-55
1570179842434346,-13,-7,-1,1,3,1,-6,-76
1570179842434346,13,13,5,1,3,-1,-7,-79
1570179842435344,6,-3,-1,0,-1,0,-2,-23
1570179842435344,1,-4,-17,-5,-1,-3,-2,16
1570179842456290,1,0,-1,-5,-3,-1,1,-23
1570179842456290,-36,-12,2,1,1,2,-7,-51
1570179842457453,25,13,1,-1,-3,-2,-3,-15
1570179842457453,15,2,3,7,3,-1,-1,-17
1570179842471295,-30,-8,-4,-7,-5,-5,-9,-13
1570179842471295,-16,5,9,7,3,2,2,-9
1570179842478228,34,-2,-5,-5,-1,0,1,18
1570179842478228,-18,-5,-2,-4,-5,0,-3,-17
1570179842494185,39,6,2,4,-4,3,0,19
1570179842494185,0,-8,-7,-5,-5,-4,-4,-11
1570179842495183,-20,2,10,12,12,4,-1,4
1570179842495183,-1,5,-2,-1,1,1,-1,-2
1570179842516153,3,-1,-1,2,3,2,3,12
1570179842516153,-17,-17,-13,-9,-4,-1,-8,-31
1570179842517541,-47,-4,12,1,1,2,-5,-43
1570179842517541,74,13,-11,-6,-3,-3,-2,11
1570179842531087,-29,-4,-5,-7,1,-3,4,25
1570179842531087,26,13,9,7,2,1,-3,21
1570179842538124,-39,-15,-3,-2,-8,-7,-7,-44
1570179842538124,-24,-5,2,5,17,4,3,-19
1570179842554025,-13,5,9,6,3,2,2,-14
1570179842554025,30,-3,-9,-4,-3,-3,7,16
1570179842555023,6,10,4,0,-3,0,0,-12
1570179842555023,-21,-9,-4,-2,-6,-2,-5,-16
1570179842577001,13,0,-2,2,0,1,4,14
1570179842577001,7,-1,0,-6,-5,-3,-6,-3
1570179842578223,-21,-3,3,4,2,4,12,51
1570179842578223,0,-14,-3,-8,-8,-3,-12,-50
1570179842591002,10,7,3,3,5,3,5,-14
1570179842591002,56,4,-8,-3,-4,-5,0,15
1570179842597908,-36,-15,-4,-10,-11,-4,0,-3
1570179842597908,-20,-4,-3,4,12,-1,3,16
1570179842621846,-30,0,14,8,-3,1,-2,-39
1570179842621846,9,5,5,1,6,3,3,0
1570179842623131,7,-12,-15,-19,-19,-6,-2,20
1570179842623131,9,3,5,5,13,3,-8,53
1570179842636804,-7,5,0,9,0,0,19,17
1570179842636804,-21,-4,6,20,33,3,-9,25
1570179842637450,3,5,2,3,5,2,1,23
1570179842637450,18,2,-2,-6,-14,-2,3,56
1570179842658746,64,25,-4,-10,-10,-3,3,59
1570179842658746,-32,-5,-5,-11,-10,-6,-7,20
1570179842659779,69,13,1,3,3,0,-7,23
1570179842659779,-78,-32,-13,-9,-11,-3,11,-14
1570179842682414,-70,-23,-1,3,5,-1,-22,-107
1570179842682414,48,12,0,2,-4,2,12,-45
1570179842682681,3,-4,-11,0,0,-4,-9,9
1570179842682681,25,3,-7,-2,-8,0,1,58
1570179842698643,-7,-9,-6,-1,7,-2,-7,85
1570179842698643,-6,3,13,15,4,5,6,69
1570179842699636,0,2,9,4,0,0,3,57
1570179842699636,12,5,2,-11,-22,-5,-2,49
1570179842719668,4,-4,0,12,32,3,10,39
1570179842719668,-32,-1,6,-4,-1,3,4,49
1570179842726604,49,8,-6,-1,7,0,2,29
1570179842726604,-7,-5,0,-8,-14,-4,-3,0
1570179842742521,51,18,-5,-13,-15,-2,-3,23
1570179842742521,-24,-7,-1,-4,-1,-2,3,32
1570179842742521,-38,-22,4,-1,0,4,5,4
1570179842742521,23,19,-1,-4,4,-1,-2,-9
1570179842756527,-4,15,9,0,-5,1,2,15
1570179842756527,37,-17,-16,-6,-1,-3,-5,18
1570179842757541,1,1,-6,-7,-7,-2,-3,-8
1570179842757541,-21,4,12,10,8,5,5,-4
1570179842779425,11,11,-3,-2,5,-3,-5,11
1570179842779425,-15,-3,2,-4,-4,1,5,2
1570179842779904,14,10,6,9,14,0,-6,-3
1570179842779904,-13,-5,-5,-10,-12,-1,1,0
1570179842809343,-28,-9,-3,1,2,-4,-4,4
1570179842809343,8,4,-4,-9,-9,1,0,1
1570179842810403,3,-1,-3,-2,4,-3,-5,-1
1570179842810403,7,8,10,16,20,2,-2,0
1570179842816329,-16,-19,-5,-11,-18,-1,-3,0
1570179842816329,1,7,1,-1,-3,-2,1,3
1570179842817323,-8,-2,-4,0,-5,-2,-6,0
1570179842817323,1,7,3,0,-7,-1,-2,-5
1570179842839302,-4,-15,-2,0,-4,1,-1,1
1570179842839302,-13,6,5,2,1,0,-1,4
1570179842840073,18,-5,-1,-2,-3,2,-1,-1
1570179842840073,29,5,-5,-4,3,-5,-6,-4
1570179842862241,24,-2,1,1,-9,2,2,2
1570179842862241,-31,-1,4,10,20,0,-1,3
1570179842863264,-56,-14,4,1,-4,1,-1,-3
1570179842863264,59,18,-5,-1,3,-2,1,-2
1570179842877168,-86,-30,-3,-4,2,1,1,2
1570179842877168,46,0,-9,-4,-7,-7,-21,0
1570179842884182,21,15,9,5,3,3,14,-1
1570179842884182,-41,-6,-6,0,2,0,-3,0
1570179842899144,7,8,-7,-11,-23,-8,-6,0
1570179842899144,-2,0,-6,-6,-8,1,6,0
1570179842900132,1,-1,3,6,16,1,2,-1
1570179842900132,-8,-5,3,9,20,4,1,-1
1570179842922083,21,-2,-4,-3,4,2,3,-1
1570179842922083,-17,-5,-1,0,-11,-4,2,1
1570179842923286,15,17,7,-2,-14,3,4,-1
1570179842923286,-10,-8,-3,2,10,0,10,-1
1570179842937002,18,1,2,2,-7,0,-1,0
1570179842937002,-10,-11,-4,0,9,2,5,0
1570179842937075,25,9,-4,-6,-6,-5,-10,0
1570179842937075,-5,14,11,5,0,3,5,-1
1570179842958946,-37,-15,-4,-2,2,0,-1,1
1570179842958946,29,12,-5,-7,-5,-3,-4,1
1570179842960196,-34,-19,-7,-3,-18,0,4,-1
1570179842960196,1,1,6,10,6,-2,-6,-1
1570179842982585,22,11,1,-3,5,1,3,0
1570179842982585,-18,0,12,2,-10,0,1,0
1570179842983221,-8,-3,-11,-2,17,1,1,-1
1570179842983221,-8,-9,2,2,-8,0,-3,0
1570179842995885,27,17,8,10,11,-1,-6,0
1570179842995885,4,-2,-2,-4,-2,3,-1,-1
1570179843003864,7,-2,-3,-2,-9,-2,-6,0
1570179843003864,2,-9,-11,-5,-3,0,-4,0
1570179843018783,-9,-7,2,-2,-1,-1,-2,0
1570179843018783,-14,0,1,2,-3,1,2,0
1570179843019780,15,5,2,4,13,1,-2,-1
1570179843019780,-21,-16,-4,-9,-15,-3,-3,-1
1570179843042485,-6,3,0,10,22,-1,-4,0
1570179843042485,6,0,0,-1,0,0,-1,-1
1570179843042719,-23,-12,2,0,2,1,3,-1
1570179843042719,10,6,2,0,4,0,-3,-1
1570179843055684,19,1,-5,-4,-17,-3,2,0
1570179843055684,-25,-7,-3,2,14,0,-2,-1
1570179843063667,0,-5,4,2,-8,-1,0,-1
1570179843063667,5,10,0,-5,-11,-2,0,-1
1570179843078625,-18,-7,-3,-5,-5,2,0,-1
1570179843078625,-2,-3,-3,0,3,-5,-3,-1
1570179843080081,-5,0,2,2,2,2,1,-1
1570179843080081,-9,-8,-5,-7,-3,-1,3,-1
1570179843102563,17,15,15,14,4,2,-13,0
1570179843102563,5,3,2,0,1,5,5,0
1570179843103304,-2,1,-3,-1,4,-1,-2,0
1570179843103304,7,-2,2,2,-2,1,-2,0
1570179843115529,-2,-3,-6,-8,-10,0,2,0
1570179843115529,2,-2,1,1,-6,-4,2,-1
1570179843124500,-3,2,-4,-1,0,-2,5,0
1570179843124500,6,-1,-2,3,3,1,-11,0
1570179843139460,-2,-3,-2,-3,3,-2,-2,1
1570179843139460,-1,1,1,0,-3,-2,-2,-5
1570179843139460,-3,1,-2,-1,-1,0,-1,10
1570179843139460,-6,-6,-6,-4,-2,0,-1,97
1570179843162476,4,2,3,2,1,2,9,85
1570179843162476,2,0,-6,0,0,1,-5,80
1570179843163396,1,3,2,0,-3,-2,-2,120
1570179843163396,-3,-6,-3,-2,1,0,1,111
1570179843175364,1,4,2,3,4,3,0,127
1570179843175364,-15,-9,-5,-1,-4,-4,-6,127
1570179843184343,2,3,3,1,1,-1,-2,95
1570179843184343,-3,-3,-5,-6,-3,1,4,-76
1570179843199300,-1,-4,-4,-2,-1,-1,1,-121
1570179843199300,5,6,6,8,2,1,0,-128
1570179843200297,-1,0,1,5,0,-2,-1,-128
1570179843200297,-7,-15,-16,-3,7,0,-3,-112
1570179843222278,5,8,13,6,0,4,5,-128
1570179843222278,-12,-9,-7,-3,-2,0,-1,-127
1570179843223274,19,4,3,-2,-5,-6,-8,-119
1570179843223274,-3,-1,3,1,0,1,4,-113
1570179843236217,5,-7,-7,-8,-6,-4,6,-98
1570179843236217,-8,5,6,3,1,-4,-13,-63
1570179843244184,-1,-5,-12,-14,-2,-1,0,-71
1570179843244184,-17,1,8,8,-3,-5,5,-57
1570179843259165,15,4,0,-1,1,-1,2,-29
1570179843259165,-2,-2,1,-5,-6,-3,3,-22
1570179843260138,0,-1,-5,-6,-1,1,-7,-34
1570179843260138,19,3,0,-4,1,-3,3,-14
1570179843282078,-7,-2,-4,-2,-1,0,-9,-3
1570179843282078,12,0,-4,-4,-2,1,0,-11
1570179843283364,-1,1,1,1,0,1,0,-15
1570179843283364,-5,-1,-2,-2,2,-1,1,2
1570179843296070,-5,-1,0,1,1,-3,-1,-2
1570179843296070,5,-5,-9,-12,-4,0,6,-8
1570179843304020,-15,-7,-7,-4,2,3,-2,-4
1570179843304020,5,7,12,13,0,-2,-2,1
1570179843318980,-1,1,-6,-6,-1,-2,0,-4
1570179843318980,-1,0,1,3,0,-1,-3,-1
1570179843319978,-8,2,1,2,1,0,2,-1
1570179843319978,12,-5,-9,-8,-4,1,-1,-2
1570179843341959,4,-7,-8,-6,-2,1,3,-2
1570179843341959,-13,9,13,13,4,-2,-1,2
1570179843342916,12,7,-2,-7,-4,-2,3,-3
1570179843342916,-16,-11,-2,-1,-9,-7,-9,-3
1570179843364894,-10,-6,-5,-7,-5,-5,1,0
1570179843364894,16,3,-4,-4,0,7,1,0
1570179843365890,9,2,11,13,4,2,4,-4
1570179843365890,6,-4,-5,-6,-2,-1,-4,-1
1570179843378824,-11,-1,0,-2,-1,-2,4,1
1570179843378824,8,10,0,0,0,-1,-12,-1
1570179843379897,12,5,3,2,2,1,2,-3
1570179843379897,-9,-11,-8,-3,1,2,-2,-5
1570179843401760,-45,-25,-14,-3,-3,-4,-7,-38
1570179843401760,8,1,1,-3,-1,1,7,-62
1570179843402799,6,16,0,-5,-5,-5,-11,-53
1570179843402799,22,47,20,6,1,1,1,-45
1570179843424697,-39,-71,-21,2,4,3,-1,-40
1570179843424697,14,1,3,5,2,-1,0,-20
1570179843425796,-20,-22,-10,-1,0,1,-3,-59
1570179843425796,87,33,6,4,7,4,22,-16
1570179843438660,-85,2,10,0,-2,-4,-20,7
1570179843438660,39,0,-3,-7,-4,-7,4,13
1570179843439657,-23,6,-6,-8,-9,3,-9,-57
1570179843439657,-49,-20,-3,0,11,1,2,-3
1570179843462640,36,18,4,4,-11,5,5,10
1570179843462640,3,1,0,2,9,-5,-11,5
1570179843462640,-5,4,7,5,1,-6,1,1
1570179843462640,-20,-4,3,3,-4,0,-5,0
1570179843484537,22,2,-2,-2,2,2,5,16
1570179843484537,-19,-1,2,5,1,5,7,-10
1570179843485603,17,1,6,6,4,5,8,15
1570179843485603,-84,-38,-30,-27,-12,-7,-17,-26
1570179843498500,39,19,14,11,9,4,8,37
1570179843498500,-23,-16,-8,-4,-9,-6,-8,-13
1570179843499928,-13,-15,1,0,2,-1,-5,55
1570179843499928,4,-9,-1,3,-3,2,-3,16
1570179843521442,43,29,-4,-8,-1,0,-2,-20
1570179843521442,-7,-1,13,11,3,6,8,9
1570179843522435,-52,-17,-2,1,2,1,4,15
1570179843522435,35,14,5,-1,-5,-3,-3,-4
1570179843544415,-7,-17,-3,-4,2,1,0,1
1570179843544415,41,19,-8,-1,3,6,11,29
1570179843550399,14,5,3,8,1,-5,-4,-30
1570179843550399,-25,-14,4,7,2,-3,-2,23
1570179843558410,-17,7,4,-1,-1,-6,-2,-37
1570179843558410,30,6,1,-6,-5,-1,1,35
1570179843567392,9,2,-3,-3,-3,0,0,-4
1570179843567392,-5,3,-2,0,1,-1,-2,3
1570179843582344,41,-1,1,4,1,0,2,31
1570179843582344,-27,-1,-5,-8,-6,-5,-10,-40
1570179843583274,-40,-2,-6,-3,-4,-5,-2,14
1570179843583274,3,-10,0,0,4,5,7,8
1570179843604281,39,16,3,1,-5,-3,2,19
1570179843604281,10,15,0,-1,0,2,2,2
1570179843606212,-7,-12,-1,-3,-1,1,2,13
1570179843606212,16,0,-3,0,-2,-1,-1,10
1570179843618180,-24,2,-4,-7,-5,-5,-6,-34
1570179843618180,-7,-7,-8,-6,-6,-3,1,13
1570179843627156,18,-4,1,3,-2,-3,-1,16
1570179843627156,8,6,6,2,0,-2,-2,-5
1570179843642196,1,12,-2,-1,0,0,0,2
1570179843642196,-28,-18,3,7,0,0,0,-4
1570179843644111,22,7,12,4,0,-2,3,5
1570179843644111,3,6,-1,-2,-1,-1,0,15
1570179843665058,-5,0,1,-1,0,-1,-3,-4
1570179843665058,7,-9,-10,-5,-2,-6,2,32
1570179843666110,2,-1,-7,-7,-2,6,2,7
1570179843666110,12,7,2,1,-1,0,13,-18
1570179843678057,-6,-2,1,3,3,-1,-4,11
1570179843678057,-18,-6,0,-2,-1,2,-2,1
1570179843686996,14,6,-3,-2,-2,0,1,8
1570179843686996,-6,-4,0,-1,-1,0,2,10
1570179843701956,9,0,-2,-1,1,4,3,18
1570179843701956,-12,-2,2,-2,-2,-10,-6,-37
1570179843703954,6,-1,0,-1,4,4,-1,-5
1570179843703954,0,-2,-2,-1,-8,-16,-9,-10
1570179843724934,-9,-3,0,0,-2,-3,-2,-6
1570179843724934,4,-1,0,-1,-2,1,-3,-3
1570179843725930,0,0,-3,1,0,-2,1,0
1570179843725930,2,3,-1,1,5,5,-3,9
1570179843737970,-3,0,0,0,0,0,-3,-3
1570179843737970,-4,-3,-1,0,-2,-1,0,11
1570179843746862,1,-2,-3,-2,-2,1,-3,8
1570179843746862,8,2,1,2,-1,2,1,32
1570179843762978,2,4,3,1,-3,-1,-2,1
1570179843762978,5,-8,-5,-3,0,4,1,25
1570179843763790,5,-1,-5,-3,-1,-2,0,17
1570179843763790,5,-1,3,2,-2,-1,-3,27
1570179843784741,-4,-3,1,1,3,3,5,13
1570179843784741,-3,0,1,1,4,1,0,-1
1570179843786825,-3,1,2,2,-3,-3,-2,-15
1570179843786825,-9,-10,9,3,1,2,-1,-9
1570179843798698,6,-3,-25,-9,-5,-2,-1,6
1570179843798698,-1,4,4,5,2,0,0,-11
1570179843807773,5,2,19,-3,-11,-8,2,27
1570179843807773,-5,-2,-15,-7,-6,-3,1,-11
1570179843822633,-5,-6,-5,-4,-9,-7,-13,-23
1570179843822633,-14,-4,4,-1,2,1,1,-4
1570179843823630,8,12,4,2,7,5,4,0
1570179843823630,-8,-27,0,3,2,0,-5,-2
1570179843844578,10,31,7,7,5,0,2,3
1570179843844578,4,2,-21,-8,4,-1,-1,1
1570179843846570,-13,-42,3,8,2,2,2,-3
1570179843846570,3,6,-1,0,-2,3,4,0
1570179843858612,17,5,-9,-3,-4,-2,-2,-8
1570179843858612,-25,-1,13,6,-3,-3,-5,-10
1570179843867541,7,10,-3,-7,0,0,4,9
1570179843867541,19,12,-9,-4,-2,0,-2,4
1570179843882473,-4,-24,-4,-3,-1,-2,0,-2
1570179843882473,-83,-36,5,0,-1,0,-3,-10
1570179843883470,52,45,-6,-6,0,-3,-2,-6
1570179843883470,-47,-18,3,-3,-4,-5,-3,-10
1570179843904414,-1,3,8,2,2,2,3,2
1570179843904414,9,9,9,4,0,1,2,0
1570179843906421,14,3,-4,0,-1,1,1,1
1570179843906421,-10,5,1,2,4,1,-1,-8
1570179843918462,18,16,11,-1,-1,-1,4,10
1570179843918462,10,0,-8,-3,-4,3,2,4
1570179843927478,-29,-16,-4,1,-1,-3,-3,-4
1570179843927478,-12,12,0,0,3,-1,0,-4
1570179843942313,53,22,15,5,3,4,6,17
1570179843942313,-26,-34,-20,-10,-6,-5,-7,-17
1570179843944308,99,35,-2,-4,-3,-1,-1,13
1570179843944308,-71,-54,0,-2,0,-3,-7,-27
1570179843964295,99,40,1,2,-1,0,6,19
1570179843964295,-39,-14,12,4,1,0,1,1
1570179843966319,76,-6,-26,-12,-8,-9,-9,6
1570179843966319,89,10,1,-2,-1,1,0,0
1570179843978255,-24,-14,3,2,2,-1,0,-2
1570179843978255,35,18,4,-3,0,5,16,43
1570179843987194,-56,-19,-3,-1,-2,-3,-20,-53
1570179843987194,12,18,4,9,2,-1,0,8
1570179844002192,-46,-19,-7,-2,0,-1,-2,-4
1570179844002192,35,11,3,2,1,0,2,8
1570179844004148,-45,-2,5,2,1,0,5,4
1570179844004148,1,4,-7,-6,-5,1,-1,2
1570179844025169,2,-1,-2,-5,2,0,-2,-11
1570179844025169,-22,-7,-6,-6,-6,-3,-5,-13
1570179844026090,-14,1,6,4,3,0,2,9
1570179844026090,9,1,-6,-3,-1,-1,0,0
1570179844038097,-33,-19,-1,-2,-2,0,-1,6
1570179844038097,36,22,4,-3,1,2,-2,-1
1570179844047099,-5,-11,1,3,2,-1,6,11
1570179844047099,19,8,2,-2,-1,-2,-3,-3
1570179844061993,-31,-10,-2,0,-2,0,-2,-3
1570179844061993,38,26,5,1,2,-2,2,5
1570179844064170,-47,-24,-5,-3,-1,1,0,-6
1570179844064170,4,-6,-2,1,-3,-3,-3,-5
1570179844084931,-9,-4,-2,-7,-13,0,1,-2
1570179844084931,19,7,2,8,3,0,-1,-2
1570179844087256,12,10,6,-2,-5,0,7,26
1570179844087256,-11,-4,-2,-1,3,1,-2,2
1570179844097936,-13,-16,-6,2,6,-1,-3,-4
1570179844097936,1,-3,-1,-3,-4,-1,-8,-12
1570179844107016,-9,-3,-4,-2,3,0,1,-2
1570179844107016,12,6,-5,-7,-4,2,2,3
1570179844121833,-16,2,8,9,0,-3,-4,-5
1570179844121833,21,10,3,-3,0,1,2,7
1570179844128814,-5,-6,-4,0,2,3,3,-1
1570179844128814,-2,-11,-8,-7,-6,-3,0,4
1570179844144771,13,8,-5,-5,-2,-2,0,-7
1570179844144771,-8,-16,3,1,1,-2,1,2
1570179844146767,-1,4,16,8,1,-1,-6,-15
1570179844146767,10,4,-1,0,-1,3,8,18
1570179844158749,-3,-8,-12,-3,2,-1,-7,-16
1570179844158749,4,-1,-8,0,0,-1,-2,0
1570179844167714,-7,1,10,3,-3,-3,3,13
1570179844167714,-4,2,-3,0,2,-2,-6,-15
1570179844181673,10,11,15,0,0,1,3,6
1570179844181673,-18,-22,-8,-4,-1,0,-5,-20
1570179844188654,1,-3,-13,-5,-2,-1,0,1
1570179844188654,3,2,2,3,2,1,-2,-10
1570179844204805,-19,-11,1,2,2,-3,-4,-8
1570179844204805,3,2,-4,-7,-1,0,3,3
1570179844206645,-1,11,-2,-2,-1,1,3,-3
1570179844206645,-3,9,0,-1,-3,-3,-4,-5
1570179844227550,4,7,0,-1,2,0,6,16
1570179844227550,-11,-40,4,7,-2,0,-8,-22
1570179844228549,-7,-17,-6,3,5,0,-5,-9
1570179844228549,-17,-5,3,-1,0,2,6,6
1570179844241513,43,25,7,2,1,0,0,11
1570179844241513,-3,23,-4,-5,-2,1,0,-1
1570179844248494,-8,-7,4,-3,-6,-5,-11,-28
1570179844248494,0,-1,-1,1,0,-3,-5,-8
1570179844264747,-13,-9,-13,-6,-1,-2,-1,-3
1570179844264747,-2,-5,-4,4,-3,0,4,4
1570179844266449,14,7,-4,-2,0,0,1,-3
1570179844266449,-11,-8,11,4,-2,3,4,0
1570179844287390,-11,-1,7,6,-4,-5,-6,-9
1570179844287390,7,9,-4,-3,6,0,-1,-5
1570179844288908,1,15,2,1,0,2,0,-9
1570179844288908,-9,-22,-6,-1,0,-2,-2,-21
1570179844300391,14,13,4,-4,-5,2,4,1
1570179844300391,-5,-12,-13,-12,-7,-2,-1,-3
1570179844309331,9,-8,1,7,-5,-2,-2,12
1570179844309331,3,13,-1,-2,14,3,4,13
1570179844324292,-15,-16,-9,1,1,1,4,9
1570179844324292,6,23,-5,-6,0,-1,-4,-8
1570179844326286,-2,-12,28,19,6,4,6,-6
1570179844326286,50,14,-3,-12,-12,-1,-1,-4
1570179844347231,-70,-28,5,8,-6,-4,-3,-3
1570179844347231,36,27,5,3,15,3,3,10
1570179844349226,-8,-16,-14,-13,-10,1,1,-59
1570179844349226,48,4,-2,-2,-3,0,5,-18
1570179844361223,-9,-3,-5,-2,7,2,-3,-99
1570179844361223,-4,0,7,1,-11,-7,-3,-64
1570179844370168,-21,1,-8,-7,4,-1,-5,-104
1570179844370168,57,18,2,1,-3,1,4,-94
1570179844385129,-11,-10,-2,-11,-3,-4,-5,-80
1570179844385129,29,5,-5,-2,-8,0,1,-18
1570179844386163,27,3,10,5,5,2,3,61
1570179844386163,-51,-22,-10,-7,-6,-5,-9,70
1570179844407118,15,1,6,7,15,4,3,85
1570179844407118,3,4,3,-2,7,-1,-3,67
1570179844409099,-14,1,-15,-9,-5,-4,-1,62
1570179844409099,-19,15,13,-5,-16,-1,-2,48
1570179844421068,16,0,-5,2,28,-2,-1,43
1570179844421068,-30,-13,-3,2,5,1,2,30
1570179844430010,8,8,-7,-11,-2,1,2,35
1570179844430010,-21,-1,9,18,11,-3,-9,14
1570179844444008,14,0,-1,-9,-20,2,7,20
1570179844444008,7,-10,-3,-2,-6,-2,-1,12
1570179844451950,-15,-1,0,5,13,-1,0,14
1570179844451950,9,7,-3,-9,-11,0,0,5
1570179844474925,8,2,6,8,-4,0,0,5
1570179844474925,-16,-6,0,-4,2,-1,1,2
1570179844475895,8,4,-1,1,-14,-2,-3,3
1570179844475895,-13,-3,4,6,16,1,3,0
1570179844480958,7,0,-11,-4,2,0,-3,5
1570179844480958,-17,-13,-6,-5,-3,0,1,-2
1570179844489850,2,2,-1,-1,-8,-4,-4,3
1570179844489850,-4,2,3,8,6,-3,-6,-1
1570179844504958,5,-2,-3,-2,-7,2,3,3
1570179844504958,-9,-16,-5,-6,-10,-4,-9,0
1570179844506722,6,10,-2,-3,-3,-1,-5,22
1570179844506722,-15,-18,-9,-3,2,1,0,110
1570179844526788,-2,-9,-6,-11,-20,3,16,126
1570179844526788,22,13,5,2,-9,-6,-6,127
1570179844528746,-6,2,3,-5,8,1,0,44
1570179844528746,1,4,5,17,10,-1,1,-99
1570179844540715,-7,-1,-4,-8,-6,-2,1,-122
1570179844540715,-6,-5,-2,2,14,3,4,-128
1570179844557701,2,3,-1,-5,-1,-1,3,-119
1570179844557701,0,-5,-10,-11,-5,2,6,-115
1570179844564649,2,7,11,12,8,-3,-15,-128
1570179844564649,-8,5,-6,-6,-18,-2,3,-125
1570179844566656,-1,-9,-1,7,8,-1,0,-103
1570179844566656,-21,-3,-2,1,5,1,8,-88
1570179844587615,19,-2,-13,-9,-10,-2,4,-78
1570179844587615,-13,-7,-1,2,3,-2,-10,-59
1570179844588948,-7,-8,-8,-1,0,1,5,-47
1570179844588948,-7,-3,-3,0,-7,0,9,-42
1570179844601554,10,12,10,13,6,1,-3,-22
1570179844601554,5,-5,4,6,0,0,3,-22
1570179844608619,-3,-2,-1,-4,-3,0,0,-19
1570179844608619,-8,-3,-2,-8,-9,-4,-12,-7
1570179844624558,1,2,-2,-1,3,-1,-4,-4
1570179844624558,5,2,2,2,2,4,6,-9
1570179844626513,-5,-1,1,-2,-6,-3,-4,-7
1570179844626513,13,3,-1,-6,6,1,-4,1
1570179844647432,-8,-9,-3,-2,-7,-1,1,-2
1570179844647432,-13,2,1,7,5,-3,-11,-8
1570179844648425,11,-3,0,2,-2,-1,4,0
1570179844648425,33,12,-1,0,-1,1,2,0
1570179844677348,-57,-26,-12,-8,-6,-4,-9,-3
1570179844677348,18,8,8,6,-1,-1,5,-2
1570179844678345,-28,-14,-5,-9,-9,0,-5,0
1570179844678345,10,12,10,8,13,4,-2,0
1570179844684367,5,2,3,11,4,1,-1,-2
1570179844684367,9,6,0,-2,-5,1,6,-1
1570179844686331,2,4,0,-9,-9,-4,-6,-1
1570179844686331,-8,-6,0,17,12,-1,-1,-2
1570179844707268,9,4,2,-5,-1,0,-1,1
1570179844707268,-6,1,0,1,6,4,3,-7
1570179844708278,14,1,-6,-1,-2,0,1,-55
1570179844708278,-2,-8,-10,-10,-11,-4,-4,-60
1570179844721234,2,5,2,-8,-3,2,3,-43
1570179844721234,10,12,13,5,5,-3,-5,-81
1570179844730211,-2,-2,0,4,-4,0,3,-35
1570179844730211,-3,-1,-1,-8,-8,-3,-4,-29
1570179844744227,-1,-7,-7,-2,-1,1,-3,-9
1570179844744227,4,-3,-1,-4,-5,0,1,-7
1570179844751154,-3,2,0,-1,4,0,-2,-26
1570179844751154,-9,-3,-2,1,-1,0,-1,-3
1570179844767146,12,9,9,7,3,0,0,9
1570179844767146,-8,-10,-11,-9,-6,0,2,14
1570179844769140,2,6,8,8,12,1,0,10
1570179844769140,-4,1,1,0,-6,1,6,25
1570179844781126,-2,-7,-5,-6,9,0,-4,19
1570179844781126,3,2,-1,14,4,0,-3,6
1570179844788052,-4,-4,0,-5,-5,-1,0,19
1570179844788052,-5,0,-3,-6,-5,2,5,30
1570179844805006,0,0,5,-1,-8,-4,-9,1
1570179844805006,-6,2,3,3,7,0,3,14
1570179844806045,3,0,-2,-2,1,-4,-4,-6
1570179844806045,0,2,4,0,0,-1,-3,4
1570179844826951,2,-1,-5,-4,-1,-2,0,9
1570179844826951,0,0,-2,-4,-3,0,0,-11
1570179844832934,-2,-6,-7,-3,-2,0,1,-2
1570179844832934,-1,3,5,1,-2,-3,-8,-15
1570179844841002,-2,0,-1,2,0,0,3,7
1570179844841002,1,2,1,-4,-2,-1,-6,-22
1570179844849946,-2,-4,-10,3,4,2,2,14
1570179844849946,-1,-3,9,-1,-3,-2,-6,-13
1570179844864846,14,10,-8,-2,-1,1,-2,9
1570179844864846,-31,-14,15,5,1,1,2,-13
1570179844865844,19,1,2,-1,-2,-1,-7,-20
1570179844865844,-12,-16,-12,-5,0,-1,5,22
1570179844888896,-9,-6,-3,-2,-6,-1,3,15
1570179844888896,9,8,-4,-2,2,-1,-2,-4
1570179844893798,-6,4,2,5,3,-1,-5,-13
1570179844893798,6,9,5,2,2,1,5,14
1570179844900749,7,-6,-6,0,-1,-2,-1,-5
1570179844900749,-19,-15,-9,-6,-7,-2,6,44
1570179844915748,12,8,2,1,1,0,-1,13
1570179844915748,-5,-4,0,0,-1,-1,-3,1
1570179844924690,-1,18,-2,-2,-3,2,13,20
1570179844924690,12,-13,-6,-3,-5,-5,-14,-13
1570179844926685,-2,11,-4,1,2,0,3,21
1570179844926685,4,4,-7,-4,-3,-1,-2,13
1570179844947625,1,-12,-1,-5,-4,-4,-6,-8
1570179844947625,-5,-20,-6,0,0,-1,0,1
1570179844948623,-14,17,30,7,1,0,3,6
1570179844948623,-2,2,0,0,1,-1,-3,9
1570179844960595,4,17,5,3,2,1,-2,21
1570179844960595,20,6,-13,-5,-1,0,4,20
1570179844970076,0,-12,-12,-6,-6,-6,-5,4
1570179844970076,-4,3,0,-3,0,1,5,17
1570179844984526,-7,-18,-5,-1,0,-2,-4,-13
1570179844984526,2,13,10,6,1,-1,-14,-31
1570179844986845,0,-5,0,-1,1,0,3,12
1570179844986845,-6,-4,-5,-3,-3,-2,2,-2
1570179845007500,-4,2,0,-1,-1,-3,-2,21
1570179845007500,-10,7,11,2,2,1,-3,-42
1570179845008462,22,-3,-14,-3,-2,-1,-2,4
1570179845008462,12,1,-7,-3,-1,-1,0,24
1570179845020432,-13,-21,8,4,3,0,-6,-22
1570179845020432,-16,10,0,3,2,2,5,35
1570179845029722,-1,0,5,1,-2,0,-5,3
1570179845029722,-2,-8,-10,-4,-3,-2,-4,-1
1570179845043407,-22,-6,4,2,0,2,-3,19
1570179845043407,19,15,5,-1,-1,2,-4,32
1570179845052348,0,-8,-5,-2,-1,-1,-7,-6
1570179845052348,1,-6,-3,-2,-2,-1,-4,5
1570179845067307,7,7,6,0,1,-2,1,-7
1570179845067307,6,-2,-6,-3,-2,-1,6,-6
1570179845068894,-18,-3,5,2,4,3,9,8
1570179845068894,-7,5,8,3,0,0,-8,-53
1570179845081269,23,7,0,-1,-2,0,8,28
1570179845081269,2,4,4,3,2,2,5,70
1570179845090245,36,-7,-18,-10,-6,-7,-6,39
1570179845090245,-29,-11,2,0,0,1,3,8
1570179845104210,-2,0,-3,-1,1,0,-2,-10
1570179845104210,-40,0,8,6,3,4,13,-36
1570179845111226,26,-5,-13,-9,-9,-7,-1,12
1570179845111226,19,5,0,0,1,-3,7,68
1570179845127183,-21,-2,3,1,-4,3,12,14
1570179845127183,15,5,6,3,2,-1,-7,-73
1570179845129140,4,13,11,4,5,3,6,-93
1570179845129140,-15,-9,-4,-3,-4,-4,-4,-86
1570179845141107,-20,12,7,5,3,-2,0,-128
1570179845141107,47,7,-9,-1,-3,1,0,-54
1570179845150083,-40,-23,-2,7,2,1,-6,20
1570179845150083,118,19,-9,-1,-9,-4,-2,46
1570179845164046,-85,-29,-5,1,2,0,-3,89
1570179845164046,1,-7,-8,-12,-9,-6,2,99
1570179845171109,-13,4,11,7,5,1,0,79
1570179845171109,5,0,10,5,5,4,3,73
1570179845194967,23,27,14,4,3,3,1,42
1570179845194967,22,-29,-24,-16,-14,-10,-15,59
1570179845195964,8,3,4,-5,1,0,8,37
1570179845195964,-59,-5,-1,-2,3,1,-1,9
1570179845201024,13,6,-1,-3,0,-3,-8,16
1570179845201024,-37,-4,2,1,5,4,5,28
1570179845210085,7,10,9,-1,-2,0,2,17
1570179845210085,39,10,-5,-10,-9,-4,-3,-2
1570179845223944,10,-11,-16,-9,-13,-6,-1,8
1570179845223944,-6,-11,-5,5,24,3,3,28
1570179845230952,30,0,0,-7,-27,-6,-8,0
1570179845230952,-57,-1,-3,-6,22,3,-2,-4
1570179845247074,43,6,-2,-6,-16,-2,-3,3
1570179845247074,-57,-8,6,8,1,0,11,7
1570179845248913,7,-4,-15,-10,-1,-1,6,-1
1570179845248913,-7,9,12,14,5,1,-11,-4
1570179845269801,-2,-21,-13,-11,-12,-2,-1,3
1570179845269801,3,4,2,-6,-20,-3,4,4
1570179845271758,-19,-3,-1,2,20,1,4,2
1570179845271758,-5,0,6,2,-5,0,4,3
1570179845283725,5,1,-1,1,7,5,13,-2
1570179845283725,11,10,6,2,-8,-5,-29,3
1570179845290707,-9,-5,-9,-3,11,0,-6,1
1570179845290707,15,8,5,5,-2,-1,3,-4
1570179845306708,-9,-8,7,11,18,2,1,-1
1570179845306708,57,4,-5,-4,-6,1,10,3
1570179845308978,-97,-16,0,-2,-4,1,-6,0
1570179845308978,77,6,-2,-3,-3,-1,3,-3
1570179845328610,-45,6,8,3,-4,0,-2,0
1570179845328610,1,-15,-14,-4,18,-1,-3,4
1570179845344564,30,1,-4,-1,-14,-3,-1,-2
1570179845344564,-38,-11,4,7,-6,1,6,-2
1570179845346558,15,4,0,-2,15,1,1,0
1570179845346558,-10,6,0,-4,3,0,-2,0
1570179845367556,4,13,10,9,17,1,0,-1
1570179845367556,-18,-4,-3,-7,-19,-3,-6,-2
1570179845368501,47,19,-10,-5,-12,-6,-8,1
1570179845368501,-18,-6,3,1,0,2,5,1
1570179845370532,2,17,7,5,-4,3,-1,111
1570179845370532,44,7,-8,-5,-4,-6,-19,104
1570179845388545,-78,-34,-13,-5,-2,-5,-10,72
1570179845388545,-33,-12,3,4,5,2,14,14
1570179845397554,79,81,28,4,-4,2,7,-49
1570179845397554,-99,-83,-10,-2,1,-5,-9,-121
1570179845403474,74,8,-13,-11,-12,-7,-2,-70
1570179845403474,0,2,10,11,1,0,0,-58
1570179845412600,-33,-23,-11,-2,-6,-3,3,-77
1570179845412600,21,57,16,4,14,7,13,-17
1570179845427344,17,-3,9,5,1,3,7,-69
1570179845427344,-8,-25,-9,-6,-5,2,5,-88
1570179845428977,23,-1,-21,-15,-24,-6,-8,-80
1570179845428977,-89,-40,-16,-9,4,-13,-8,-27
1570179845449320,6,-4,13,20,18,-1,-5,34
1570179845449320,69,44,26,10,1,6,13,64
1570179845451312,74,22,2,8,16,4,-8,82
1570179845451312,22,2,-10,-16,-32,0,5,43
1570179845463418,-43,-27,-21,-8,-5,-8,-10,18
1570179845463418,20,7,3,1,11,-5,-9,11
1570179845472558,-42,-34,-7,-5,-8,3,7,2
1570179845472558,-6,16,15,18,1,9,26,12
1570179845487186,14,21,15,2,24,1,-11,-3
1570179845487186,-1,15,-6,-7,-4,-2,-1,-13
1570179845489233,-59,-53,-14,0,5,-1,3,-42
1570179845489233,80,51,3,-2,-11,0,4,31
1570179845510121,-99,-47,-8,-3,1,-2,-11,11
1570179845510121,-9,-11,-5,-4,-13,-4,-5,-2
1570179845511123,-5,-6,1,2,15,2,-2,-6
1570179845511123,-17,-15,-2,6,10,4,-8,-3
1570179845532100,40,18,5,-7,-30,0,11,3
1570179845532100,-22,-2,-19,-9,-6,-11,-16,-9
1570179845534059,-11,-3,11,1,1,0,-3,-5
1570179845534059,22,17,4,5,5,3,2,-2
1570179845547092,13,-6,-6,-8,-18,2,4,9
1570179845547092,9,-3,-6,-6,20,-1,0,16
1570179845549058,-20,2,9,10,1,3,4,27
1570179845549058,-19,-15,-8,-11,-8,-7,2,-59
1570179845569998,7,14,1,3,9,4,-1,-6
1570179845569998,-17,-10,-2,3,-7,1,0,-5
1570179845570958,38,10,-1,-5,-7,-4,-11,-40
1570179845570958,-27,-21,-9,-7,4,-3,-4,-21
1570179845582959,14,1,5,9,0,0,3,-17
1570179845582959,-2,8,-3,2,9,-2,-7,-26
1570179845592467,-2,-4,-2,0,-8,0,1,-6
1570179845592467,5,-3,3,2,20,1,-6,-2
1570179845606864,36,28,3,-2,-8,-2,3,-2
1570179845606864,-22,-18,-12,-6,-16,-2,-5,31
1570179845608906,-10,-2,5,0,-15,-1,2,17
1570179845608906,10,0,2,4,29,2,-3,10
1570179845629805,-4,-2,11,8,7,1,3,8
1570179845629805,2,9,0,-4,-6,2,3,8
1570179845630800,4,-3,-11,-5,-7,-1,2,9
1570179845630800,-2,1,-3,-2,-4,-2,-4,8
1570179845643763,31,7,-5,-1,4,-1,-1,-3
1570179845643763,-8,-10,6,-1,-5,2,0,6
1570179845652801,-1,1,-3,-3,-6,-2,-3,2
1570179845652801,0,-3,2,4,6,2,1,5
1570179845666740,-18,3,-2,0,7,4,1,14
1570179845666740,-19,-8,-2,-3,-5,-1,-3,7
1570179845668701,-1,3,0,2,7,-2,2,78
1570179845668701,-8,11,7,4,-8,1,-6,-19
1570179845689645,0,-7,2,5,1,3,5,21
1570179845689645,41,16,-4,-6,-9,-8,-15,-50
1570179845691693,17,-8,-7,-6,2,-3,3,-24
1570179845691693,17,6,3,6,3,2,3,9
1570179845703644,-23,-12,-1,0,-1,1,-2,-20
1570179845703644,10,8,3,1,1,2,6,14
1570179845711126,-2,-3,-12,-6,2,-3,-5,-16
1570179845711126,-1,-5,1,0,-8,-2,0,8
1570179845727539,24,17,3,3,4,0,-10,29
1570179845727539,-15,-11,-1,-5,-6,-2,4,38
1570179845728537,-19,-6,0,0,2,0,5,10
1570179845728537,7,0,0,2,-4,-2,-4,30
1570179845749482,-3,-3,-8,-6,-3,-3,-10,3
1570179845749482,-5,1,4,0,1,-3,-9,9
1570179845751590,-14,-8,0,3,2,1,11,3
1570179845751590,25,10,4,1,-1,6,-7,62
1570179845763481,9,5,4,-1,1,0,4,29
1570179845763481,-4,-8,-4,0,-2,0,3,9
1570179845772420,5,-2,-3,1,4,2,3,-10
1570179845772420,-12,-4,-6,-5,-6,-3,2,-16
1570179845787416,5,3,3,0,0,3,6,-8
1570179845787416,2,-2,-2,-1,-1,0,4,14
1570179845789069,-14,0,5,3,4,-2,-9,-6
1570179845789069,-4,0,-4,-2,1,1,1,-14
1570179845809360,-5,-8,-2,1,-4,-2,2,-18
1570179845809360,-15,-5,-3,1,-1,-2,-4,-45
1570179845811384,19,16,10,3,2,1,3,-5
1570179845811384,-20,-9,-4,-2,-4,-2,2,-27
1570179845823283,15,6,0,-2,1,2,6,2
1570179845823283,14,2,0,1,-2,0,2,-15
1570179845832289,2,-1,-2,1,1,0,2,0
1570179845832289,-14,-7,-4,-4,-4,-6,-13,-7
1570179845847220,-1,0,-1,-2,-1,-3,2,86
1570179845847220,-3,3,0,0,1,-1,1,91
1570179845849300,-13,-5,0,0,-1,-2,-6,126
1570179845849300,13,2,-1,-2,-1,-1,5,121
1570179845871239,-9,-3,-2,-2,-2,-4,-3,107
1570179845871239,-3,-1,0,-2,2,1,3,127
1570179845873155,3,4,1,1,0,3,5,126
1570179845873155,4,-7,-3,-2,0,1,4,25
1570179845883123,-16,7,4,5,1,-4,-14,-119
1570179845883123,14,2,1,3,-2,0,1,-113
1570179845892554,-25,-4,-1,-1,-3,-3,-8,-128
1570179845892554,13,-8,-11,-3,-3,-2,1,-117
1570179845907157,4,-6,-4,-4,-2,-1,3,-125
1570179845907157,-8,0,1,2,1,3,-2,-128
1570179845909085,2,-8,-8,-10,-13,-5,-8,-128
1570179845909085,-14,0,8,9,5,-4,-6,-114
1570179845929038,12,5,5,2,1,-1,1,-102
1570179845929038,-3,0,1,-2,1,0,-2,-73
1570179845937550,6,-5,-4,-7,-6,-3,-1,-70
1570179845937550,2,2,0,-5,-3,4,8,-53
1570179845943003,8,-2,-4,-8,-2,-2,-4,-46
1570179845943003,-1,0,2,-2,2,0,-3,-18
1570179845951939,-16,5,2,1,4,-1,-2,-28
1570179845951939,37,6,-5,-8,-5,-6,-3,-26
1570179845966904,-14,0,1,4,2,3,5,-8
1570179845966904,-7,-6,-5,-4,-3,5,10,-4
1570179845972932,3,10,11,8,6,-1,-17,-14
1570179845972932,35,14,12,11,7,4,3,-7
1570179845989906,-50,-4,-2,-5,-5,-2,-2,-2
1570179845989906,35,6,-10,-5,-1,-2,-2,0
1570179845990872,-23,-13,1,7,3,4,9,-9
1570179845990872,29,18,-1,-5,-2,-2,-5,0
1570179846003801,-62,-35,-6,-4,-1,0,-1,-1
1570179846003801,-1,2,-2,-4,-5,1,-1,-3
1570179846011817,-2,4,13,6,5,-1,4,-2
1570179846011817,-7,3,-2,1,-2,-1,-6,-2
1570179846026742,24,11,7,4,3,0,1,-2
1570179846026742,-3,-9,-4,0,-2,-1,1,0
1570179846033725,29,-4,-11,-8,-2,1,3,-2
1570179846033725,-36,-10,-4,-8,-7,-3,-5,-2
1570179846049904,33,9,2,0,0,-2,-7,-2
1570179846049904,10,10,6,8,2,-3,-6,1
1570179846051739,18,11,1,0,-1,0,-1,-2
1570179846051739,-41,-24,-3,0,-3,-2,-2,-3
1570179846063644,0,-6,-9,-7,-4,-1,-1,0
1570179846063644,-3,3,8,4,3,-2,-3,0
1570179846072622,-3,-4,-2,1,2,1,3,-2
1570179846072622,8,4,-6,-9,-3,-2,-1,-1
1570179846086616,6,7,-7,1,0,-2,4,0
1570179846086616,-33,-16,7,4,0,-2,-2,0
1570179846093565,9,3,-2,-2,-3,0,0,-2
1570179846093565,19,3,6,2,2,1,5,0
1570179846117536,-36,-14,-3,-1,-1,-2,-5,0
1570179846117536,20,-4,-10,-8,-2,-2,0,-1
1570179846118501,-37,-10,-6,1,2,-1,-7,-1
1570179846118501,17,4,4,1,-2,1,4,-1
1570179846123563,-2,11,5,1,5,2,4,-32
1570179846123563,29,25,10,5,3,1,-2,-40
1570179846132644,-31,-31,-10,-6,-3,-1,-1,-67
1570179846132644,-16,2,-6,1,-1,1,-2,-60
1570179846146419,13,3,1,1,0,-1,-2,-44
1570179846146419,13,0,-5,-4,-8,-9,2,20
1570179846153401,18,5,1,2,2,4,1,-17
1570179846153401,9,6,4,3,3,1,4,-13
1570179846169435,-22,-12,-5,-3,-1,0,1,-18
1570179846169435,-4,-16,-9,-6,-2,0,9,-38
1570179846171353,0,4,6,0,-1,-4,0,10
1570179846171353,-5,2,0,2,6,-1,-2,7
1570179846183325,5,4,3,6,0,-3,3,23
1570179846183325,-68,-12,-2,2,4,9,0,-20
1570179846192297,3,-16,-9,-7,-14,-7,-6,-6
1570179846192297,-22,-1,4,3,10,-2,3,-18
1570179846206295,32,1,-5,1,17,6,2,3
1570179846206295,10,10,6,2,-7,0,10,9
1570179846213395,12,10,-1,-6,-30,-19,0,20
1570179846213395,19,1,-2,-3,-6,1,-9,46
1570179846230221,14,-2,0,-1,-2,-3,0,18
1570179846230221,0,0,-1,-1,8,0,2,6
1570179846231193,24,11,3,3,13,8,3,33
1570179846231193,-9,-6,-4,-4,-4,-1,-8,-37
1570179846252136,-1,1,-1,-3,-2,1,-1,-8
1570179846252136,1,4,2,3,4,3,6,-16
1570179846254131,-25,-6,-3,1,3,1,-5,-26
1570179846254131,-9,-8,-8,-6,-6,-7,-10,-29
1570179846266137,-13,-9,-3,-4,-5,0,0,13
1570179846266137,4,2,1,-1,-6,1,6,30
1570179846273119,20,11,1,1,5,0,-14,18
1570179846273119,-16,-7,2,4,2,-1,-5,27
1570179846290035,13,5,-2,-3,-7,-6,-7,-6
1570179846290035,11,-3,-3,-2,-1,2,0,-26
1570179846291111,-29,-3,0,1,8,26,28,-53
1570179846291111,-7,-2,-1,-3,-3,-4,19,-35
1570179846312146,-6,0,0,-2,-8,-8,-15,-49
1570179846312146,18,6,4,2,7,-2,-14,27
1570179846313975,12,-2,-2,-3,2,-10,0,29
1570179846313975,-4,-3,0,-2,-5,6,9,7
1570179846325939,5,0,-2,-1,-6,-2,5,3
1570179846325939,-14,-6,-3,-2,-1,2,-5,-18
1570179846335054,2,4,1,0,-1,-4,-6,-19
1570179846335054,5,0,0,0,-2,-2,-2,30
1570179846356940,5,-2,0,-2,-4,-1,-3,19
1570179846356940,3,4,2,0,-3,-6,-10,23
1570179846359003,4,1,1,0,1,-2,-1,28
1570179846359003,-2,-2,-1,-1,-1,-1,6,1
1570179846371875,2,1,-2,0,1,7,3,10
1570179846371875,8,-4,-4,-2,-4,-2,3,17
1570179846373935,-23,-6,-4,-3,-3,-8,-11,-43
1570179846373935,-23,-6,-1,1,3,1,-5,-23
1570179846385779,18,3,0,-2,-1,1,7,28
1570179846385779,-4,-4,-4,-3,-5,-10,-3,-11
1570179846394779,3,3,2,3,4,9,7,7
1570179846394779,9,3,0,1,1,1,-7,40
1570179846409753,0,0,1,0,-1,4,2,14
1570179846409753,-7,-3,-2,-3,-5,-16,-6,-7
1570179846411710,8,0,0,1,2,-4,2,21
1570179846411710,-5,-3,-2,-3,-1,-2,-2,1
1570179846432654,2,0,-1,0,-1,-4,3,-3
1570179846432654,-2,-1,-1,0,1,10,3,0
1570179846433652,4,2,-1,0,-4,-4,-22,14
1570179846433652,12,0,-2,-1,-1,-4,3,19
1570179846445621,-19,-7,-3,-4,-1,-3,-6,-71
1570179846445621,-6,1,0,1,-2,-3,0,18
1570179846454836,11,-1,-1,-2,-1,2,3,17
1570179846454836,-2,0,1,1,0,0,-4,4
1570179846469555,6,0,-1,-2,-1,0,2,12
1570179846469555,-3,1,1,1,2,4,-4,1
1570179846471550,-5,4,3,2,2,-2,2,-15
1570179846471550,-10,-13,-7,-2,-4,-1,2,-7
1570179846492494,7,0,-2,-2,-4,-1,6,18
1570179846492494,-6,-3,0,-1,-1,-3,-5,-9
1570179846493923,7,2,0,1,-1,1,7,43
1570179846493923,11,6,4,2,2,2,5,12
1570179846506456,-8,-1,0,1,1,-1,-15,10
1570179846506456,6,0,-2,0,1,-1,-2,10
1570179846513442,3,1,0,-1,1,1,2,-6
1570179846513442,-9,0,2,0,3,7,0,0
1570179846529429,22,5,-1,-1,-3,-2,5,47
1570179846529429,-9,-2,0,0,0,-1,-1,-13
1570179846531391,7,2,2,2,5,6,0,7
1570179846531391,-23,-7,-4,-2,-2,-2,-9,-38
1570179846552374,17,1,0,0,-3,-3,6,39
1570179846552374,-2,-1,-2,-3,-2,1,-3,5
1570179846554493,6,-2,-2,-5,-3,-2,3,1
1570179846554493,-5,-1,1,-1,0,-2,-2,-6
1570179846566297,0,-1,-1,4,7,9,-2,32
1570179846566297,8,3,2,-1,-3,-4,-1,36
1570179846581259,-9,-2,-2,-1,-3,2,4,-11
1570179846581259,13,7,5,3,1,1,-5,18
1570179846589279,-6,-3,-3,-2,0,-2,-4,-24
1570179846589279,-10,-11,-4,-1,-4,-5,-2,-9
1570179846591282,-11,-4,-5,-5,0,3,0,-21
1570179846591282,4,4,1,1,-3,-4,-3,6
1570179846612179,-3,3,3,1,-3,-2,0,-18
1570179846612179,-3,0,-1,0,-1,3,-5,-7
1570179846614199,-13,-3,-3,-2,-4,-10,-9,-51
1570179846614199,6,-2,0,-1,2,2,7,0
1570179846626136,4,3,-3,-1,0,-4,0,-14
1570179846626136,-24,1,-1,-3,-1,2,8,-16
1570179846633118,43,7,-2,-2,-4,-9,6,58
1570179846633118,-19,-8,-4,-3,-1,-3,-25,-34
1570179846650072,1,-6,-1,0,-1,-1,1,10
1570179846650072,-8,0,2,0,0,1,0,-13
1570179846651125,-3,0,1,0,0,-6,-1,-4
1570179846651125,-22,-18,1,0,3,2,12,11
1570179846672014,44,35,3,0,-4,-3,-2,-11
1570179846672014,27,15,-7,-6,-5,-2,-5,5
1570179846674012,-95,-53,-6,-2,-2,4,-4,-21
1570179846674012,62,36,5,0,0,0,12,27
1570179846686974,-38,-32,-2,2,3,2,-4,-21
1570179846686974,-24,-11,-7,-6,-6,-11,-7,-9
1570179846693644,7,-16,-6,0,-1,7,0,8
1570179846693644,59,36,-3,-4,-3,-3,-1,10
1570179846709912,-37,-29,-6,-2,-1,-1,-6,-37
1570179846709912,35,25,4,4,0,-1,-2,16
1570179846711021,61,22,3,0,0,-5,2,11
1570179846711021,15,-19,9,8,6,9,17,-12
1570179846731858,74,32,-9,-6,-5,-10,-20,27
1570179846731858,44,-7,0,-1,3,2,-1,-3
1570179846733852,7,11,4,0,0,2,4,-12
1570179846733852,-20,-10,0,3,4,4,-3,29
1570179846745819,-35,-11,9,3,1,-2,11,2
1570179846745819,0,19,-5,-3,-1,2,-2,-17
1570179846754891,30,20,7,3,4,14,9,24
1570179846754891,-40,-5,-10,-5,-1,-4,-6,-17
1570179846769794,-53,-31,-8,-6,-6,3,-5,-5
1570179846769794,-6,-11,3,3,5,0,1,15
1570179846770782,-6,-2,-1,-1,0,-2,-11,-18
1570179846770782,-6,7,1,-1,-3,-9,4,3
1570179846791732,-8,-15,-2,-1,5,14,4,-10
1570179846791732,-4,3,3,0,2,9,6,-3
1570179846793814,-8,2,1,1,-3,-3,-5,1
1570179846793814,-25,-15,-2,-2,-1,-6,-5,-9
1570179846805712,31,26,4,1,-1,-4,5,5
1570179846805712,-8,-10,-1,1,1,-5,-8,4
1570179846814634,-22,-6,0,2,4,0,-3,-45
1570179846814634,23,0,-7,-7,-8,-14,4,39
1570179846829592,-21,-3,1,-3,-2,-6,8,-54
1570179846829592,-5,-11,-3,-2,-8,1,9,12
1570179846831642,-3,4,2,0,-1,-1,-28,23
1570179846831642,-3,-3,-2,-1,3,-4,-4,-39
1570179846860094,4,3,1,3,3,5,6,8
1570179846860094,-10,-9,-1,1,-4,-8,1,-4
1570179846861511,18,10,-1,0,2,8,13,17
1570179846861511,-11,-7,-3,-1,-7,4,3,-6
1570179846865538,-11,-8,0,2,6,2,1,26
1570179846865538,3,0,5,5,3,-8,-3,-19
1570179846875034,81,32,8,4,9,22,22,47
1570179846875034,8,-14,-8,-7,-18,-17,-15,-16
1570179846889475,-21,-27,1,3,7,14,3,-14
1570179846889475,64,26,-2,-6,-9,-33,-21,-18
1570179846897411,7,19,12,6,6,-4,9,7
1570179846897411,31,28,10,4,5,18,11,30
1570179846912371,12,-8,-10,-6,-9,-12,-11,-7
1570179846912371,-1,-7,-2,-7,-4,13,10,0
1570179846913483,-22,-10,3,5,5,0,0,29
1570179846913483,12,-3,2,2,10,13,7,11
1570179846936307,61,44,1,-8,-29,-10,-13,-24
1570179846936307,-33,-9,3,5,19,3,2,3
1570179846937305,-3,-9,-9,-6,-9,-16,-2,-23
1570179846937305,-13,-11,3,8,11,3,-12,99
1570179846949583,-5,-5,-2,-2,-1,0,5,11
1570179846949583,-12,-3,-7,-3,-3,6,-1,0
1570179846951321,-38,-19,-5,-5,-9,-6,-3,-29
1570179846951321,-26,-22,-10,-8,-8,-9,-5,-44
1570179846972302,-19,-9,2,2,2,-2,3,8
1570179846972302,24,25,2,-1,-3,4,-3,17
1570179846974206,-18,-13,-2,-1,-1,-10,-12,-23
1570179846974206,10,1,-3,0,-2,3,-3,40
1570179846986174,27,12,5,4,8,-7,-6,17
1570179846986174,-22,-13,2,1,1,11,3,-2
1570179846995149,18,3,-7,-10,-10,-9,-10,8
1570179846995149,-16,-10,-5,-5,-8,-9,-5,-41
1570179847010159,7,6,0,2,-1,1,10,25
1570179847010159,5,-5,-1,1,0,1,1,11
1570179847011107,-25,-13,-6,-3,-7,-7,-5,-59
1570179847011107,24,15,4,0,-1,-3,-16,-9
1570179847032050,-7,0,0,1,7,8,2,-3
1570179847032050,-16,-8,-3,-2,-4,0,-1,-13
1570179847034045,5,1,-4,-1,4,5,2,1
1570179847034045,-17,-3,0,0,-4,-5,3,-36
1570179847046014,-8,2,-1,1,0,-1,-1,-11
1570179847046014,-7,-7,-1,0,-1,-2,1,6
1570179847055093,-5,-2,-2,-1,-1,0,1,10
1570179847055093,-2,6,1,-1,-1,0,2,-17
1570179847069950,-6,-4,-4,-3,-2,-2,-7,-7
1570179847069950,-1,-4,-2,0,0,4,3,8
1570179847070947,11,-1,-1,1,1,-3,2,31
1570179847070947,-2,-1,-2,0,0,2,-7,5
1570179847091927,5,2,0,-1,3,3,1,-7
1570179847091927,-10,-5,-2,-2,-6,-21,-3,-17
1570179847093886,-6,-1,1,-2,0,6,3,1
1570179847093886,-3,-3,-1,-2,-1,-1,6,-13
1570179847105879,-2,2,0,-1,1,2,6,15
1570179847105879,3,-1,1,1,1,4,-3,-7
1570179847114831,0,-3,-3,-1,-2,-3,2,21
1570179847114831,2,2,0,-1,1,1,2,5
1570179847129871,5,0,0,1,2,-4,0,9
1570179847129871,7,1,1,-1,3,6,4,23
1570179847130789,-7,0,-1,0,-3,-6,-6,-22
1570179847130789,-5,0,-2,0,0,7,4,-3
1570179847154001,1,0,-1,-2,-1,-6,0,6
1570179847154001,-7,-3,-1,-3,0,1,1,-12
1570179847155721,-5,1,0,-1,-1,1,-2,-4
1570179847155721,2,-1,-2,-1,-1,-1,3,7
1570179847174736,-12,-2,-1,0,-2,3,5,-31
1570179847174736,-2,0,2,2,-1,-7,-3,17
1570179847176669,8,2,0,1,0,-3,-1,24
1570179847176669,-3,-1,-2,-1,-1,1,5,1
1570179847189700,7,0,0,-1,-3,-4,-3,15
1570179847189700,0,-2,0,0,0,7,7,3
1570179847191628,-5,-1,1,0,0,-2,0,-10
1570179847191628,3,-1,-1,-2,-1,-1,2,16
1570179847212568,2,0,1,0,-1,1,-5,0
1570179847212568,6,2,-1,-1,0,3,3,1
1570179847213635,0,0,-2,1,-1,0,0,0
1570179847213635,-8,0,1,0,-1,-3,-6,-20
1570179847234510,-8,-1,-1,-1,0,-1,-2,-7
1570179847234510,-5,-3,-3,0,0,2,-2,-7
1570179847236505,0,-1,-2,-2,0,0,2,-1
1570179847236505,-2,-1,1,0,1,1,2,-6
1570179847249470,2,-1,0,-2,1,0,-1,7
1570179847249470,-3,-1,-2,-3,0,1,-1,-5
1570179847251464,-5,-1,-2,-2,-2,0,0,-4
1570179847251464,1,0,-2,-1,-1,-1,-1,1
1570179847272477,-5,-2,-4,-1,1,0,-2,-4
1570179847272477,-1,-2,0,2,-1,0,1,2
1570179847273406,3,-2,-4,-3,-3,-2,-4,3
1570179847273406,5,3,-2,-1,-2,-2,-1,7
1570179847294389,-2,-5,0,-2,-2,0,2,2
1570179847294389,4,10,5,2,1,-2,0,-5
1570179847296348,-7,0,-6,-4,-2,-2,-2,-21
1570179847296348,-6,-4,-4,-4,-4,-2,-5,-2
1570179847309314,-4,-8,1,1,1,-1,-1,1
1570179847309314,-1,2,1,1,-1,2,0,0
1570179847323272,2,3,3,-9,-8,-5,-6,-8
1570179847323272,-1,-7,-14,-1,2,0,2,5
1570179847332286,18,9,-2,-9,-5,-8,-5,-5
1570179847332286,-26,-16,-18,-10,-3,7,-2,-11
1570179847334244,6,16,-8,-3,1,4,2,11
1570179847334244,14,-5,38,18,-10,-3,1,-4
1570179847355190,-54,-31,-28,-6,4,-1,1,4
1570179847355190,60,41,7,12,10,11,1,-1
1570179847356185,-1,30,81,33,10,-2,9,11
1570179847356185,-1,-17,-9,2,1,-11,-6,-2
1570179847368193,48,11,-2,5,5,5,9,22
1570179847368193,-10,8,-8,-22,-14,-17,-16,-22
1570179847377247,-4,-7,-7,3,-1,1,0,3
1570179847377247,9,9,-5,-12,-10,5,-1,-9
1570179847392088,-45,-20,5,2,0,-1,0,-9
1570179847392088,-28,-39,-52,-21,-7,-5,-3,-5
1570179847394084,19,10,-23,-11,-3,8,2,5
1570179847394084,27,25,44,17,5,-15,0,8
1570179847415123,-17,-12,-13,0,2,8,-5,-13
1570179847415123,11,10,28,11,-3,-2,0,-1
1570179847416374,-24,-10,8,3,-2,-2,-6,-5
1570179847416374,13,16,-7,-4,2,7,5,7
1570179847428060,-5,-3,-7,-3,-5,-4,-4,-1
1570179847428060,-1,-12,-5,2,3,-4,-1,2
1570179847437047,0,-21,-36,-15,-6,-4,-3,-7
1570179847437047,5,3,-12,-7,0,4,1,-1
1570179847451987,-1,17,26,8,6,-2,-2,-3
1570179847451987,-12,-7,8,-2,-12,1,3,0
1570179847454013,15,-2,-19,-4,2,0,-1,-3
1570179847454013,-18,-6,1,1,-2,2,0,-4
1570179847474903,8,15,12,-3,-14,-1,-2,-4
1570179847474903,2,-1,1,3,15,4,1,2
1570179847476692,1,6,-3,-2,1,2,0,-3
1570179847476692,-15,-7,11,9,19,2,-1,-4
1570179847487835,25,5,2,2,2,3,2,2
1570179847487835,12,5,22,2,-16,1,2,2
1570179847497868,-68,-38,-44,-11,-18,-5,-6,-10
1570179847497868,-12,-5,-28,-23,-21,-4,-5,-3
1570179847511956,2,-13,5,-2,-9,-7,-3,4
1570179847511956,0,4,24,16,2,3,2,-4
1570179847513893,18,24,26,16,21,0,-1,3
1570179847513893,-4,-3,3,1,-2,3,2,-1
1570179847534784,-2,-1,-13,-8,0,-2,1,3
1570179847534784,-9,-18,-10,-1,-9,-5,-4,-13
1570179847536702,8,-4,-16,-7,11,2,0,-4
1570179847536702,-8,10,17,3,4,2,2,-1
1570179847548792,3,-10,-9,-9,-2,0,-2,-1
1570179847548792,12,15,3,1,-3,-3,-1,6
1570179847557645,7,2,11,-3,-2,-2,1,3
1570179847557645,-7,-11,-22,2,6,2,-2,-6
1570179847572606,-1,3,6,2,5,0,0,1
1570179847572606,-4,4,-5,-1,-3,2,4,5
1570179847573608,0,-8,4,1,-3,-3,-2,0
1570179847573608,-14,-16,-5,-2,0,-1,-4,-4
1570179847594587,4,15,9,8,-9,-3,-4,0
1570179847594587,6,1,-14,-3,16,4,2,7
1570179847596677,-6,-10,0,-4,-2,-4,-3,-3
1570179847596677,0,13,8,0,6,0,2,1
1570179847608513,-7,-10,-8,-9,-6,1,2,-5
1570179847608513,6,11,-3,-5,-1,0,0,2
1570179847617486,-12,-22,6,-2,-8,1,2,-2
1570179847617486,12,14,-6,11,2,-6,-3,0
1570179847632446,-14,-1,1,3,-1,1,-1,-7
1570179847632446,1,3,-1,-2,3,-2,0,3
1570179847633498,19,4,-1,7,-4,-3,-3,-2
1570179847633498,-13,-12,-8,-16,-7,1,-1,-2
1570179847654482,1,8,2,2,5,1,1,2
1570179847654482,-3,6,9,7,7,2,-1,-1
1570179847660406,7,5,2,0,3,1,2,0
1570179847660406,-11,-7,1,2,1,-1,-2,-6
1570179847668385,9,-5,-7,-4,-6,-2,-1,0
1570179847668385,-16,-1,-8,-6,1,-9,-3,3
1570179847694280,19,15,8,2,3,0,0,5
1570179847694280,9,-19,-12,-7,-11,-1,-2,-1
1570179847695279,0,10,7,3,4,1,3,10
1570179847695279,-24,-28,-1,6,4,1,-3,-13
1570179847698269,15,25,6,0,-5,3,3,2
1570179847698269,-5,-10,0,-1,1,1,-1,-5
1570179847714227,9,3,-2,-3,3,-1,-4,-4
1570179847714227,4,-1,3,5,8,3,-1,3
1570179847716249,-7,-8,-5,-2,-7,-2,0,-2
1570179847716249,-14,0,-5,-5,-1,2,1,-2
1570179847728208,3,-4,-6,2,2,0,2,8
1570179847728208,4,6,1,-4,-6,0,3,8
1570179847737258,-16,-9,2,-1,3,-1,-3,-20
1570179847737258,26,13,-2,-5,-10,-2,2,-4
1570179847752184,-14,-18,-8,-6,-10,1,2,-6
1570179847752184,11,24,11,8,4,-4,-3,-7
1570179847754120,-1,-7,5,-1,0,1,1,-2
1570179847754120,4,14,7,2,-2,-1,1,5
1570179847775064,-3,-1,-7,-2,2,-1,-4,-6
1570179847775064,10,-5,-13,-6,0,0,-1,-5
1570179847776335,-11,2,2,-2,1,0,-2,-7
1570179847776335,-14,-37,-1,-1,-6,2,0,1
1570179847788029,4,-2,0,0,5,0,6,18
1570179847788029,0,7,-12,-4,-3,-1,-14,-31
1570179847798003,1,0,14,4,-8,-2,0,0
1570179847798003,-3,7,-6,-1,2,-1,-6,-25
1570179847813060,6,5,9,-3,-13,-2,0,-20
1570179847813060,-16,-7,1,1,2,0,4,-21
1570179847814067,-2,-1,-8,4,10,1,1,-3
1570179847814067,-7,-5,-9,-19,-33,-5,2,-10
1570179847835086,6,5,3,18,38,2,-1,-25
1570179847835086,-6,-2,0,-6,-6,-1,-1,-11
1570179847836390,-3,-6,-1,2,4,1,-2,3
1570179847836390,11,10,7,0,0,0,-1,15
1570179847847870,1,9,-2,-7,-7,-3,-5,-51
1570179847847870,-5,-15,1,-2,-4,1,4,-40
1570179847857550,4,-9,-10,-1,-1,-2,1,-70
1570179847857550,-14,25,11,3,10,-3,-2,-128
1570179847871869,25,4,8,-1,-8,-4,-5,-115
1570179847871869,6,-17,-10,-1,7,1,1,-11
1570179847873937,-5,-5,-6,-10,-16,-3,-1,34
1570179847873937,5,8,0,6,15,3,1,76
1570179847894745,-2,5,1,-7,-12,-1,-4,90
1570179847894745,5,3,7,-6,0,1,2,65
1570179847896739,0,0,-8,20,31,3,2,55
1570179847896739,-1,-6,-7,-3,2,0,4,51
1570179847908707,-7,0,2,2,2,0,3,44
1570179847908707,-1,-7,-3,-9,-18,-6,-1,36
1570179847917683,-20,-5,-3,-8,-6,-4,-6,19
1570179847917683,3,1,-5,3,11,2,-3,18
1570179847931685,-3,0,-1,-1,-5,2,4,22
1570179847931685,5,8,5,10,7,-3,-1,15
1570179847938666,13,6,-4,-7,-11,0,2,103
1570179847938666,-8,-24,-1,5,1,-1,1,115
1570179847954653,-6,0,-5,-9,-8,-3,-2,127
1570179847954653,-7,-13,-6,-1,3,1,4,56
1570179847956581,4,15,13,-8,-10,1,2,-107
1570179847956581,8,13,8,-1,5,-2,0,-126
1570179847968620,-9,-5,5,22,19,2,9,-128
1570179847968620,-4,-1,-4,-5,1,0,9,-128
1570179847977524,5,-4,-5,-6,-13,-2,11,-124
1570179847977524,-3,-4,-9,-7,1,2,4,-128
1570179847999464,0,5,6,4,-1,0,-1,-124
1570179847999464,-1,-4,1,2,-1,-1,0,-102
1570179848001458,4,-6,-7,-3,1,-1,-5,-86
1570179848001458,-1,-2,-4,0,-5,-2,-5,-69
1570179848014424,-1,-5,-8,-5,-4,-1,-6,-57
1570179848014424,-2,9,9,4,0,0,-5,-46
1570179848022463,1,-5,-1,-3,-3,-2,-3,-34
1570179848022463,-10,-6,3,5,-9,-3,-3,-23
1570179848028622,11,18,8,2,12,3,-4,-21
1570179848028622,-4,-5,-1,2,-1,0,-6,-17
1570179848037440,0,3,1,2,3,0,-1,-10
1570179848037440,-7,-11,-5,4,6,1,2,-5
1570179848050366,8,9,2,-9,-12,-3,-1,-8
1570179848050366,-10,-10,-2,-1,-3,-1,-5,-5
1570179848060303,2,-8,-6,3,4,1,-1,-2
1570179848060303,14,28,-5,-1,0,-1,-10,-3
1570179848075266,-2,-23,6,0,-4,-1,-3,-5
1570179848075266,-4,-1,5,3,0,0,3,-2
1570179848081307,-8,1,7,3,1,1,-1,-1
1570179848081307,6,-5,-6,-3,-2,2,2,-2
1570179848088256,5,8,-9,-1,0,-2,-5,-3
1570179848088256,-1,3,-2,-3,-3,-1,-2,-18
1570179848097207,-5,-9,-9,-3,-2,-2,-4,-57
1570179848097207,-2,8,10,2,2,-1,1,-58
1570179848111203,-2,-10,-4,0,0,1,1,-64
1570179848111203,19,-2,2,1,-1,0,0,-48
1570179848118188,2,14,3,-2,-13,0,-4,-54
1570179848118188,-14,-13,-5,2,12,0,-3,-38
1570179848135102,-17,-8,-3,-2,-2,0,2,-13
1570179848135102,-5,3,0,-2,-1,1,3,-10
1570179848136099,16,6,2,1,4,0,-11,-13
1570179848136099,-19,-8,1,-6,-4,0,4,20
1570179848157047,19,0,-5,-2,-3,-4,-3,13
1570179848157047,-11,5,-6,-5,0,-2,-8,-10
1570179848158629,9,1,-3,-2,4,0,6,24
1570179848158629,12,-3,-2,1,-3,-2,-6,-8
1570179848171008,-17,-7,3,0,3,1,-1,-1
1570179848171008,3,12,8,3,-3,1,4,18
1570179848177988,-18,-11,2,1,4,0,-2,-3
1570179848177988,-1,-18,-13,-6,-4,0,0,24
1570179848195034,-2,-1,-8,-4,-2,-1,2,7
1570179848195034,4,-1,0,1,-2,-2,-6,1
1570179848196478,-17,-5,2,-2,1,1,-1,-12
1570179848196478,24,14,5,3,2,-1,2,24
1570179848216883,15,8,-2,-5,-5,-4,-5,-2
1570179848216883,-17,-13,-5,-2,-3,0,2,11
1570179848219023,-8,-9,-5,0,1,0,3,17
1570179848219023,11,11,11,1,0,0,0,3
1570179848231843,-4,-8,3,1,1,1,0,17
1570179848231843,40,9,-5,-2,-2,-1,1,12
1570179848238829,-13,-5,-3,-1,0,0,1,12
1570179848238829,-19,-15,-7,-7,-7,-5,-11,-14
1570179848254781,-4,0,2,0,0,0,-7,15
1570179848254781,-19,-3,1,0,2,3,-11,1
1570179848256081,8,6,3,1,-1,-3,-8,0
1570179848256081,-12,7,12,7,5,1,-6,-6
1570179848284706,0,1,-4,-3,0,-1,-10,3
1570179848284706,-7,-13,-8,-4,-4,-2,-6,-11
1570179848286696,-11,2,6,1,0,1,1,12
1570179848286696,49,15,-2,1,-1,-2,7,39
1570179848299726,-11,-3,-2,2,-2,-1,7,4
1570179848299726,11,-8,-8,-7,-5,-5,7,31
1570179848301658,-8,-4,1,-1,-2,1,13,42
1570179848301658,-14,-5,-3,-2,-2,-1,8,11
1570179848314660,-5,7,6,3,0,1,7,-22
1570179848314660,-2,1,2,1,1,0,1,-27
1570179848316618,13,-2,-7,-2,-3,-2,1,3
1570179848316618,-9,-4,-3,-2,-2,-1,7,44
1570179848337567,2,-6,-5,-3,2,-2,-5,-7
1570179848337567,-14,0,1,-4,-11,-3,3,-44
1570179848338563,-9,0,7,3,4,-1,5,-29
1570179848338563,72,13,2,4,6,3,8,13
1570179848359531,-53,-20,-12,-7,-5,-5,-3,-88
1570179848359531,37,7,-2,-1,0,-1,1,-106
1570179848361496,-12,-2,-1,1,-2,-1,0,-34
1570179848361496,6,5,-1,3,-1,-1,2,12
1570179848375157,-28,-11,-3,3,0,1,4,99
1570179848375157,-33,-1,7,9,4,1,-2,115
1570179848376456,59,6,-6,-6,-8,-6,-12,84
1570179848376456,-39,-11,5,-2,0,0,1,50
1570179848397400,32,5,4,-2,-3,1,-2,69
1570179848397400,-25,5,1,1,3,0,4,66
1570179848398397,2,0,-1,-1,1,0,4,46
1570179848398397,-31,-12,0,-5,-3,-2,-2,16
1570179848411426,8,10,2,-1,0,1,7,27
1570179848411426,-1,-3,1,-4,-1,1,-5,39
1570179848420015,3,2,-3,-6,-5,-2,0,22
1570179848420015,-8,-9,-2,3,8,0,-7,-8
1570179848434643,58,21,6,0,-4,1,2,8
1570179848434643,-46,-29,-11,-7,2,-6,-5,21
1570179848436296,10,8,2,9,15,1,-6,5
1570179848436296,-44,-8,0,-13,-21,0,1,-14
1570179848464222,4,13,5,9,23,2,12,4
1570179848464222,45,8,-2,-8,-17,-3,-7,12
1570179848466244,-13,-7,-3,0,1,-4,-2,1
1570179848466244,-38,-4,-4,0,-1,1,-1,-8
1570179848471203,19,-12,-11,-5,-9,-4,-2,4
1570179848471203,-11,-2,1,-1,4,2,3,6
1570179848480180,13,1,-3,-8,-7,-3,-2,0
1570179848480180,7,6,4,4,5,1,3,-6
1570179848494182,-39,-4,-1,0,-5,-2,-6,0
1570179848494182,9,10,4,3,-2,3,6,112
1570179848496136,9,-7,0,5,5,5,5,124
1570179848496136,45,-8,-17,-11,-7,-7,-12,18
1570179848517117,-15,-8,-9,-3,-2,-2,-4,-93
1570179848517117,-4,2,7,5,4,-2,-3,-128
1570179848525788,-61,-28,-8,-5,-13,-2,0,-128
1570179848525788,18,15,5,-5,-32,0,-1,-123
1570179848531130,45,12,2,10,29,9,16,-107
1570179848531130,-73,-30,-14,-12,6,-1,5,-128
1570179848540062,44,17,18,18,26,0,-15,-77
1570179848540062,-12,-12,2,-7,-3,-7,-5,-121
1570179848553987,4,0,-8,-14,-26,-6,4,-97
1570179848553987,37,16,9,5,6,5,9,-125
1570179848562549,24,11,-7,-10,-6,-5,-4,-128
1570179848562549,-12,8,2,7,4,1,-7,-79
1570179848577918,-3,5,11,-1,-5,4,6,-28
1570179848577918,51,22,-5,-1,-6,-7,-17,-25
1570179848578915,-4,-9,-8,-5,-8,-7,-17,0
1570179848578915,36,0,1,-2,7,6,15,54
1570179848590883,-15,-4,2,-2,-7,-5,-9,26
1570179848590883,-50,-14,0,1,3,1,-4,-48
1570179848599859,-8,4,-3,3,-14,-5,9,-34
1570179848599859,-12,-4,-3,6,17,1,5,-53
1570179848614819,27,6,3,-6,4,2,18,-79
1570179848614819,-31,-14,20,14,9,11,7,13
1570179848616383,21,37,-19,-23,-25,-9,0,-14
1570179848616383,-86,-32,-2,2,3,-6,-5,-17
1570179848636760,-65,-34,-12,-4,-18,-10,-18,8
1570179848636760,43,11,-1,-1,-3,4,2,15
1570179848638755,-25,-19,3,6,19,1,9,-7
1570179848638755,28,12,4,1,8,1,0,24
1570179848650806,12,17,13,11,-3,5,-3,18
1570179848650806,8,-4,-11,-9,9,-2,0,-2
1570179848660078,-14,-8,-2,-7,-5,2,1,-6
1570179848660078,2,-11,-12,-4,-5,1,-15,-12
1570179848674658,-24,4,14,12,17,4,5,-3
1570179848674658,52,7,-11,-10,-15,-8,-3,25
1570179848676677,0,1,5,6,10,5,-9,2
1570179848676677,-32,9,-2,1,-1,-3,-10,-19
1570179848697622,50,-1,-17,-9,-12,-3,-1,-20
1570179848697622,30,-21,-3,-1,0,-7,7,-9
1570179848698948,39,14,22,7,-11,3,0,40
1570179848698948,22,-2,-2,9,36,2,-8,-40
1570179848712558,19,16,-12,-11,-18,-8,-11,-33
1570179848712558,23,14,8,15,51,9,7,-21
1570179848719540,-103,-47,-2,1,-7,0,1,-20
1570179848719540,47,25,3,2,-7,0,4,19
1570179848734499,-23,-17,-5,0,4,2,-5,29
1570179848734499,6,8,-6,-5,-17,-1,-2,19
1570179848736600,12,4,-3,-5,3,3,2,5
1570179848736600,-5,-3,3,2,-1,1,4,5
1570179848756511,12,28,15,5,8,0,-6,-10
1570179848756511,-15,-10,-9,-5,-18,-4,-3,-19
1570179848757438,31,7,-5,-2,17,-3,5,-58
1570179848757438,1,-6,1,-6,-10,1,13,-18
1570179848779379,43,7,-5,0,-5,0,-6,10
1570179848779379,-51,-8,-1,1,7,-2,0,43
1570179848779905,1,9,4,0,-5,-1,13,27
1570179848779905,25,6,1,7,4,5,0,69
1570179848793341,-40,-27,-7,-2,7,-3,-3,58
1570179848793341,-33,-3,-4,-3,-13,-2,-4,28
1570179848801320,-1,0,-4,-3,-3,-2,2,28
1570179848801320,-19,-1,3,0,5,-1,-7,-2
1570179848825256,-12,4,6,2,3,3,0,27
1570179848825256,18,-3,0,-3,-20,-1,-3,14
1570179848825406,-5,-11,-11,-6,6,-4,-6,11
1570179848825406,30,14,9,2,-5,3,11,55
1570179848839219,-27,-13,-1,1,6,-2,-7,10
1570179848839219,20,18,2,0,-7,-2,-3,2
1570179848840216,41,27,3,2,12,2,-4,10
1570179848840216,-34,-17,-2,0,-19,-2,-3,-4
1570179848854216,20,6,-6,-10,-1,-5,-4,20
1570179848854216,46,22,4,-3,6,6,6,26
1570179848855177,-35,-31,-1,4,0,3,-3,4
1570179848855177,-7,10,-1,-1,-1,-6,8,-32
1570179848876120,2,-7,2,1,-7,1,-7,25
1570179848876120,13,6,0,0,-2,-2,-2,-16
1570179848877122,10,-2,-6,-4,-5,-1,1,-8
1570179848877122,7,-2,-2,3,6,3,4,-19
1570179848899063,4,-3,2,-2,3,-1,4,-4
1570179848899063,-5,2,-8,-9,-3,-6,-4,-24
1570179848900060,-10,-8,4,5,-2,3,-4,-16
1570179848900060,9,7,0,-3,-8,2,-9,-10
1570179848915016,8,-9,-6,-3,9,-5,-2,-7
1570179848915016,-2,5,4,2,4,0,-1,15
1570179848916373,-27,-7,0,3,3,2,1,6
1570179848916373,15,6,-4,-6,-5,-1,2,31
1570179848935960,-8,-7,-4,-2,3,-4,-2,7
1570179848935960,-21,-8,3,4,-7,1,2,0
1570179848936957,26,7,1,1,-7,-1,-4,5
1570179848936957,-19,-7,1,3,9,-1,-12,37
1570179848958899,-16,-4,4,4,-2,3,5,4
1570179848958899,30,10,-10,-6,-1,-1,-3,6
1570179848959931,-22,-11,1,0,-4,-1,1,-4
1570179848959931,13,4,0,-4,-2,-1,-1,-5
1570179848974093,-5,3,0,-2,-6,1,2,-6
1570179848974093,-14,-10,3,5,4,0,-2,5
1570179848975158,24,16,-2,-3,-1,0,-1,18
1570179848975158,-4,-8,-3,-3,-2,0,2,4
1570179848996797,-18,-11,-15,-9,-6,-9,-15,-64
1570179848996797,-11,0,15,10,6,4,7,-9
1570179848997454,-2,4,0,-3,0,0,1,-1
1570179848997454,-3,-5,-2,-1,-1,-2,1,21
1570179849018738,-3,2,-5,-2,1,2,-1,-4
1570179849018738,-5,-6,-5,-2,-1,-2,2,-6
1570179849019933,2,2,3,0,-1,0,-11,-5
1570179849019933,-2,-6,-8,-3,0,-4,-6,-32
1570179849033699,13,8,8,2,-2,1,2,3
1570179849033699,-14,-10,-4,-2,-4,-2,4,-21
1570179849034788,-4,5,2,1,-1,-1,1,0
1570179849034788,-3,-7,-8,-3,-2,-1,0,13
1570179849056674,-5,3,3,3,1,-1,-1,-5
1570179849056674,-6,-5,-1,1,0,-2,-4,4
1570179849057637,0,0,-2,-3,1,2,7,-11
1570179849057637,-5,-1,-1,-6,-4,-4,-8,-52
1570179849079577,-24,-13,-4,-5,-8,-8,-16,-37
1570179849079577,17,2,2,-1,1,-4,-23,2
1570179849080575,1,-2,-4,-2,-2,0,5,5
1570179849080575,-8,-2,-1,-1,-2,-2,4,5
1570179849094536,8,7,4,5,4,5,4,20
1570179849094536,-4,-2,-2,-2,0,-1,-1,2
1570179849094536,1,6,-2,-2,-3,-3,-4,-5
1570179849094536,4,6,3,1,-1,2,2,17
1570179849116477,-2,-1,0,1,0,1,7,19
1570179849116477,7,-4,-3,-2,-1,3,6,26
1570179849117475,-14,-7,0,-2,-1,-3,-6,9
1570179849117475,10,3,2,3,2,1,5,103
1570179849140414,7,2,-2,1,0,-1,2,127
1570179849140414,-7,-4,-4,-3,-4,-2,-1,127
1570179849141465,-8,-1,-2,1,-4,-1,0,116
1570179849141465,-17,-1,2,4,1,-2,-5,71
1570179849153379,-10,6,5,3,2,0,3,127
1570179849153379,-16,-2,-1,0,2,-1,-2,121
1570179849162355,8,0,1,0,-2,-1,5,127
1570179849162355,1,-6,-7,-9,-3,-1,-7,74
1570179849176318,16,-1,0,-1,0,3,6,-44
1570179849176318,-3,3,4,2,2,0,4,-125
1570179849177315,8,3,4,0,-1,1,-1,-128
1570179849177315,38,6,-4,-3,-2,-2,6,-128
1570179849199256,-44,-2,-1,-6,0,-2,-9,-114
1570179849199256,32,-3,-4,-1,-1,2,6,-115
1570179849200254,-20,0,7,6,0,-4,-2,-100
1570179849200254,-13,-1,4,8,5,3,2,-90
1570179849213294,19,-2,-5,-2,-3,1,6,-67
1570179849213294,25,6,4,4,3,-1,-3,-54
1570179849221197,-73,-21,-8,-7,2,13,1,-33
1570179849221197,3,-3,-11,-8,-8,-13,-5,-41
1570179849236157,-2,-9,-7,-7,-2,-6,-1,-23
1570179849236157,31,12,2,2,-3,-3,0,-11
1570179849237562,-32,-11,-1,-2,1,-1,2,-11
1570179849237562,8,3,3,-2,-1,10,0,-18
1570179849259177,14,23,6,2,-3,-2,-1,-5
1570179849259177,-80,-56,-11,-4,-6,-10,4,-2
1570179849260094,55,10,-9,-12,-2,-4,-7,-6
1570179849260094,-14,-3,0,5,2,0,-3,-9
1570179849274057,31,5,2,5,-1,6,4,3
1570179849274057,13,12,2,2,-3,4,-7,-23
1570179849275080,39,19,11,7,-2,0,4,-43
1570179849275080,-15,-9,-3,-5,0,0,7,-67
1570179849295998,-4,16,7,5,4,4,12,-32
1570179849295998,-19,-2,-4,-5,-1,4,-10,-75
1570179849297049,-13,-21,-6,-2,-3,-5,-15,-8
1570179849297049,55,19,3,-2,-4,5,-6,5
1570179849318936,14,9,7,6,0,-20,-9,-24
1570179849318936,-73,-24,-7,-7,-1,-2,-8,-25
1570179849319966,26,19,3,-1,0,1,20,-46
1570179849319966,-25,-23,-7,-5,-9,1,19,77
1570179849334330,-2,-1,-3,1,4,3,-2,-36
1570179849334330,32,23,11,5,3,2,5,80
1570179849334894,31,3,-8,-4,2,2,6,84
1570179849334894,-17,-8,3,4,2,-3,4,-22
1570179849356877,-4,-8,-4,-4,-5,-2,-5,-57
1570179849356877,10,9,2,3,7,-3,-14,-31
1570179849358031,-29,-11,-8,-6,3,3,6,-66
1570179849358031,25,18,9,5,7,-8,3,84
1570179849379848,-45,-17,-8,-6,4,5,-4,-25
1570179849379848,23,8,2,2,-1,0,9,8
1570179849379848,10,7,10,10,9,22,-35,52
1570179849379848,-5,-6,-7,-3,-14,-33,-36,-28
1570179849394206,7,-1,4,4,-4,-11,-2,9
1570179849394206,11,3,-1,-1,9,5,13,68
1570179849395016,-12,-7,-4,-6,-4,6,27,-28
1570179849395016,20,16,7,6,15,44,16,62
1570179849416679,0,-7,-2,4,-3,2,-6,107
1570179849416679,-11,-2,-6,-10,-10,-25,-6,-16
1570179849417673,5,6,1,2,3,-15,4,-61
1570179849417673,-21,0,3,1,-10,14,4,-128
1570179849438620,13,-4,-5,-10,-8,5,5,-66
1570179849438620,3,1,-5,0,17,15,-5,-33
1570179849439650,18,5,1,1,-4,-11,1,22
1570179849439650,-16,-6,-2,0,4,-5,-16,13
1570179849453642,4,1,-4,-4,-4,-2,0,71
1570179849453642,1,7,0,-1,-13,-3,11,77
1570179849454577,-3,-5,-2,0,-2,2,-2,73
1570179849454577,11,-3,-3,0,1,0,5,44
1570179849476515,9,-8,0,0,7,7,8,39
1570179849476515,0,-8,1,1,0,7,7,-17
1570179849477558,-14,-10,-1,1,0,-6,-5,-68
1570179849477558,10,-12,-7,-4,-3,-5,-2,14
1570179849499453,-8,-7,-1,0,-3,-4,-4,8
1570179849499453,5,3,-3,0,-2,-1,7,-16
1570179849499453,-9,2,-1,-6,-10,-8,7,-28
1570179849499453,-20,-1,-1,-4,5,-14,-1,-52
1570179849514413,-2,2,1,-3,2,4,-3,-21
1570179849514413,-5,-3,-3,1,11,3,-9,-32
1570179849514413,11,3,-1,-3,-16,8,-7,32
1570179849514413,-7,3,2,1,-5,-8,-1,-24
1570179849536359,8,2,-1,0,5,-2,2,-1
1570179849536359,-9,0,2,2,2,-2,0,-1
1570179849537612,-4,-2,0,1,5,0,12,-24
1570179849537612,2,0,-1,-1,-1,11,-2,4
1570179849559294,-11,-5,-6,4,5,-30,-5,-9
1570179849559294,10,2,1,-3,-10,1,5,17
1570179849559294,-5,-1,0,3,6,-1,-3,15
1570179849559294,-2,-2,0,-3,-8,1,-3,7
1570179849574254,-7,-1,-2,0,1,7,2,-27
1570179849574254,5,4,3,2,4,12,-7,17
1570179849574254,-15,-2,2,1,-2,-12,-13,-43
1570179849574254,-8,-2,-1,-1,-3,-5,2,2
1570179849596277,-1,0,-1,-4,0,5,-13,-62
1570179849596277,-2,0,-1,-1,-5,-19,-15,-11
1570179849597192,12,1,0,2,3,10,-3,30
1570179849597192,4,4,1,1,3,3,13,40
1570179849619133,5,0,-1,1,-6,1,1,30
1570179849619133,-7,-4,-3,-1,1,-3,0,-21
1570179849620131,8,1,2,-1,1,-6,0,23
1570179849620131,-7,-2,-3,0,4,1,4,-28
1570179849633217,6,2,0,-2,-3,5,4,27
1570179849633217,-3,0,1,-1,-9,-2,8,-2
1570179849641268,4,2,-2,-3,-2,-9,-2,10
1570179849641268,-1,-2,-1,0,1,-6,-5,-6
1570179849656095,0,-1,1,-2,-5,5,4,5
1570179849656095,-2,-1,-1,-1,-3,-2,-7,-3
1570179849657503,-4,1,0,2,4,15,1,6
1570179849657503,4,1,1,0,0,-3,-4,0
1570179849678978,9,0,-2,-3,-2,-3,4,31
1570179849678978,-9,-2,0,-3,-3,0,-8,-31
1570179849680050,4,-1,-3,1,4,-1,2,21
1570179849680050,2,-1,-2,-4,-4,2,0,20
1570179849692935,-4,-2,-3,0,0,3,0,4
1570179849692935,-12,-5,-5,-5,-8,2,15,-72
1570179849701937,7,2,2,2,3,6,-17,17
1570179849701937,-1,2,1,3,9,-5,-5,-13
1570179849724921,-6,-1,0,1,-2,0,-2,-7
1570179849724921,-2,-2,-3,-2,5,3,5,13
1570179849725851,-5,-2,-3,-3,-8,-6,1,-16
1570179849725851,-2,-1,0,2,9,0,1,-3
1570179849738851,-11,1,1,0,-2,6,-1,-18
1570179849738851,14,1,1,1,7,0,-3,42
1570179849739945,5,-1,-1,-2,2,-6,-1,19
1570179849739945,1,-2,-2,-2,-8,-9,1,11
1570179849753773,5,1,2,0,5,3,-8,8
1570179849753773,6,0,0,-3,-8,-1,-2,25
1570179849761794,-3,2,0,-2,-6,-5,0,-11
1570179849761794,3,0,0,-2,-1,3,6,13
1570179849776755,-12,-1,-1,2,1,0,-1,-22
1570179849776755,4,0,0,1,-4,0,6,11
1570179849777709,1,0,-1,-1,4,3,9,0
1570179849777709,-4,0,0,-1,-2,1,-7,-13
1570179849798979,1,-3,-2,-1,3,1,0,8
1570179849798979,1,0,0,0,1,-1,-6,15
1570179849799656,-13,-3,0,-1,-1,-3,1,-17
1570179849799656,-4,-3,-3,-3,-9,0,-2,-9
1570179849813727,6,2,1,1,3,0,3,11
1570179849813727,-7,-2,0,-1,-1,-3,3,-14
1570179849821592,6,1,-2,1,0,5,-6,14
1570179849821592,2,-4,-1,-4,-3,-1,-5,-4
1570179849836625,9,2,0,1,1,-8,1,26
1570179849836625,-9,1,0,-1,-1,2,-4,-16
1570179849837550,0,-1,-1,0,-3,-2,0,-6
1570179849837550,-3,0,0,-1,0,1,-1,-2
1570179849858493,2,-1,-3,-5,-5,2,3,7
1570179849858493,0,0,-2,0,-1,0,-5,1
1570179849859991,1,-1,-3,-1,-2,-14,-2,-1
1570179849859991,-13,-3,-1,-1,-1,-5,-6,-26
1570179849873495,0,-2,0,-1,-1,-2,0,-2
1570179849873495,1,1,-1,0,0,-2,-2,6
1570179849881436,0,-1,0,-1,0,3,0,-3
1570179849881436,3,0,-1,1,2,4,2,2
1570179849896392,1,-1,-1,-1,-1,-3,1,-4
1570179849896392,-4,-1,-1,0,1,1,-2,-1
1570179849897389,7,-3,-1,0,-2,0,3,13
1570179849897389,1,1,-1,0,-1,0,-1,5
1570179849919390,1,2,3,1,1,3,0,-16
1570179849919390,8,-2,-2,-1,0,-9,-1,19
1570179849919390,-3,-3,-2,-3,0,27,7,2
1570179849919390,1,0,0,-1,1,-13,-1,3
1570179849933331,1,0,0,1,1,1,0,3
1570179849933331,3,0,0,-1,-1,-5,0,6
1570179849941274,-2,-1,0,0,0,-1,-2,-3
1570179849941274,1,-2,-3,-1,0,5,1,10
1570179849957351,5,-4,-5,-2,-7,-5,0,17
1570179849957351,-2,-1,0,1,1,3,-2,-5
1570179849957351,4,0,0,-1,0,-6,-3,9
1570179849957351,-6,-1,-2,-2,-1,5,-2,-15
1570179849979171,-5,2,3,2,10,-1,-2,-13
1570179849979171,5,-2,1,-1,8,8,5,5
1570179849980168,2,0,-5,6,48,18,6,12
1570179849980168,-10,-6,-5,-13,-40,-30,-11,-9
1570179850002109,40,2,-5,8,28,25,18,62
1570179850002109,8,6,3,6,43,15,-8,3
1570179850003141,-16,-22,-33,-49,-114,-50,-5,-29
1570179850003141,-46,-14,9,2,-14,-17,-17,-64
1570179850016072,43,11,-15,-7,-47,-31,-22,29
1570179850016072,-7,21,31,19,-18,-10,-2,-33
1570179850017299,-18,13,52,21,57,18,5,12
1570179850017299,14,-34,-54,-23,11,17,12,26
1570179850039011,-17,-2,5,6,14,12,4,-20
1570179850039011,-12,6,2,8,34,8,9,7
1570179850040007,103,91,16,13,4,-3,-3,5
1570179850040007,-84,-60,22,2,-6,-2,-13,-20
1570179850061949,-50,-52,-29,-7,6,1,-4,-27
1570179850061949,19,0,-17,-7,-18,-3,0,11
1570179850062976,30,0,-7,2,-7,-1,3,-3
1570179850062976,-19,16,12,7,14,11,8,16
1570179850076909,16,24,10,-7,1,2,-2,-11
1570179850076909,-8,0,6,-1,-21,-10,-7,-6
1570179850077465,-7,-34,-12,-4,0,-5,-2,-1
1570179850077465,37,-3,-26,2,12,5,4,11
1570179850098851,-27,-1,24,7,-1,-2,2,-10
1570179850098851,-4,11,10,2,-9,-5,3,11
1570179850099874,-13,-24,-12,1,5,-1,-7,-8
1570179850099874,36,27,2,4,2,6,14,28
1570179850121789,4,5,-6,-13,-6,-4,1,-3
1570179850121789,-1,9,1,-4,2,0,-6,-11
1570179850123153,-7,-8,-2,5,12,3,-1,-1
1570179850123153,0,-6,-5,-5,-15,-1,-6,-7
1570179850136857,-23,-2,13,8,0,-3,7,12
1570179850136857,5,-17,-14,-2,3,3,-2,-3
1570179850137746,-31,-11,2,-3,-7,2,8,22
1570179850137746,11,22,13,10,7,-2,-11,-25
1570179850158753,0,-1,-2,-8,-2,1,-3,-6
1570179850158753,-3,-17,-23,-10,-1,1,0,2
1570179850159688,-16,-10,-8,-3,-3,-2,-3,-10
1570179850159688,13,15,15,7,3,5,7,21
1570179850181630,21,23,-6,-9,1,2,-3,-6
1570179850181630,-11,-12,6,1,-6,-1,3,11
1570179850183106,-10,4,-6,-5,-7,-3,-8,-11
1570179850183106,7,-7,-3,2,17,0,1,8
1570179850196590,-6,-4,1,2,-1,1,-5,-20
1570179850196590,-1,-2,-9,-7,-11,-1,2,5
1570179850197587,-5,-12,1,4,0,0,4,18
1570179850197587,14,29,13,7,2,0,-2,-8
1570179850218567,-12,-3,24,12,8,1,2,9
1570179850218567,12,-1,4,1,5,4,5,13
1570179850219962,2,-12,-18,-8,-7,-2,-4,-8
1570179850219962,-37,-7,-10,-8,-8,-1,5,-27
1570179850241497,23,3,-14,-7,2,-4,1,17
1570179850241497,3,1,-1,5,3,12,11,23
1570179850242467,-58,-7,1,-6,-4,-12,-14,-91
1570179850242467,7,1,5,5,4,3,12,-20
1570179850256491,-12,-4,1,-4,1,-3,-1,12
1570179850256491,7,-10,-11,-3,-4,1,-10,7
1570179850257427,-4,16,1,-1,-6,-3,2,-11
1570179850257427,22,2,4,3,2,1,-5,-11
1570179850279407,5,11,-2,4,-8,-1,3,-10
1570179850279407,-35,-19,6,-7,-1,-4,-6,-23
1570179850279997,34,10,4,10,0,-2,-5,23
1570179850279997,17,13,9,1,1,-2,-9,18
1570179850302375,-23,-19,-10,-5,2,-1,-5,-6
1570179850302375,4,-12,-14,-10,-14,-2,6,10
1570179850303341,-8,-14,-5,2,7,-1,3,29
1570179850303341,10,14,7,-4,-1,-1,-5,0
1570179850316308,-3,-8,0,2,0,-2,-4,-27
1570179850316308,-10,5,0,6,6,-3,-2,-16
1570179850317547,10,10,10,-5,-18,3,-1,8
1570179850317547,6,-7,-11,-3,11,-1,1,19
1570179850339212,-21,-11,-4,-1,0,2,3,-10
1570179850339212,17,4,-5,-7,-15,-6,-1,-8
1570179850340210,8,-1,6,7,8,0,-3,-7
1570179850340210,1,5,6,2,2,1,-2,-8
1570179850362218,5,-5,-10,-5,-8,-3,-2,-20
1570179850362218,2,5,0,-3,1,-4,-1,-5
1570179850363207,-4,6,14,6,9,3,0,-16
1570179850363207,-21,-10,-11,-8,-5,3,17,-6
1570179850376146,27,0,2,4,-11,-2,-1,3
1570179850376146,-13,-7,-5,-1,-3,-1,-4,-15
1570179850377357,4,-7,-8,-8,-7,2,10,26
1570179850377357,-5,11,23,21,28,6,-5,-4
1570179850399086,-5,3,-6,-1,6,0,-3,-8
1570179850399086,26,6,-4,2,-10,-4,-3,-6
1570179850400046,-18,-12,-4,-2,9,9,25,56
1570179850400046,6,-2,-7,-3,-9,-7,-16,-28
1570179850421987,10,10,0,-6,-7,0,1,12
1570179850421987,-7,9,11,7,4,-2,-8,-11
1570179850422984,31,5,-1,-1,-3,-4,-9,-12
1570179850422984,1,-8,6,-5,-3,-1,3,17
1570179850444963,-23,-4,-2,-10,-17,-7,-7,1
1570179850444963,-16,-7,-5,1,10,2,2,8
1570179850445953,2,7,-1,-10,0,0,-4,4
1570179850445953,6,-2,-8,14,18,1,-1,11
1570179850466891,-10,-4,3,-4,-10,-3,-1,-2
1570179850466891,1,-7,-6,-8,-12,1,4,-39
1570179850468083,6,10,8,4,3,1,-6,-56
1570179850468083,-1,3,3,-1,-5,-1,2,-61
1570179850481826,0,-2,-2,-2,14,2,1,-47
1570179850481826,-4,3,0,-7,-6,-2,-4,-116
1570179850482824,9,-9,-3,-3,-2,-6,-14,-128
1570179850482824,-4,-9,-10,-15,-25,-4,1,-85
1570179850504765,9,14,6,6,3,-1,1,-60
1570179850504765,12,-1,2,-6,3,2,4,10
1570179850505789,-31,0,10,14,21,-1,-5,-36
1570179850505789,13,-1,-6,-11,-21,0,4,37
1570179850518834,-1,-14,-10,2,18,3,-1,41
1570179850518834,0,10,17,3,0,-2,-4,79
1570179850519980,-19,-3,-5,0,-13,-1,5,98
1570179850519980,19,2,-4,8,2,2,1,74
1570179850541669,6,7,-3,-11,-15,-1,4,56
1570179850541669,-17,-16,-9,-2,3,-2,-2,49
1570179850542707,10,9,3,2,-6,-3,-7,46
1570179850542707,-3,0,-3,-4,3,-3,-1,36
1570179850556628,-5,-2,-1,3,2,3,7,21
1570179850556628,1,0,-4,-5,-9,-3,-11,19
1570179850557696,-11,-12,-11,-17,-12,-1,3,13
1570179850557696,-13,-4,1,15,9,2,-4,18
1570179850578568,9,7,10,13,12,6,5,12
1570179850578568,-2,1,2,9,12,2,5,4
1570179850579991,-6,1,-9,-8,-2,1,2,9
1570179850579991,3,0,-5,-10,-6,-3,-2,7
1570179850602508,1,-3,0,-2,-8,-4,-4,1
1570179850602508,22,10,8,1,-2,0,1,-1
1570179850603554,-1,-7,-3,3,1,-5,-10,3
1570179850603554,-10,-3,-5,-16,-9,-2,1,4
1570179850615473,-7,0,0,11,12,2,1,10
1570179850615473,1,-7,-14,-6,-4,-3,1,17
1570179850631431,12,6,0,5,8,-2,-5,23
1570179850631431,-3,12,19,-1,-3,4,6,30
1570179850638679,5,1,6,0,-2,-2,-1,8
1570179850638679,-11,-2,-2,-4,-3,-2,-4,14
1570179850639405,-9,-12,-12,-4,-4,3,6,47
1570179850639405,-2,-1,-1,3,11,-2,-5,31
1570179850669325,4,2,-2,-3,-5,1,0,95
1570179850669325,1,-3,2,7,-2,-1,1,119
1570179850670352,2,1,2,7,14,1,-2,121
1570179850670352,3,1,0,-9,-17,-3,4,127
1570179850693261,-13,-1,0,-8,-3,-2,-5,123
1570179850693261,0,3,1,0,-1,-1,-4,109
1570179850693955,0,1,3,-2,-2,1,4,59
1570179850693955,-2,-3,-3,-3,-3,-3,1,-19
1570179850699244,-10,-8,-7,-7,-6,-2,-1,-30
1570179850699244,10,10,-3,-3,3,-1,6,99
1570179850699244,-3,-5,-4,-5,-3,-2,-5,120
1570179850699244,-6,-2,1,2,5,1,0,-21
1570179850722188,2,2,0,0,-2,-1,0,-107
1570179850722188,0,1,2,2,3,-1,0,-128
1570179850723207,4,9,0,-1,-3,0,2,-128
1570179850723207,7,1,-3,0,-1,-2,0,-104
1570179850745122,-13,-26,-4,2,1,0,-1,-111
1570179850745122,1,2,-4,0,-2,-1,-6,-128
1570179850745649,-27,-4,0,2,3,0,6,-126
1570179850745649,20,2,-5,-1,0,0,-5,-91
1570179850767167,33,8,0,-1,-3,-3,-2,-105
1570179850767167,-23,-11,-2,0,5,0,-1,-104
1570179850768108,0,-11,-2,0,-3,-2,-6,-128
1570179850768108,-17,7,7,4,2,0,1,-101
1570179850782048,4,5,0,1,-1,-3,-3,-78
1570179850782048,2,5,5,1,1,2,0,-84
1570179850783023,17,6,0,1,1,2,10,-29
1570179850783023,-2,-9,-3,-4,-3,-4,-13,-66
1570179850795986,-14,-1,-3,1,0,0,-4,-29
1570179850795986,15,12,11,2,-1,1,3,-9
1570179850804965,-20,-4,-3,-1,-1,2,3,-12
1570179850804965,19,8,-2,-2,-2,0,5,39
1570179850818964,-23,-10,0,2,1,2,3,-10
1570179850818964,29,-4,-5,-5,-4,-6,-6,-6
1570179850820023,-5,-17,-1,-1,-2,-2,1,-21
1570179850820023,12,6,-1,2,1,1,3,42
1570179850843940,-9,1,-4,-4,-3,-1,-1,21
1570179850843940,-4,4,5,2,1,2,5,15
1570179850844856,0,1,-4,-5,-2,-2,-3,-14
1570179850844856,-15,-12,-9,-3,-1,-2,-1,-4
1570179850855866,0,3,11,6,2,3,3,23
1570179850855866,23,11,-5,-4,-2,-2,0,9
1570179850863805,3,2,3,0,-2,0,-3,-3
1570179850863805,-11,-6,-4,0,0,-1,-2,0
1570179850878765,9,4,-4,-2,-3,-5,-4,3
1570179850878765,-17,-10,-1,1,-1,1,0,8
1570179850886770,-1,8,2,1,1,-1,-2,-8
1570179850886770,-14,-8,1,0,-1,1,2,10
1570179850909766,19,0,-2,-1,-1,-1,-1,-1
1570179850909766,11,15,2,-2,-4,-2,4,32
1570179850910680,-18,-20,-5,-2,-4,-6,-16,-65
1570179850910680,-9,-8,-6,-6,-5,-1,0,6
1570179850924646,-9,5,2,2,2,2,0,7
1570179850924646,-2,10,0,2,2,0,-5,-4
1570179850925642,15,2,18,7,1,0,5,33
1570179850925642,-12,16,9,0,1,-1,-2,6
1570179850938605,4,-3,-7,-7,-5,-3,-3,-6
1570179850938605,-19,-30,-5,-2,2,0,-4,-17
1570179850946584,4,11,-2,3,0,1,2,4
1570179850946584,14,-4,-4,0,0,-2,-5,-82
1570179850962545,6,14,2,0,1,-3,2,-99
1570179850962545,-14,3,0,-2,-1,-2,0,-88
1570179850962545,3,-4,-4,-3,-1,-1,-1,7
1570179850962545,-20,-9,-2,2,0,0,-2,79
1570179850984486,17,11,1,2,0,1,2,127
1570179850984486,2,-3,7,7,4,1,-17,92
1570179850985699,-22,-7,-3,-1,-2,0,-3,94
1570179850985699,24,-3,-10,-5,-2,-3,-4,89
1570179850998483,-9,8,16,4,2,0,-3,73
1570179850998483,-6,-5,-3,-3,-1,-2,2,48
1570179850999948,-11,0,0,0,-1,2,5,48
1570179850999948,-2,12,5,4,4,5,-1,23
1570179851022560,27,-23,-8,-7,-5,-6,-2,23
1570179851022560,-14,-1,-4,-3,-2,-3,4,26
1570179851023380,-17,4,7,2,2,4,6,21
1570179851023380,1,4,-3,5,2,1,7,2
1570179851043391,24,-15,-15,-8,-5,-4,-7,18
1570179851043391,7,-13,-11,-10,-7,-4,0,18
1570179851052301,-2,-1,-3,-4,-9,0,1,2
1570179851052301,-9,3,13,14,22,7,5,-4
1570179851059282,-20,5,1,-1,6,2,6,11
1570179851059282,33,-10,-18,-10,-13,-3,-5,2
1570179851059282,5,3,3,5,5,-2,4,-4
1570179851059282,-48,5,25,10,7,6,3,0
1570179851082221,65,10,-19,-12,-10,-7,-7,8
1570179851082221,-19,-6,-3,-6,-10,0,5,0
1570179851083340,-30,-13,-12,-5,4,-4,-3,2
1570179851083340,10,1,-1,-4,-5,-2,-4,3
1570179851104166,-23,7,7,6,5,2,1,2
1570179851104166,-12,4,5,5,3,4,3,-1
1570179851111145,25,3,-1,-2,-2,-2,-4,1
1570179851111145,44,18,4,2,-1,-1,-1,-2
1570179851119161,-81,-32,-13,-14,-20,0,2,0
1570179851119161,59,7,-10,4,18,-7,-10,1
1570179851120119,-11,6,7,3,8,2,2,1
1570179851120119,88,4,-1,1,0,2,11,-3
1570179851142373,-83,-40,-1,-3,-13,-2,-16,2
1570179851142373,77,26,3,0,-6,-3,3,3
1570179851143059,-64,-44,-13,-10,-12,-6,-10,-1
1570179851143059,20,0,0,2,7,-2,-3,-2
1570179851166056,-18,12,14,17,18,9,9,2
1570179851166056,-41,-13,6,3,-3,2,-3,-1
1570179851167992,66,17,-9,-7,-9,-2,0,-2
1570179851167992,-52,-12,-10,-13,-15,-5,-2,0
1570179851179054,-2,4,4,4,3,-1,-5,2
1570179851179054,-24,9,6,3,5,3,5,0
1570179851179963,2,-3,-5,0,1,0,0,0
1570179851179963,27,3,-15,-10,-7,-5,-7,0
1570179851201901,32,-14,-6,-2,-3,-2,3,0
1570179851201901,-23,1,2,3,7,1,-4,0
1570179851202999,36,34,22,12,1,6,9,0
1570179851202999,-84,-34,-4,-1,4,-6,-16,-1
1570179851224840,46,18,-10,-7,-1,-2,-5,0
1570179851224840,-11,-29,-6,-3,-7,3,6,-1
1570179851225837,-14,7,3,6,11,0,-8,0
1570179851225837,29,2,-4,-1,5,2,8,-1
1570179851238877,18,14,3,4,5,2,0,1
1570179851238877,-40,-29,-5,-5,-1,-2,-3,0
1570179851239801,-9,-8,5,5,-7,1,7,0
1570179851239801,13,6,-8,-12,-27,-3,-3,-1
1570179851261779,-2,-10,1,8,30,0,4,0
1570179851261779,-11,19,-2,-4,-16,-1,-1,0
1570179851263897,23,-1,-3,-2,22,-5,-7,-1
1570179851263897,-20,-21,5,3,-2,5,11,0
1570179851291724,11,21,14,8,-5,2,-6,0
1570179851291724,3,8,1,0,1,0,6,-1
1570179851300639,27,2,-12,-5,-9,1,6,-1
1570179851300639,-28,-11,-25,-15,-12,-17,-21,0
1570179851301672,-44,-9,10,9,4,8,8,-1
1570179851301672,9,-10,8,8,7,1,-3,-1
1570179851307663,-46,-9,-1,-12,-16,-10,-8,-1
1570179851307663,39,18,-1,-5,-5,-1,-25,-1
1570179851322578,44,1,-11,-8,-10,-9,-2,0
1570179851322578,-29,-7,1,0,-3,-4,-1,-1
1570179851323579,14,-1,-1,0,-2,0,5,-1
1570179851323579,20,9,10,10,-11,2,8,0
1570179851345556,-25,-4,-4,-6,5,-6,-7,-1
1570179851345556,23,11,-1,4,11,3,0,0
1570179851351034,-11,5,7,2,4,2,2,-1
1570179851351034,24,12,8,3,-1,2,8,-1
1570179851358570,-38,-20,-16,-11,-21,-6,-3,-1
1570179851358570,-2,0,5,4,1,4,13,-1
1570179851367544,83,41,5,-1,-1,-2,-5,-1
1570179851367544,10,-2,-8,-9,-6,-6,3,0
1570179851382449,38,10,3,-2,-3,-1,5,0
1570179851382449,16,4,8,5,6,2,-1,0
1570179851383448,45,33,6,5,2,6,2,0
1570179851383448,-32,-17,-9,-2,2,-4,6,0
1570179851412377,-7,-4,17,13,12,1,0,-1
1570179851412377,5,7,-10,-10,-10,-5,-4,-1
1570179851413864,-7,-6,-1,5,-2,3,-1,-1
1570179851413864,-16,-3,1,4,26,3,0,-1
1570179851418394,3,1,-5,-6,-1,-3,-7,-1
1570179851418394,-16,-3,-1,-2,-9,1,1,-1
1570179851427299,-15,-20,-12,-6,0,-5,-13,-1
1570179851427299,4,-7,0,0,-4,2,2,-1
1570179851442259,-60,-16,1,3,-3,-2,-1,-1
1570179851442259,-2,7,6,5,8,2,-2,0
1570179851444253,-3,-1,-4,-4,-4,0,4,0
1570179851444253,-5,-4,-4,-2,0,-4,-8,0
1570179851465198,41,8,-10,-10,-8,-1,1,-1
1570179851465198,6,3,8,4,2,1,-1,-1
1570179851466232,11,14,1,1,5,1,0,-1
1570179851466232,-107,-35,15,9,7,8,9,0
1570179851478227,119,77,6,-1,-5,-2,-2,0
1570179851478227,-22,-38,-23,-12,-5,-9,-8,0
1570179851487139,6,-21,5,3,-2,1,4,0
1570179851487139,45,23,3,-1,0,3,-7,0
1570179851502098,1,-5,-6,-2,-4,3,9,0
1570179851502098,1,11,1,3,10,-2,-1,0
1570179851504171,-16,-7,2,-3,4,1,1,-1
1570179851504171,19,8,0,6,4,-2,1,0
1570179851525209,-47,-29,0,-2,0,0,-4,1
1570179851525209,16,5,-6,-8,-7,-3,-2,0
1570179851526035,-25,-14,-9,-2,-3,-3,-4,0
1570179851526035,-23,-10,-8,-6,-10,-2,1,0
1570179851538040,13,6,2,-1,-3,-1,1,-1
1570179851538040,-4,1,6,5,5,0,0,-1
1570179851554958,0,2,-1,1,2,0,2,0
1570179851554958,-29,-6,1,1,0,0,-2,0
1570179851561938,-4,0,-3,-1,-3,-2,-5,0
1570179851561938,21,8,5,4,5,5,7,-1
1570179851563933,-85,-30,0,-1,-6,-8,-20,-1
1570179851563933,-34,-23,-13,-7,1,-3,1,-1
1570179851584877,-8,-7,-2,0,-1,1,-1,-1
1570179851584877,11,1,2,-2,-5,-1,-1,0
1570179851585875,21,16,-2,2,2,0,2,0
1570179851585875,17,5,9,4,3,1,3,-1
1570179851597843,-9,-3,1,6,7,3,2,-1
1570179851597843,-2,5,2,-1,10,-1,-2,-1
1570179851612802,9,-2,-5,-3,-11,1,5,-1
1570179851612802,15,1,-5,-12,4,-4,-6,5
1570179851621779,2,-3,0,-4,-5,3,5,16
1570179851621779,27,-2,8,10,-1,1,4,35
1570179851623776,5,-9,-5,-8,-8,-5,-6,-13
1570179851623776,21,22,1,10,-1,-3,-4,4
1570179851644721,-5,-5,6,1,2,0,1,21
1570179851644721,-26,-15,-10,-9,-2,-2,-1,-11
1570179851646716,33,7,2,-3,1,1,2,-15
1570179851646716,-14,-21,-17,-8,-12,-3,-3,-11
1570179851658682,-6,3,9,4,2,3,2,7
1570179851658682,-3,3,1,-4,-11,0,-2,15
1570179851667660,22,7,4,3,0,-5,0,0
1570179851667660,3,-2,5,3,2,4,4,-13
1570179851689635,45,6,-10,-5,-2,-1,-4,-4
1570179851689635,7,10,-4,-4,-15,-5,-1,42
1570179851691668,-9,1,6,4,13,3,-4,-56
1570179851691668,-2,-1,8,6,9,5,4,11
1570179851704594,-22,-21,-7,-5,-8,-3,-1,2
1570179851704594,2,3,-9,-6,-9,2,3,12
1570179851706553,1,2,-1,-1,3,0,5,26
1570179851706553,7,8,8,3,0,-1,-4,9
1570179851718520,1,0,-4,2,9,3,0,-1
1570179851718520,-7,0,0,0,-2,-2,-1,-2
1570179851727524,3,1,-3,-2,-12,2,3,23
1570179851727524,8,1,-4,-3,11,-4,-4,-2
1570179851749476,-11,3,6,0,-7,-2,1,15
1570179851749476,1,-7,-3,-2,5,0,7,-12
1570179851751486,-12,-5,-1,3,-3,4,0,17
1570179851751486,12,8,-13,-14,-29,-2,-1,27
1570179851764435,-7,-1,-1,1,10,-7,-3,-3
1570179851764435,1,11,15,11,13,5,5,-8
1570179851766393,19,2,-7,0,4,-1,1,3
1570179851766393,4,3,-2,-4,-9,1,4,0
1570179851778398,-15,-12,-13,-3,0,-1,-2,9
1570179851778398,8,12,15,8,-1,1,-1,6
1570179851787549,4,-3,-3,-5,2,-1,1,3
1570179851787549,1,0,2,3,2,-2,-3,-4
1570179851801298,-15,0,2,3,4,2,3,12
1570179851801298,1,-5,-7,-7,-6,-4,-6,-17
1570179851808282,10,3,-8,-2,-7,-3,-4,6
1570179851808282,-5,-1,5,4,15,4,4,-10
1570179851824240,-3,2,3,-1,-3,1,1,3
1570179851824240,-12,-2,-4,-2,1,-1,-1,-7
1570179851826234,-8,-5,3,1,-3,1,8,-8
1570179851826234,11,1,-3,-1,1,-1,-1,-6
1570179851838464,3,0,-6,-5,-9,-2,-2,-5
1570179851838464,-18,-8,-2,1,1,-2,5,-2
1570179851855157,-4,0,0,-3,2,0,-1,-15
1570179851855157,7,3,4,2,-2,-1,-4,-4
1570179851861142,2,0,2,-1,0,2,3,4
1570179851861142,-10,-8,-10,-6,1,3,-3,-2
1570179851868161,6,9,12,9,-3,-6,-6,5
1570179851868161,7,5,2,-1,2,0,2,0
1570179851885074,7,3,5,2,0,0,-6,13
1570179851885074,-3,-2,-3,-1,2,0,-7,-5
1570179851886072,-8,-8,-5,-2,3,1,1,30
1570179851886072,7,0,-1,0,-3,2,0,16
1570179851898040,5,-3,-5,-1,0,1,11,104
1570179851898040,-2,-1,1,1,0,-2,-5,69
1570179851907020,-14,-6,-2,-3,-2,-1,-3,69
1570179851907020,-13,-5,-2,-3,-4,-4,11,120
1570179851921049,-2,0,-4,-1,2,-3,-7,92
1570179851921049,17,-3,-5,-2,-1,-1,-6,66
1570179851927960,-9,-2,-4,-2,-2,-3,-3,43
1570179851927960,-2,-1,2,1,2,0,5,33
1570179851945000,1,4,4,2,0,0,-2,-16
1570179851945000,-4,-1,-1,-3,-2,-1,-1,50
1570179851945916,-24,-6,-1,-1,0,1,-6,55
1570179851945916,8,-4,-5,-5,-6,-11,-6,120
1570179851967891,3,-1,2,3,3,2,5,-3
1570179851967891,-5,-1,-4,-4,-6,-3,-2,-97
1570179851968851,-2,-2,-1,-1,0,7,0,-120
1570179851968851,-21,-4,-5,-3,-2,-11,-5,-128
1570179851981815,7,4,5,3,0,-5,4,-128
1570179851981815,-8,-3,-4,3,-2,-4,-3,-116
1570179851988797,1,-5,-9,-2,-7,-4,-7,-89
1570179851988797,19,3,2,7,3,8,1,-87
1570179852004758,-8,-1,6,3,-2,1,-18,-82
1570179852004758,21,-9,-7,-3,-1,-3,0,-59
1570179852005754,0,0,4,3,1,2,8,-19
1570179852005754,26,2,-6,-5,0,1,-8,-46
1570179852026775,-20,-5,-3,-4,-3,-4,-9,-43
1570179852026775,15,8,6,0,5,9,3,-14
1570179852028690,8,1,1,-3,-3,-5,5,-5
1570179852028690,-11,7,13,6,3,5,2,-23
1570179852041660,19,-2,-3,0,1,-6,0,-16
1570179852041660,-4,4,-1,-3,-4,-1,0,5
1570179852048640,-19,-7,-3,0,6,4,8,2
1570179852048640,3,-4,-9,-9,-9,1,-8,-14
1570179852064594,-3,4,-2,-2,-8,-18,-3,-1
1570179852064594,-5,6,7,4,6,9,-1,0
1570179852066617,12,0,-2,-2,-1,0,-3,-1
1570179852066617,-16,5,7,4,1,-8,-3,-6
1570179852087121,1,-9,-9,-9,-14,-12,-5,-4
1570179852087121,-37,-13,-2,0,-3,-7,-4,-1
1570179852088532,-4,1,-3,0,-1,-7,-2,2
1570179852088532,25,10,3,0,-1,2,-2,-1
1570179852100498,9,10,-1,-7,-7,0,-7,-3
1570179852100498,12,9,5,7,4,-4,7,-1
1570179852109518,43,14,-2,-3,2,5,1,5
1570179852109518,-83,-56,-26,-21,-17,-7,-8,-3
1570179852132548,-9,15,17,19,14,8,8,-4
1570179852132548,23,3,1,0,0,5,7,1
1570179852133932,-24,-8,0,-2,-1,-6,-7,1
1570179852133932,21,12,1,1,4,11,7,-3
1570179852147447,-14,-7,-6,-6,0,0,-2,-2
1570179852147447,8,-6,-7,-5,-3,-2,-5,2
1570179852148371,33,-6,-3,-3,-4,-2,-4,1
1570179852148371,-4,14,-2,-3,5,-3,1,-3
1570179852160376,-47,-29,-3,4,3,6,-2,0
1570179852160376,48,25,5,1,2,2,-2,0
1570179852169379,-19,2,3,-8,-7,-6,-5,0
1570179852169379,22,13,6,9,12,14,6,-2
1570179852184314,28,5,0,2,-1,1,5,-2
1570179852184314,-37,-13,-6,-8,-5,-4,-8,-1
1570179852186784,15,3,3,5,1,3,10,0
1570179852186784,-5,8,7,3,0,-3,-1,-1
1570179852207248,13,3,0,-2,4,6,4,-1
1570179852207248,-18,-5,0,-1,-1,-1,1,-1
1570179852209208,-2,1,-5,-3,1,3,0,1
1570179852209208,2,-6,4,4,1,-1,-14,-1
1570179852220864,17,17,8,5,3,1,6,-2
1570179852220864,-7,-8,-3,-2,-2,-1,-5,0
1570179852230153,-31,-7,-2,2,-2,3,20,-8
1570179852230153,-3,-6,0,1,1,-4,-13,10
1570179852245183,11,2,-2,-7,-2,2,-1,-9
1570179852245183,-14,-3,-3,-4,-9,-8,-3,-39
1570179852246110,2,7,4,5,12,15,11,-28
1570179852246110,16,-3,-6,-5,-5,-19,-6,-57
1570179852267053,-16,-9,-5,-5,-2,14,5,-53
1570179852267053,8,1,-2,3,5,27,12,-7
1570179852273037,-3,-4,-1,-4,0,-21,-10,-10
1570179852273037,3,0,3,-2,-7,0,12,4
1570179852281059,-6,-7,-7,-3,-1,-5,-7,-53
1570179852281059,-16,0,0,-2,-7,-4,-1,-45
1570179852290023,7,0,2,6,5,-3,-18,18
1570179852290023,-18,-5,-2,-1,1,-1,8,4
1570179852304954,-9,-2,-2,-2,-4,-16,-2,8
1570179852304954,0,-1,-1,1,1,27,11,23
1570179852305951,-6,-3,-2,0,3,-3,-5,30
1570179852305951,6,-1,-2,-2,-3,-11,-6,17
1570179852325961,12,7,7,9,-1,11,11,13
1570179852325961,8,-2,-4,-3,11,-15,-6,-35
1570179852334872,13,5,0,-2,-15,7,-5,-43
1570179852334872,-4,2,3,2,1,14,-9,-16
1570179852340856,-3,1,-4,-6,-2,2,-5,-24
1570179852340856,5,3,1,4,1,-28,-13,45
1570179852350063,0,1,-2,1,5,3,6,8
1570179852350063,10,2,-1,0,1,4,17,66
1570179852364792,-4,-2,-2,0,-1,0,6,58
1570179852364792,-1,-3,-1,-3,-5,-4,0,46
1570179852366417,-7,-6,-4,-1,-2,-3,5,0
1570179852366417,0,-5,0,2,1,1,-1,1
1570179852386734,1,-3,0,-2,1,-1,-6,10
1570179852386734,3,-2,1,1,0,-1,0,13
1570179852389096,-9,-2,0,-1,0,-4,-9,-18
1570179852389096,-5,-4,-4,-4,-11,-5,-2,-31
1570179852400726,2,-1,-2,-1,2,-1,2,-2
1570179852400726,6,3,2,0,-4,-10,-11,7
1570179852409726,-4,-2,0,0,0,1,6,-13
1570179852409726,26,7,4,2,1,10,17,49
1570179852424672,0,-2,-3,-2,-3,-5,-5,-2
1570179852424672,-4,-1,-2,1,7,2,0,-14
1570179852426664,-2,-3,-1,-1,-4,-2,7,-7
1570179852426664,3,3,0,3,3,11,0,40
1570179852447571,-6,0,1,-1,-1,-9,-8,-12
1570179852447571,-5,-2,0,-1,-4,7,4,5
1570179852448569,5,2,0,-1,-1,-4,-7,0
1570179852448569,-19,-5,-3,-2,-2,-3,0,-44
1570179852460539,0,1,-2,0,1,2,0,7
1570179852460539,-9,-2,-1,0,-3,-3,-4,-11
1570179852469512,2,0,0,-1,-3,-5,-26,-2
1570179852469512,0,0,1,0,1,-2,-3,-17
1570179852484507,0,-1,-3,-1,1,3,15,19
1570179852484507,8,0,0,0,1,0,3,35
1570179852486467,0,1,-3,0,-3,1,3,13
1570179852486467,-8,-4,-2,-2,0,-3,-3,-19
1570179852507448,2,0,-1,0,3,3,0,7
1570179852507448,-3,-1,-2,-2,2,5,8,-4
1570179852508864,4,2,1,1,-7,-10,-7,16
1570179852508864,-6,-3,-2,-1,-1,0,-1,-8
1570179852520376,-2,-3,-1,0,-2,0,0,2
1570179852520376,5,2,3,2,-2,-3,4,13
1570179852529352,3,-1,0,-2,2,9,3,8
1570179852529352,1,2,1,2,4,4,-1,-1
1570179852544350,-7,-1,-2,-3,-5,-9,-7,-9
1570179852544350,-4,-1,-2,-2,-1,-7,-11,-24
1570179852546310,11,-2,-2,-1,1,-1,6,38
1570179852546310,1,-1,-1,0,-2,-3,-2,-3
1570179852567250,1,1,-1,-1,1,9,1,15
1570179852567250,-6,-2,-1,-2,-3,-2,0,-10
1570179852568414,-13,-3,-2,-3,0,2,9,-40
1570179852568414,1,0,-2,-2,0,-2,0,12
1570179852581216,0,-2,-1,-1,0,-1,-5,-1
1570179852581216,0,1,-2,0,-3,-6,-4,2
1570179852590193,-2,-1,-2,-2,-1,4,1,6
1570179852590193,2,-1,-1,0,1,-15,0,10
1570179852605149,-6,-2,1,1,-1,-1,-2,-15
1570179852605149,-1,1,2,2,0,2,-5,24
1570179852606147,21,-2,-3,-2,-2,0,-2,26
1570179852606147,-10,-2,-1,-2,-3,1,-2,-22
1570179852627090,4,-1,0,-2,2,3,-4,19
1570179852627090,-4,-1,0,-2,-5,-6,3,-23
1570179852629085,-7,1,1,2,4,2,-3,-1
1570179852629085,0,-3,-1,1,0,-1,0,9
1570179852641057,5,-2,-1,-1,-2,3,-2,1
1570179852641057,-8,-4,-3,-2,1,-1,-5,-15
1570179852650054,-13,-3,-1,0,-2,-3,-1,-43
1570179852650054,2,1,3,1,1,4,-10,-4
1570179852665023,-1,1,1,-4,-4,-10,-3,-7
1570179852665023,0,-3,-2,-1,-3,-10,1,-2
1570179852665987,-6,1,1,1,0,-7,-4,-1
1570179852665987,2,-2,-1,-1,-2,-3,0,8
1570179852686931,0,0,1,0,-2,-1,-1,0
1570179852686931,3,0,0,-2,-1,4,0,1
1570179852688958,7,1,-1,1,1,-1,-14,32
1570179852688958,-2,1,-2,0,-2,-3,-2,-4
1570179852709977,1,-1,-1,0,0,3,4,6
1570179852709977,-2,-2,0,-1,0,4,1,-5
1570179852711327,1,-1,1,-2,1,3,7,15
1570179852711327,-2,0,-1,-2,0,5,-5,-11
1570179852724829,-7,0,-1,-1,-1,-2,-5,-13
1570179852724829,2,-1,-1,1,-1,1,2,7
1570179852725828,1,0,0,-1,-1,-2,4,1
1570179852725828,-1,-1,-3,-2,-2,-1,0,-1
1570179852746770,2,-1,1,0,1,4,4,3
1570179852746770,-1,-2,0,-1,2,1,-1,2
1570179852748765,-3,0,1,0,-1,-1,0,-1
1570179852748765,2,-1,0,-2,0,0,3,2
1570179852760732,-1,0,-2,1,-1,-2,-1,-4
1570179852760732,-2,1,1,-1,0,1,1,3
1570179852775730,-2,-3,0,0,0,-1,-4,-14
1570179852775730,-5,0,0,0,0,-1,2,-10
1570179852784742,9,1,0,0,-3,-3,-4,17
1570179852784742,2,1,-3,-2,-2,-2,0,-3
1570179852786664,4,-2,-3,-4,-1,1,-1,9
1570179852786664,-5,-1,0,0,0,-2,-2,-14
1570179852807611,0,-4,0,1,-1,1,3,8
1570179852807611,-1,-4,-3,0,-2,-7,-2,4
1570179852808609,-3,0,1,-1,0,-3,-1,-3
1570179852808609,0,0,-1,-1,-1,1,4,3
1570179852821573,3,2,2,1,-1,-1,0,15
1570179852821573,-8,-1,-1,0,-1,-3,-7,-18
1570179852829553,1,0,-1,0,0,-1,4,4
1570179852829553,1,-1,-1,-2,-1,-1,-5,7
1570179852844509,-1,0,0,-1,2,4,7,1
1570179852844509,-3,0,0,-2,0,4,1,-4
1570179852846503,-3,0,-1,1,-1,0,-1,-3
1570179852846503,0,0,-1,1,-1,0,4,-4
1570179852867451,-4,-2,-1,-2,0,-2,-4,-12
1570179852867451,3,0,-1,-1,1,1,0,5
1570179852868450,-1,-1,-1,-1,-1,-1,-1,1
1570179852868450,-2,-1,-1,-1,0,-1,-1,-2
1570179852889420,2,0,-2,-2,-1,-3,-1,5
1570179852889420,-2,-1,-1,-1,-1,0,-4,-8
1570179852891423,-5,0,-1,-1,-1,1,1,-2
1570179852891423,1,0,0,-1,0,-2,-1,5
1570179852904350,-15,-2,-1,1,-2,-2,-5,-21
1570179852904350,9,0,-1,-1,0,1,6,13
1570179852906346,-2,-1,-1,0,0,-1,-2,3
1570179852906346,0,0,-1,-3,0,1,-2,-6
1570179852927288,-5,-2,-1,-3,-2,-3,-5,-12
1570179852927288,4,-3,-2,-1,0,-2,1,15
1570179852928285,-13,-6,2,2,0,0,0,-16
1570179852928285,-3,8,2,2,1,-3,-2,-6
1570179852949306,24,10,12,2,-4,0,1,6
1570179852949306,9,6,-25,-12,-1,-1,-3,-9
1570179852951224,-8,-14,-15,-4,2,-1,-4,0
1570179852951224,4,5,5,3,2,2,2,2
1570179852964223,-16,-17,-1,-5,-3,1,2,-3
1570179852964223,-9,7,18,14,4,1,1,-6
1570179852966184,17,0,8,7,0,1,1,1
1570179852966184,9,13,-1,-2,0,0,0,6
1570179852987131,10,-5,-13,-6,-1,-4,-3,-5
1570179852987131,-16,-5,-1,-3,-6,-2,5,13
1570179852989160,2,-8,-8,-15,-2,-2,-1,-3
1570179852989160,9,5,-2,2,-9,-5,-3,-1
1570179853010066,-23,11,20,17,10,4,2,3
1570179853010066,100,36,6,-1,-1,2,-1,-1
1570179853011147,-88,-54,-30,-12,-6,-2,-4,-11
1570179853011147,31,4,1,-3,2,2,0,3
1570179853023034,-18,-22,0,1,-4,-5,-5,-5
1570179853023034,57,33,23,9,-3,1,1,5
1570179853032011,-72,-18,28,10,-2,-2,-2,-3
1570179853032011,-14,-8,-30,1,4,-3,-5,-4
1570179853046969,10,-3,-24,-7,1,2,5,4
1570179853046969,-26,-17,-1,2,6,1,0,-1
1570179853048962,41,42,27,9,-6,0,0,5
1570179853048962,-39,-20,-9,-12,-8,-2,-1,-6
1570179853069974,28,26,5,-2,2,1,1,5
1570179853069974,-31,-25,-7,-9,-3,4,4,0
1570179853070904,47,13,-10,-3,0,0,1,4
1570179853070904,-18,-11,3,-1,-4,-1,0,-4
1570179853082871,6,7,4,5,1,-1,-4,0
1570179853082871,-16,-11,1,-1,2,-1,0,-3
1570179853092567,-3,-2,-1,-1,0,-2,-2,1
1570179853092567,16,-1,-5,-1,4,4,3,6
1570179853106887,-6,-6,-3,-3,1,-1,1,-5
1570179853106887,-20,-7,4,-1,-17,-5,-4,-6
1570179853108937,28,14,-16,-7,8,-1,1,5
1570179853108937,4,11,18,14,6,4,4,7
1570179853129784,7,-15,-2,-3,-2,0,-3,-1
1570179853129784,-24,0,6,-6,-2,-3,-3,-8
1570179853130743,6,-11,-27,-15,-14,0,-1,1
1570179853130743,10,2,-4,-5,-21,-8,-3,0
1570179853143776,-8,6,29,19,34,1,1,0
1570179853143776,-2,0,4,9,5,4,1,1
1570179853152685,12,7,2,-5,-7,-1,0,1
1570179853152685,-27,-25,-21,-14,-13,2,0,-3
1570179853167645,12,15,-12,2,17,-1,0,1
1570179853167645,-1,-1,-9,-2,-3,0,-1,-4
1570179853168643,3,6,13,5,8,3,2,2
1570179853168643,-2,-5,7,7,-6,-2,1,-3
1570179853189889,6,11,2,-7,-9,0,1,5
1570179853189889,-6,-6,-3,0,6,-3,-2,-1
1570179853191583,0,-7,-11,2,-5,2,0,-1
1570179853191583,-12,-3,10,4,-6,-7,-14,-33
1570179853203551,1,4,3,-5,-7,-1,0,1
1570179853203551,-4,-9,-13,-13,3,-1,-2,-4
1570179853212527,1,-1,-10,0,-14,-2,1,3
1570179853212527,12,11,19,10,25,2,6,20
1570179853227485,-13,-3,-1,0,-5,-1,-4,-14
1570179853227485,12,-3,-4,-2,7,0,4,18
1570179853228867,-10,-4,-9,-10,-2,-7,-15,-32
1570179853228867,-2,-9,-12,-9,-7,1,2,1
1570179853249430,5,-5,-5,0,-13,-3,3,16
1570179853249430,6,12,10,4,1,3,1,3
1570179853251475,11,7,10,7,2,4,11,32
1570179853251475,9,13,16,8,10,-1,-7,-17
1570179853263625,-4,-11,-16,-12,-2,0,1,-2
1570179853263625,-7,-14,-8,-4,-10,0,4,5
1570179853272421,3,4,4,2,11,2,3,4
1570179853272421,2,7,8,4,2,-1,-4,-3
1570179853287612,-2,-5,-11,-11,-9,1,3,12
1570179853287612,-5,6,10,12,6,-4,-2,-4
1570179853288326,5,7,5,-2,-2,2,2,6
1570179853288326,-5,-8,-6,-5,4,2,1,5
1570179853309270,-3,-6,-4,3,-9,-3,-7,-16
1570179853309270,-1,-1,-9,-8,2,2,0,-3
1570179853311262,-2,6,11,7,0,-4,-5,-11
1570179853311262,-4,-8,-5,-3,5,1,2,-1
1570179853323269,5,2,-6,-4,-2,-2,0,6
1570179853323269,-2,5,4,-2,-9,-1,-4,-8
1570179853332210,4,7,13,11,12,1,1,1
1570179853332210,5,11,9,3,1,1,2,13
1570179853362127,-1,-4,-5,-3,-6,2,2,-2
1570179853362127,-6,-22,-17,-5,-3,-4,-6,-7
1570179853364158,9,13,9,3,2,-1,4,13
1570179853364158,12,0,0,-3,-5,0,3,3
1570179853369815,-14,-4,1,0,-2,0,-1,-11
1570179853369815,-9,-6,-12,-6,-8,0,-1,-11
1570179853371102,7,-10,-9,-9,-1,1,-4,-4
1570179853371102,0,-1,-5,1,1,-5,-5,-6
1570179853383107,-3,-3,1,-4,-10,1,-1,1
1570179853383107,2,8,7,9,1,-2,-1,4
1570179853392523,-4,-4,0,-2,-5,0,-1,-15
1570179853392523,-2,-1,1,0,8,-1,2,5
1570179853407083,5,-1,-3,-4,-1,-2,-5,-13
1570179853407083,-20,-4,0,-4,0,-1,1,7
1570179853409038,2,-11,-8,-4,-9,-1,-1,5
1570179853409038,-1,3,2,-2,-3,1,4,6
1570179853429947,-9,-8,-6,-3,-6,-3,-5,-15
1570179853429947,0,9,11,7,3,1,-2,-8
1570179853430941,4,6,6,0,-1,1,0,-6
1570179853430941,5,-5,-7,-7,-3,1,2,8
1570179853442949,-2,-4,1,8,5,1,-1,-1
1570179853442949,-2,-7,-10,-8,-3,-1,0,1
1570179853452882,-10,-4,-2,3,-6,-3,0,-6
1570179853452882,2,-1,-6,-6,2,-1,-6,-5
1570179853466849,6,6,5,-5,-16,-1,2,3
1570179853466849,-8,-4,-8,3,21,1,-1,-9
1570179853468840,-2,-2,-2,-4,-4,-2,0,0
1570179853468840,2,2,-2,-1,-5,0,0,-8
1570179853496839,-10,6,0,-3,-4,-4,-3,-3
1570179853496839,7,-7,1,-1,-11,-1,-1,-5
1570179853498760,-19,0,-3,3,21,-1,0,6
1570179853498760,16,1,17,8,2,1,-2,-17
1570179853503747,-6,-8,-8,-8,1,-1,2,3
1570179853503747,0,5,6,-6,-24,-5,-1,0
1570179853519707,-11,-7,-6,-3,-7,-1,-2,1
1570179853519707,-11,2,-2,-1,15,3,0,6
1570179853526713,8,-3,-1,15,24,0,-5,-7
1570179853526713,-14,-3,-8,-12,-13,-3,0,15
1570179853528679,6,-2,-6,-13,-16,-2,-2,12
1570179853528679,-9,4,8,7,4,-1,-2,11
1570179853549679,1,-2,11,14,20,4,1,-20
1570179853549679,20,9,-5,-1,-11,-2,-3,-64
1570179853551656,5,-7,-5,-10,-9,0,2,-25
1570179853551656,-1,1,-6,-4,11,1,3,-38
1570179853563591,-6,-4,8,14,16,0,-3,-29
1570179853563591,11,8,5,-2,3,2,8,-4
1570179853572563,-15,-7,5,10,9,2,-8,-120
1570179853572563,10,3,-8,-7,-9,-3,0,-67
1570179853585565,-8,-6,-13,-14,-9,-1,7,-40
1570179853585565,-12,-10,-2,9,5,-4,-5,-29
1570179853595081,7,9,11,2,6,0,-1,-30
1570179853595081,-8,6,3,-5,-9,-1,-3,25
1570179853609502,20,10,-2,-10,-17,0,2,18
1570179853609502,11,-3,0,8,14,-4,-3,20
1570179853611488,-7,-14,-9,3,8,-1,-3,-3
1570179853611488,-9,14,8,1,-10,0,-1,6
1570179853632447,17,3,-5,-21,-21,-1,4,55
1570179853632447,-11,-6,0,19,25,-1,-6,55
1570179853633945,4,9,2,-6,-9,-4,3,70
1570179853633945,-8,-11,-8,3,9,3,-3,49
1570179853646590,-12,-7,-9,-20,-27,-7,-5,38
1570179853646590,1,3,1,-8,-6,-3,-2,30
1570179853653347,10,9,7,15,23,3,0,33
1570179853653347,-7,-16,-9,-5,-14,-3,-4,25
1570179853669495,1,7,7,5,0,1,-3,18
1570179853669495,4,1,-8,-13,-13,-1,-5,-2
1570179853671298,-2,-4,1,3,2,1,0,26
1570179853671298,18,-5,-7,-8,-5,-4,-1,10
1570179853683325,-10,3,9,26,28,3,0,0
1570179853683325,9,-5,-5,-8,-11,2,3,1
1570179853692242,-3,9,10,8,6,1,1,13
1570179853692242,14,12,2,-6,1,-2,-1,3
1570179853707202,4,-10,-8,-6,-10,-3,-3,-5
1570179853707202,-11,-2,1,-2,1,2,0,1
1570179853722559,0,-12,-15,-1,2,-1,2,10
1570179853722559,-12,9,5,4,-2,-1,-4,-4
1570179853730142,5,7,7,3,1,2,2,1
1570179853730142,-6,-2,3,-3,-11,-3,3,0
1570179853731596,-4,-6,-8,-5,-8,-3,-3,3
1570179853731596,-1,-7,-11,-7,-11,-1,2,0
1570179853744103,4,5,5,13,18,0,-3,-1
1570179853744103,3,-3,-5,-13,-14,-4,0,-1
1570179853752089,5,-2,-3,0,-2,1,0,1
1570179853752089,-11,-4,7,10,3,-1,-1,1
1570179853775059,2,-1,-4,-5,2,1,0,29
1570179853775059,-5,2,4,-4,-7,-1,0,16
1570179853776046,1,5,-1,2,7,0,1,19
1570179853776046,1,-14,-14,-6,-6,-1,7,76
1570179853796961,-13,0,1,-3,-6,-4,-14,-33
1570179853796961,19,15,14,13,14,5,11,47
1570179853798956,-12,-2,1,-17,-27,-4,-3,8
1570179853798956,7,-8,-1,15,20,1,1,22
1570179853810925,-7,4,-2,-16,-19,-5,1,43
1570179853810925,0,-1,-3,18,21,6,0,0
1570179853819951,5,9,3,-2,-2,-1,2,42
1570179853819951,2,-11,-4,-10,-8,-2,0,44
1570179853826882,-14,-11,3,-4,-7,-1,0,103
1570179853826882,0,6,-2,0,7,-1,-6,76
1570179853832869,4,-9,-8,0,0,-1,-2,124
1570179853832869,-12,-3,3,3,-2,-2,-7,80
1570179853849821,6,4,1,1,-12,2,4,124
1570179853849821,-6,-3,-2,1,9,1,-7,28
1570179853850818,-2,5,5,3,10,0,-3,-24
1570179853850818,-1,3,-1,-5,3,2,3,-29
1570179853871797,5,-5,-3,9,6,-1,-3,-54
1570179853871797,-7,-2,-1,-3,3,1,4,-8
1570179853873797,5,0,-3,-9,-6,-3,-1,81
1570179853873797,-11,-1,1,-5,-3,-3,-2,105
1570179853886723,-3,1,2,0,4,0,-1,64
1570179853886723,-4,-3,-2,-3,-3,0,0,-20
1570179853893708,5,5,7,5,8,0,-1,-108
1570179853893708,5,3,2,0,-6,0,1,-128
1570179853909699,0,2,5,6,9,3,5,-128
1570179853909699,-3,-8,-6,-2,-4,-1,-2,-123
1570179853911693,-5,-6,-9,0,-4,-2,-4,-123
1570179853911693,-5,0,6,4,1,1,-4,-128
1570179853939581,1,-5,-2,-5,-2,-3,3,-82
1570179853939581,4,-1,-2,-4,-2,-2,-1,-83
1570179853941576,9,3,-1,2,1,0,3,-53
1570179853941576,-2,7,-10,-2,1,-2,-2,-56
1570179853947599,15,9,6,2,0,1,-1,-47
1570179853947599,-25,-14,6,0,-3,-1,-1,-18
1570179853948899,13,2,-5,-1,-2,-1,0,-23
1570179853948899,-2,-4,1,1,-1,0,-4,-33
1570179853969568,-2,18,-8,-2,0,0,6,38
1570179853969568,0,-9,15,3,0,-1,-6,-15
1570179853971551,-12,-6,2,-1,-2,-2,-2,-11
1570179853971551,12,-1,-5,-5,-3,-3,0,11
1570179853991523,-16,-13,-8,-3,2,4,3,23
1570179853991523,1,10,-9,-5,-3,0,3,22
1570179853998457,9,1,8,1,-3,-3,-7,-29
1570179853998457,12,2,2,4,1,-1,0,18
1570179854006432,-1,3,3,2,1,-1,-5,-24
1570179854006432,4,-1,-3,-1,-1,-1,0,23
1570179854013383,-4,3,0,-5,-4,2,0,20
1570179854013383,4,4,3,-1,-1,1,-1,0
1570179854029373,2,-16,-6,-1,3,-1,0,9
1570179854029373,-10,1,0,-1,-2,-1,-5,-1
1570179854031377,-4,5,3,0,-1,1,5,28
1570179854031377,-4,-5,-3,-1,-1,-3,-5,-2
1570179854052279,1,1,5,-4,-7,1,2,9
1570179854052279,-42,-22,-12,-1,5,-4,-5,-18
1570179854053325,20,9,6,3,3,3,5,13
1570179854053325,10,-2,-7,-8,-5,-1,2,21
1570179854066242,-13,3,7,2,0,-2,-4,3
1570179854066242,22,6,-2,1,2,0,4,13
1570179854075218,-12,-2,3,3,2,1,1,12
1570179854075218,-5,-2,9,7,3,4,5,4
1570179854089181,27,6,-9,-4,-2,-2,-4,1
1570179854089181,17,5,-1,-5,-5,-1,2,8
1570179854091176,-9,-15,-6,-3,-2,-3,-3,-8
1570179854091176,7,11,3,2,2,0,2,10
1570179854112120,-35,-18,-1,1,2,-1,-3,-3
1570179854112120,18,10,-2,-10,-17,-5,-1,-3
1570179854114115,-15,-9,-6,4,20,-1,-1,0
1570179854114115,-7,-8,-6,-3,-4,-3,-2,-7
1570179854126120,-4,0,5,5,3,0,1,18
1570179854126120,29,19,4,3,0,1,-1,-99
1570179854135060,-3,-6,-6,-7,-10,-2,-2,-115
1570179854135060,-15,-5,-2,-1,-2,0,-1,-93
1570179854150018,5,-2,-3,2,5,3,3,-29
1570179854150018,-1,-9,-7,-2,-2,0,-2,74
1570179854151070,-6,7,11,3,-4,0,-1,95
1570179854151070,-2,4,6,5,5,1,3,80
1570179854171996,2,-9,-3,-2,-6,0,10,46
1570179854171996,31,14,-3,-1,0,-1,-4,71
1570179854174027,-14,-16,-10,-7,-6,0,5,66
1570179854174027,16,11,6,9,3,-1,-3,51
1570179854186007,-31,-7,-4,-8,-3,-6,-5,12
1570179854186007,-19,-5,1,2,6,0,4,36
1570179854194902,27,10,-1,-2,-1,1,1,29
1570179854194902,-33,-15,-4,-7,3,3,2,20
1570179854215865,1,-5,0,0,-3,2,-3,-2
1570179854215865,-4,1,2,2,-1,0,-2,12
1570179854225013,4,6,1,2,1,0,-5,14
1570179854225013,13,-1,-4,-4,-3,-2,-3,8
1570179854231799,7,6,3,-8,-13,-1,-3,-6
1570179854231799,-21,-7,1,7,15,2,-2,9
1570179854238781,26,11,5,0,-3,-1,-5,6
1570179854238781,13,5,1,-1,-5,4,5,5
1570179854245795,-11,-3,-1,-1,-5,-1,-2,-7
1570179854245795,-20,2,10,7,9,-1,1,4
1570179854255078,-4,1,-11,-5,-1,-3,-3,5
1570179854255078,19,0,-3,-6,-5,-3,-3,1
1570179854276738,-6,-13,-10,-2,0,-4,-4,-5
1570179854276738,-22,8,20,6,2,2,3,3
1570179854278675,-8,-1,2,7,3,3,4,3
1570179854278675,17,2,-1,-4,-9,-1,-3,2
1570179854300661,22,7,-7,0,7,-4,-3,-5
1570179854300661,-7,-9,-5,-8,-6,1,0,2
1570179854302676,-8,8,8,8,3,-2,-12,1
1570179854302676,-17,-13,-8,-17,-38,-1,0,1
1570179854305660,9,2,-2,9,27,-3,-3,-2
1570179854305660,19,5,-6,-11,-5,-2,2,0
1570179854314666,-23,-17,4,2,0,0,-2,1
1570179854314666,-2,2,-13,-6,-1,-6,-7,0
1570179854330594,12,-4,3,2,-11,0,-5,-3
1570179854330594,-7,-2,-4,-2,-9,-3,-1,1
1570179854331533,19,-2,-4,-6,-7,-2,4,1
1570179854331533,-55,-6,10,10,16,1,1,0
1570179854354472,9,-3,-10,-9,-6,-2,-1,-3
1570179854354472,8,-5,-8,-6,-4,-1,-2,0
1570179854355469,5,15,1,3,-5,-1,-1,0
1570179854355469,11,-6,3,8,7,1,-1,-1
1570179854365442,-23,17,18,8,6,6,4,-1
1570179854365442,-2,-5,-7,-5,-15,0,3,0
1570179854375115,1,2,-19,-13,0,-5,-8,0
1570179854375115,-37,-26,-11,-3,1,-4,1,0
1570179854389379,17,15,20,17,24,9,2,-2
1570179854389379,29,0,1,2,1,0,1,0
1570179854391373,-75,-17,-6,-3,-11,-2,2,0
1570179854391373,8,-3,-3,-2,6,-1,1,0
1570179854412316,54,16,-1,-4,-8,1,-3,-1
1570179854412316,45,38,5,8,11,-1,-12,16
1570179854413927,-19,-37,-14,-13,-14,-5,-4,-6
1570179854413927,38,18,-3,0,-11,1,1,20
1570179854426309,1,-8,4,10,19,3,-1,21
1570179854426309,-4,-2,-1,-2,1,-1,3,2
1570179854442237,8,12,15,4,1,5,-4,38
1570179854442237,-9,-11,-16,-4,5,-2,-10,17
1570179854449292,-18,0,-1,1,-1,-1,1,58
1570179854449292,39,16,4,-1,-10,4,14,88
1570179854451214,-81,-23,4,1,-9,-2,-17,-89
1570179854451214,13,-2,3,0,6,2,4,-10
1570179854472160,-27,-9,-18,-13,-15,-6,-3,-18
1570179854472160,-32,-18,1,5,-13,-5,0,-17
1570179854474153,22,7,3,7,32,2,4,-14
1570179854474153,7,31,14,4,9,6,8,0
1570179854486123,-74,-55,-18,-2,0,-4,-4,-66
1570179854486123,22,4,-8,-16,-40,-7,-7,-1
1570179854495097,26,6,-2,-2,-8,-5,5,9
1570179854495097,-46,-15,-5,-2,1,-4,-7,-11
1570179854510059,29,16,1,-4,-14,-2,2,22
1570179854510059,-14,3,21,22,49,6,2,-36
1570179854511137,37,7,7,2,-4,5,9,14
1570179854511137,4,0,-2,-4,-16,-3,-1,1
1570179854532036,27,2,-13,-4,-15,-6,0,23
1570179854532036,-6,-10,-6,-12,0,1,-3,-14
1570179854534019,9,9,2,3,7,3,2,8
1570179854534019,9,-1,5,3,7,2,0,-3
1570179854545991,6,1,-6,-8,-11,-3,0,-15
1570179854545991,-19,-14,-7,4,1,-4,-7,-11
1570179854555079,-7,-10,-13,-13,-11,-7,-2,0
1570179854555079,22,15,2,-5,-14,1,3,11
1570179854569434,-23,4,13,9,14,2,3,32
1570179854569434,1,-17,-11,-9,-1,-2,11,-27
1570179854575882,37,15,-3,2,-2,6,-5,13
1570179854575882,3,0,13,10,-8,-2,1,30
1570179854593834,-8,6,9,3,7,4,-2,8
1570179854593834,26,32,9,5,13,1,-4,-13
1570179854594919,-35,-40,-15,-13,-21,-5,3,-74
1570179854594919,0,6,-4,4,4,-1,2,-19
1570179854605836,15,-3,3,1,7,4,-14,-49
1570179854605836,-1,-1,-3,-4,-29,-7,-3,20
1570179854614899,-2,5,3,10,35,4,2,7
1570179854614899,4,1,6,0,-11,-2,-2,-10
1570179854629774,-7,-17,-4,-6,-19,-3,4,21
1570179854629774,-32,-8,-9,-5,9,-5,-9,-35
1570179854635821,17,22,7,-1,-9,0,5,38
1570179854635821,1,-19,-8,-2,9,2,-3,-14
1570179854651677,51,24,15,3,1,4,13,42
1570179854651677,-42,-2,-2,-1,-7,-2,-10,14
1570179854653672,8,-16,-7,0,-5,0,8,31
1570179854653672,-10,8,-5,-3,9,-3,-7,12
1570179854665642,-21,-2,1,2,1,3,3,7
1570179854665642,43,11,11,18,35,7,7,-3
1570179854674618,37,35,2,1,0,-4,-9,21
1570179854674618,-2,-3,18,-7,-10,-2,8,32
1570179854688617,12,-2,-18,-11,-13,-9,-12,-55
1570179854688617,-30,-21,-4,-3,-13,0,-12,4
1570179854695564,6,6,-2,-6,-12,-2,1,-22
1570179854695564,4,-5,-8,-3,4,-5,0,-2
1570179854712549,9,14,8,3,7,8,6,10
1570179854712549,-3,-6,-2,2,7,3,5,4
1570179854713514,-1,-2,3,4,9,0,-3,-5
1570179854713514,-13,2,-2,1,-4,0,-10,8
1570179854725479,-11,-11,-10,-9,-11,-6,2,-6
1570179854725479,-15,-7,-10,-5,-1,-4,-1,27
1570179854734456,3,5,13,9,1,4,4,46
1570179854734456,23,-8,-7,-4,-11,-3,-5,-10
1570179854749416,28,17,-3,0,17,-5,-3,5
1570179854749416,-10,-8,4,5,-2,2,6,16
1570179854755400,7,15,8,-4,-6,0,4,10
1570179854755400,-46,-26,-13,-1,9,-6,-8,-59
1570179854772357,-5,-5,1,-9,-15,-1,1,-7
1570179854772357,7,-4,-4,-6,-6,-3,1,-12
1570179854773476,-9,4,4,5,4,1,-1,12
1570179854773476,-7,-3,-11,-4,-1,-2,-2,6
1570179854794295,-10,-4,0,6,0,2,1,34
1570179854794295,1,1,3,-4,-1,0,-1,-8
1570179854796290,9,-5,-6,0,8,-4,-1,1
1570179854796290,8,11,14,2,-9,3,3,20
1570179854809292,-5,-1,-2,1,17,-4,-2,2
1570179854809292,2,0,0,-6,-9,3,6,2
1570179854811309,-1,-11,-8,-3,3,-3,-3,-21
1570179854811309,0,9,2,2,-1,0,-3,-1
1570179854832194,-17,-2,1,4,0,0,2,33
1570179854832194,6,-13,-6,-3,-8,-3,-3,-32
1570179854834189,1,-14,-3,-3,0,0,2,-16
1570179854834189,18,15,-3,2,6,0,-3,8
1570179854855135,5,8,5,2,1,1,4,2
1570179854855135,-8,-1,5,5,17,3,0,-6
1570179854856357,-2,3,1,-4,-20,-2,0,14
1570179854856357,-4,-11,-2,4,18,0,6,9
1570179854868619,5,0,-10,-4,-11,-3,-11,-15
1570179854868619,-4,6,3,0,-3,-1,0,18
1570179854877498,-5,-11,-10,1,8,4,0,-19
1570179854877498,0,6,9,-5,-23,-12,-3,4
1570179854892072,-10,-5,2,-3,-6,1,3,-24
1570179854892072,-5,-2,-1,-1,6,-3,-3,1
1570179854894066,-2,3,2,-4,-13,-6,-4,-7
1570179854894066,0,-7,-12,-4,3,2,2,0
1570179854914975,-5,-5,0,3,5,1,-3,6
1570179854914975,1,-8,-15,-8,-5,0,-1,8
1570179854915997,-8,10,17,4,-7,-8,3,6
1570179854915997,19,13,7,6,8,4,-10,5
1570179854928973,-11,-12,-5,-4,-3,0,3,3
1570179854928973,1,7,4,4,1,4,6,1
1570179854935920,-5,-12,-7,1,11,1,-6,-4
1570179854935920,-2,-7,-1,-2,2,3,4,3
1570179854951956,9,-1,-1,0,-2,-2,-3,1
1570179854951956,-22,-10,-15,-6,-5,-6,-8,15
1570179854953869,-1,2,2,-2,4,-1,2,24
1570179854953869,20,8,5,4,4,8,12,104
1570179854974813,-11,-8,-5,-3,0,-1,0,32
1570179854974813,1,3,1,-1,-4,-2,0,98
1570179854976416,8,-3,-3,-1,0,0,-1,127
1570179854976416,-5,-1,-8,-5,-2,-3,-4,48
1570179854988776,-2,0,5,1,0,0,3,98
1570179854988776,6,-1,0,-2,-5,0,-2,-18
1570179854997754,1,-1,-1,0,-2,-1,-2,32
1570179854997754,-7,-6,-6,-3,1,0,-1,103
1570179855019720,0,4,1,2,0,1,3,125
1570179855019720,-7,-4,5,5,1,-1,-1,127
1570179855021746,8,-2,-6,-3,0,0,-2,56
1570179855021746,-3,0,-1,0,0,0,0,-100
1570179855035652,0,4,1,0,-4,-2,0,-128
1570179855035652,-8,-2,1,4,2,2,-2,-128
1570179855037649,-3,-5,-6,-1,-1,1,-1,-128
1570179855037649,-4,-2,-1,1,2,1,1,-118
1570179855048826,-9,-6,0,3,1,1,-2,-128
1570179855048826,10,2,0,4,-1,-1,-5,-113
1570179855057621,-2,-5,-1,2,2,0,-2,-92
1570179855057621,-11,-3,2,1,-1,2,-3,-92
1570179855072802,-13,0,3,-4,-5,-3,2,-70
1570179855072802,-2,0,1,-4,-2,-2,-3,-47
1570179855073552,-2,3,4,1,0,-1,3,-46
1570179855073552,-20,-13,-2,-3,0,0,-3,-34
1570179855095013,6,8,-2,-5,-1,-1,0,-26
1570179855095013,3,1,-1,-3,-1,1,5,-13
1570179855096488,-9,-4,-1,-4,-2,-1,-2,-19
1570179855096488,19,10,3,-3,-2,0,1,-10
1570179855108665,2,-6,-4,-3,-4,-1,-3,-3
1570179855108665,14,4,-5,-5,-1,-2,-2,-9
1570179855117434,-2,-2,-2,-4,-3,-1,2,-6
1570179855117434,15,7,7,10,0,-4,1,-1
1570179855132599,3,0,4,2,3,-1,-3,-4
1570179855132599,23,6,-1,-2,-3,-2,3,-3
1570179855133620,-6,-1,-1,1,5,0,-2,-3
1570179855133620,-3,1,-3,-1,0,0,0,0
1570179855155334,9,-11,-5,-1,0,-1,-1,-4
1570179855155334,-17,-13,-7,-4,-2,1,-2,-1
1570179855156337,35,23,3,4,0,0,0,1
1570179855156337,-69,-30,-7,-6,0,0,-1,-3
1570179855168444,12,4,0,2,2,0,0,-2
1570179855168444,0,4,1,0,2,3,17,0
1570179855185252,-16,-3,1,-3,-3,-3,-6,-2
1570179855185252,51,11,-3,-4,1,2,4,-1
1570179855192459,-13,-13,-4,4,-1,-1,-12,-1
1570179855192459,-5,9,7,6,-2,-5,-7,0
1570179855194288,9,10,1,-1,-1,-1,5,-2
1570179855194288,8,7,3,2,3,2,2,-1
1570179855215328,8,5,2,-1,-2,-1,-2,0
1570179855215328,-1,-11,-14,-16,-6,0,3,-1
1570179855216601,13,3,0,4,0,0,-2,-1
1570179855216601,9,6,3,3,4,1,2,0
1570179855228144,-19,-5,1,1,-1,-1,-6,-1
1570179855228144,11,1,6,4,2,1,1,-1
1570179855237219,-13,-19,-11,-10,-7,-9,-27,-1
1570179855237219,-10,-1,-4,-6,-5,-1,-3,0
1570179855252076,-1,8,2,-1,4,1,0,-1
1570179855252076,-11,-2,0,0,-1,-1,7,-1
1570179855254139,16,7,1,1,3,0,14,0
1570179855254139,-14,-6,-4,-1,-5,-3,-20,-1
1570179855275204,-8,-1,-2,-3,-6,0,-2,-1
1570179855275204,-20,-2,1,1,5,-5,-2,0
1570179855276074,-4,1,3,5,16,11,13,-1
1570179855276074,-3,0,0,-5,-24,-9,9,-12
1570179855288447,-2,3,-2,-3,-2,-5,2,-47
1570179855288447,7,-1,2,2,-14,10,7,-38
1570179855297231,2,-2,3,2,10,-27,-30,-12
1570179855297231,-8,-5,-2,-2,3,14,-4,6
1570179855312921,5,1,1,-1,9,11,13,98
1570179855312921,19,9,5,8,0,2,0,61
1570179855313919,-5,-2,-1,2,-34,10,16,-108
1570179855313919,-5,-2,-2,-2,36,15,1,-124
1570179855334851,-7,2,1,-3,-15,-24,-13,-128
1570179855334851,18,3,-3,-9,0,-9,-37,-41
1570179855335848,-9,1,7,21,39,2,8,-18
1570179855335848,7,3,-4,-13,7,-3,-2,28
1570179855348883,8,-1,-3,-2,-18,4,3,30
1570179855348883,-4,-6,-5,-11,-14,-8,6,75
1570179855357800,-11,-6,-5,-9,-19,8,10,114
1570179855357800,4,1,4,11,-8,-6,-2,102
1570179855373090,-19,-10,-4,-4,5,2,-2,12
1570179855373090,3,1,1,6,2,1,7,39
1570179855374757,4,-4,-3,-4,1,-4,-2,14
1570179855374757,8,-2,-4,2,4,-2,1,-50
1570179855394692,0,6,0,2,-12,-7,-3,-38
1570179855394692,-13,-4,0,5,14,6,3,-50
1570179855396686,-10,-1,-3,-9,1,12,8,-25
1570179855396686,-9,-2,0,6,-9,-5,-2,-15
1570179855408873,10,0,-5,-11,-1,2,3,3
1570179855408873,-6,-2,0,6,18,2,6,-51
1570179855417968,-4,-1,-2,-4,-7,-23,-10,-5
1570179855417968,1,-2,-1,-2,-10,-8,-1,-3
1570179855431818,-8,-1,0,5,10,9,1,-35
1570179855431818,-16,-7,-5,-10,-15,-12,-1,-11
1570179855439687,3,3,4,4,12,0,-4,4
1570179855439687,1,3,4,3,-4,3,1,-8
1570179855453547,1,-3,-2,-1,5,-4,1,8
1570179855453547,5,-3,-2,-3,-2,14,-6,-7
1570179855462512,-6,-4,-2,-4,-10,-4,-2,-4
1570179855462512,11,5,1,-1,-5,-2,2,16
1570179855468896,-3,-4,0,4,16,2,0,12
1570179855468896,6,6,2,1,-1,1,-2,-6
1570179855477474,4,0,-1,-2,-4,0,-3,13
1570179855477474,-14,-3,0,0,-8,13,4,-6
1570179855491657,13,-2,0,0,8,-4,6,61
1570179855491657,18,2,-1,1,1,-3,1,46
1570179855500413,11,10,5,3,3,11,-6,5
1570179855500413,-16,-7,-6,-3,-4,-7,-20,13
1570179855522572,-1,1,0,0,-2,5,8,19
1570179855522572,0,0,2,3,7,2,-8,0
1570179855523522,3,-3,-3,-1,-4,2,4,7
1570179855523522,12,3,-3,-2,-7,-9,8,12
1570179855528342,6,12,6,3,-1,1,7,-44
1570179855528342,-14,-22,-8,-2,0,-4,-2,4
1570179855537311,-25,0,-5,-7,-7,-5,-11,-51
1570179855537311,17,0,-2,0,4,-3,3,30
1570179855551516,5,1,-3,-2,-3,-1,-4,-15
1570179855551516,-13,-3,3,3,-2,-3,2,0
1570179855558258,-7,5,4,3,-2,0,3,-4
1570179855558258,16,6,-2,-2,2,13,5,15
1570179855574259,34,13,0,-3,-4,-9,-2,34
1570179855574259,-25,-24,-13,-11,-8,-14,-13,-48
1570179855576210,-5,-8,-1,-1,-3,-3,-4,18
1570179855576210,-11,-1,0,3,15,19,-4,14
1570179855588229,-6,-3,0,-1,-11,-8,0,-14
1570179855588229,4,10,3,3,-1,3,0,5
1570179855603367,19,-2,-2,-1,2,-1,0,8
1570179855603367,0,1,2,0,-3,-12,2,-13
1570179855612157,-33,-13,-3,-2,0,3,-6,-20
1570179855612157,11,9,0,-1,0,-3,-2,2
1570179855618102,-3,-7,-4,-2,-2,3,5,8
1570179855618102,11,5,3,1,0,-5,5,4
1570179855635249,-15,-5,-2,0,0,0,-2,7
1570179855635249,-5,4,0,1,-1,2,3,-8
1570179855636047,10,1,-2,-1,3,16,4,12
1570179855636047,-17,-7,0,-1,1,0,-1,-11
1570179855648304,9,0,0,1,4,5,3,26
1570179855648304,3,2,1,1,-2,-4,-2,9
1570179855664977,-6,-1,-1,-1,0,-1,-2,-4
1570179855664977,-6,-1,1,2,1,-4,0,-3
1570179855671999,3,-3,-1,-2,-3,5,3,25
1570179855671999,12,7,1,-1,2,1,-5,17
1570179855674025,4,-2,-2,-1,-1,1,6,17
1570179855674025,-13,-4,0,-3,-8,-15,-11,-26
1570179855694898,1,1,-1,2,2,2,-5,8
1570179855694898,-3,-1,1,0,-3,-7,3,-3
1570179855696787,-2,-1,-1,-2,-1,-4,-5,-5
1570179855696787,0,-3,-4,-3,-1,0,1,6
1570179855717438,-8,-2,-2,-1,2,0,5,-14
1570179855717438,5,2,0,0,1,6,5,10
1570179855718824,-9,-4,-1,0,-2,2,4,-8
1570179855718824,3,0,0,-1,-2,-6,0,-5
1570179855739947,-1,-2,-1,-1,0,0,1,8
1570179855739947,-5,2,0,0,0,-1,1,-9
1570179855741035,0,0,-1,1,-3,-7,-2,3
1570179855741035,2,-1,0,-1,1,-6,4,10
1570179855754791,-8,-3,0,-2,3,14,-16,-9
1570179855754791,3,1,1,0,0,4,0,-3
1570179855756844,4,1,1,0,0,-1,0,9
1570179855756844,0,0,0,0,0,2,-2,0
1570179855777669,-3,-3,-3,-3,-2,-5,0,2
1570179855777669,-3,-1,-3,-2,-2,0,3,-4
1570179855778666,-4,-1,1,0,1,3,9,-33
1570179855778666,0,1,0,1,1,2,-2,0
1570179855792679,2,1,-2,-2,0,-3,0,6
1570179855792679,1,1,0,-1,-2,-7,-1,0
1570179855793628,-11,-7,-4,-2,1,11,4,5
1570179855793628,-4,-2,-3,-1,-2,-1,1,-4
1570179855814753,-6,0,0,1,-3,-5,-6,-12
1570179855814753,3,0,0,0,-2,1,4,-1
1570179855816564,4,2,2,2,0,4,-8,5
1570179855816564,-13,-5,-1,-2,-1,-10,-3,-33
1570179855837507,16,-2,-3,-2,3,8,2,32
1570179855837507,-4,0,-1,-2,-2,-3,0,-14
1570179855838507,0,-1,-1,-2,-1,-3,-2,11
1570179855838507,-2,0,1,1,2,5,-3,1
1570179855851564,0,0,-1,-3,-1,-7,-3,-7
1570179855851564,-5,-3,-1,-1,0,1,-4,-7
1570179855858451,3,1,-2,-2,-1,-3,-3,1
1570179855858451,0,0,-1,0,-1,0,0,8
1570179855874672,-7,-2,-3,1,-3,-5,1,-3
1570179855874672,0,-1,0,0,-1,1,13,-14
1570179855876452,-3,0,1,0,-3,-11,-11,9
1570179855876452,2,-1,-3,-3,-1,-5,1,11
1570179855897591,0,1,0,0,-3,2,3,-2
1570179855897591,3,-3,-2,-1,-2,1,1,18
1570179855899035,0,0,0,-1,-2,-2,2,-5
1570179855899035,2,-2,-3,-2,0,9,3,5
1570179855911633,-4,0,0,-1,-4,-10,-1,-8
1570179855911633,2,-1,-1,-2,2,4,-2,14
1570179855926382,-2,-2,2,3,-1,-3,1,-2
1570179855926382,6,3,0,0,-5,-2,-2,12
1570179855934652,-7,2,0,-1,-1,0,-2,-23
1570179855934652,1,-1,-1,1,-1,-4,-5,3
1570179855936242,-1,-1,-2,-1,0,-1,0,-7
1570179855936242,-2,-3,-1,-1,1,9,5,-1
1570179855957318,-3,-2,1,1,-1,4,-3,4
1570179855957318,4,2,0,0,-3,-13,-4,13
1570179855959246,-2,-1,-1,-3,-1,-1,-1,-4
1570179855959246,-3,-1,-1,-2,-2,-1,-1,-4
1570179855972148,4,1,0,0,-3,-3,-1,1
1570179855972148,-3,-3,-2,0,2,7,-4,-5
1570179855978139,2,-1,0,-1,-5,-20,-13,18
1570179855978139,4,2,1,0,-2,-11,-1,10
1570179855995254,-1,0,-3,-2,16,31,7,1
1570179855995254,-3,1,2,1,-4,-8,-1,-4
1570179855996423,-5,1,0,0,0,7,8,-7
1570179855996423,-4,-4,-4,-2,-2,-7,1,2
1570179856018024,10,4,3,1,-2,-10,-2,13
1570179856018024,1,1,0,1,2,4,-7,-1
1570179856019427,-1,-4,-1,-1,-2,-3,-1,1
1570179856019427,1,0,-1,0,3,7,1,4
1570179856032084,-3,-3,0,0,-4,-4,0,-12
1570179856032084,-6,-1,-1,-1,1,3,-3,-8
1570179856038024,2,1,1,-2,-1,-2,0,-1
1570179856038024,1,-1,0,-1,-1,0,-4,0
1570179856054925,-2,-1,-1,-1,-3,-6,-2,2
1570179856054925,-2,1,-2,-1,-1,-5,-2,-6
1570179856056087,2,-1,-2,-2,-1,-2,0,3
1570179856056087,-9,-4,-1,1,3,9,7,-8
1570179856077296,6,-1,0,1,-2,-2,0,1
1570179856077296,5,3,-1,1,4,11,1,-11
1570179856078861,-1,1,-1,0,-6,-8,4,6
1570179856078861,2,2,2,-1,0,-1,0,1
1570179856092083,-4,-3,0,0,-4,-8,-5,0
1570179856092083,-8,-6,-2,0,2,4,1,2
1570179856098912,6,2,-3,-1,2,3,-2,0
1570179856098912,1,1,-1,-1,-3,-9,-4,-8
1570179856114903,5,0,-1,0,1,10,4,3
1570179856114903,-3,-2,-1,-2,-3,0,2,10
1570179856115968,2,0,1,0,2,4,-1,-7
1570179856115968,-4,-1,1,0,-2,0,9,-10
1570179856137712,-7,-1,-1,-2,-5,-21,-12,-12
1570179856137712,-1,-1,-1,-1,-4,-4,-2,2
1570179856139279,-1,-3,-1,1,0,2,2,4
1570179856139279,2,1,-2,0,0,3,0,-1
1570179856151667,-2,-1,0,0,-2,0,0,-1
1570179856151667,-2,-1,-2,0,2,-4,-2,-6
1570179856158860,-2,-1,-3,-2,0,0,-3,2
1570179856158860,-8,-4,-1,1,-1,-2,-3,2
1570179856174821,24,9,-3,-1,-2,-1,1,2
1570179856174821,-2,-1,0,0,0,-3,-1,3
1570179856180860,-2,0,-1,-1,1,5,1,-7
1570179856180860,-6,-2,-2,-1,0,-2,-4,-5
1570179856197716,-6,-5,-1,0,0,0,0,4
1570179856197716,1,0,-1,-1,-2,1,1,-4
1570179856199226,-5,-1,0,-1,-1,-1,0,-2
1570179856199226,-6,-6,0,-1,1,0,-1,1
1570179856211509,-7,2,1,1,0,-1,0,-2
1570179856211509,21,6,-2,-4,-4,-2,-4,3
1570179856219530,-7,-3,-1,0,0,1,4,0
1570179856219530,-2,-1,-2,-2,-4,-2,-2,3
1570179856235209,-7,-4,1,-2,1,0,0,-6
1570179856235209,-8,-5,-2,-1,2,-1,0,-1
1570179856236501,3,0,-1,-2,0,-1,0,-5
1570179856236501,1,-2,0,1,-2,2,1,8
1570179856257576,5,4,0,0,0,-2,-2,-3
1570179856257576,-1,0,0,1,1,-2,-1,-1
1570179856258393,0,0,1,-1,1,-1,-3,-5
1570179856258393,-1,-2,-2,2,1,-1,-3,3
1570179856280360,0,1,-1,-1,-2,-1,0,-9
1570179856280360,7,0,-4,-3,-3,-5,-6,-8
1570179856281617,-7,-2,0,0,1,2,-4,-6
1570179856281617,-10,-5,1,0,1,0,-1,2
1570179856295613,10,-4,0,0,-1,2,4,5
1570179856295613,1,13,2,-1,-1,0,1,-19
1570179856297279,9,0,-1,-3,-1,0,3,14
1570179856297279,21,9,-1,-3,-2,-3,-6,-3
1570179856317230,-13,-10,-2,0,0,1,-2,5
1570179856317230,-12,-9,0,1,-1,2,3,-6
1570179856323449,-9,0,-1,1,-1,-2,-4,-4
1570179856323449,10,4,1,0,-1,0,0,-6
1570179856331408,-2,-4,-4,-2,-1,-2,-1,-4
1570179856331408,30,13,3,0,-1,-1,2,4
1570179856340169,-64,-24,-8,-3,-2,-4,-5,-19
1570179856340169,-9,-6,0,0,0,-1,1,-2
1570179856355359,-1,10,1,1,-1,-1,2,1
1570179856355359,12,3,0,0,-1,-2,-1,2
1570179856357124,31,1,-3,-2,-2,-2,-5,0
1570179856357124,16,11,-2,-4,-2,-3,-3,-3
1570179856377197,31,13,0,-1,0,1,3,9
1570179856377197,-43,-26,-3,-2,1,0,0,14
1570179856385044,-41,-16,-2,1,-1,-1,-1,0
1570179856385044,10,-2,4,3,2,0,5,10
1570179856391136,-28,-1,-5,-4,-3,-3,-7,-11
1570179856391136,39,24,0,-4,-3,-2,-3,2
1570179856400003,23,6,2,0,0,2,0,4
1570179856400003,3,5,-3,-2,-1,-1,1,3
1570179856414086,-30,-22,1,2,1,2,3,5
1570179856414086,-16,-5,-1,0,-1,1,0,0
1570179856421068,2,0,-1,-1,1,-2,0,-9
1570179856421068,-5,1,2,1,0,1,0,-5
1570179856436904,19,4,-1,-2,-3,-2,-2,2
1570179856436904,-22,-13,-2,-1,-1,-2,-2,-3
1570179856438900,56,27,7,3,2,3,5,13
1570179856438900,-65,-23,-9,-5,-4,-4,-8,-12
1570179856450874,-37,-19,-1,0,0,0,-2,-3
1570179856450874,5,-2,0,0,-2,0,1,0
1570179856460053,11,4,0,0,0,1,0,1
1570179856460053,16,1,2,4,-1,1,14,12
1570179856474132,9,-1,-5,-5,-3,-4,-12,-17
1570179856474132,-6,-6,0,0,-1,1,1,-2
1570179856488952,33,24,-1,-3,-3,-4,-3,-4
1570179856488952,-27,-20,-3,-2,0,-1,-3,6
1570179856497743,16,9,1,3,0,4,2,10
1570179856497743,-53,-24,-1,-1,2,0,0,0
1570179856498991,14,5,3,0,1,2,1,2
1570179856498991,1,-2,-3,-3,-1,-3,-4,-15
1570179856519223,3,-1,3,1,2,0,3,-6
1570179856519223,-4,-1,-1,-1,0,-1,-3,4
1570179856519760,-10,-5,1,3,1,2,1,9
1570179856519760,13,9,1,0,-3,-2,-2,1
1570179856533651,7,7,2,-2,-2,-1,0,-2
1570179856533651,-6,-2,0,0,-1,1,2,-1
1570179856548838,2,-10,-5,-3,-3,-2,-5,-13
1570179856548838,28,16,2,0,0,0,-1,3
1570179856556781,-25,-16,-5,-1,-3,-1,-1,-2
1570179856556781,18,8,1,1,1,0,0,5
1570179856557590,28,7,2,0,0,3,3,6
1570179856557590,-74,-34,-9,-4,-2,-3,-8,-18
1570179856579574,34,15,2,0,0,0,2,18
1570179856579574,-7,-3,-3,0,-2,-1,-3,-5
1570179856579574,-16,-9,-2,0,-1,-1,3,0
1570179856579574,59,32,1,-1,-1,0,-1,18
1570179856593489,-37,-16,-1,-1,2,1,-2,-11
1570179856593489,10,-2,-3,3,1,-2,-1,1
1570179856601552,25,16,-3,-4,-4,-2,-4,3
