timestamp,emg1,emg2,emg3,emg4,emg5,emg6,emg7,emg8
1573323788559583,-9,3,-9,-20,24,-3,-4,-10
1573323788559583,-75,-16,-12,7,-31,-9,-7,-4
1573323788567389,-13,1,1,-21,1,-2,-4,-1
1573323788567389,-10,-3,-4,-11,6,0,-3,4
1573323788576170,18,-6,-14,-9,-22,-4,-3,-10
1573323788576170,-16,-10,-10,-11,8,0,2,-20
1573323788589835,9,-7,-2,-9,-22,-9,-6,-24
1573323788589835,7,15,9,13,5,3,-3,-4
1573323788596667,30,2,2,-7,47,2,2,19
1573323788596667,-98,-10,1,6,24,-7,-4,3
1573323788613259,100,29,-5,-11,-65,-6,-4,17
1573323788613259,-44,-15,-2,-24,15,-4,-4,-25
1573323788615210,32,8,8,40,2,5,1,-7
1573323788615210,-3,-3,-8,-26,-16,5,4,-4
1573323788626946,-22,-8,-5,-7,39,1,0,53
1573323788626946,-32,12,5,20,44,-1,-3,5
1573323788635708,-12,-1,-3,-15,-50,-3,0,39
1573323788635708,57,8,17,5,-62,-1,2,24
1573323788650346,-9,-12,3,20,59,6,-1,-11
1573323788650346,30,9,-8,-12,-10,-2,1,4
1573323788657184,-7,-30,7,-9,-12,0,1,-30
1573323788657184,21,24,-10,7,18,3,5,-3
1573323788673770,-41,13,7,0,-1,-4,1,-18
1573323788673770,104,2,17,9,-13,4,-2,-16
1573323788675722,2,8,-10,6,-3,-2,-4,-15
1573323788675722,-98,1,0,-14,10,-9,-9,-22
1573323788696217,5,-21,0,0,0,3,1,-14
1573323788696217,-2,10,-10,-18,-26,-2,0,24
1573323788697193,-4,3,-5,21,24,1,4,22
1573323788697193,-24,-8,-3,-13,-12,1,-1,11
1573323788709881,18,10,9,14,15,-1,-6,-16
1573323788709881,-9,-4,-2,-8,-41,2,3,-17
1573323788718669,-33,-10,0,11,6,1,-4,6
1573323788718669,30,5,6,0,14,0,0,-1
1573323788733311,19,-1,-4,3,-11,2,3,1
1573323788733311,-8,-16,-13,-16,-22,-1,4,-14
1573323788735259,24,6,5,-12,-11,-5,1,-20
1573323788735259,20,10,11,18,15,1,-2,3
1573323788755753,-53,-22,-5,-17,-20,0,-3,9
1573323788755753,7,2,-3,-5,-1,-5,1,-16
1573323788757706,-11,-1,-5,3,23,6,-4,31
1573323788757706,-12,-9,4,41,47,12,4,-11
1573323788771369,79,13,2,3,-3,-2,0,11
1573323788771369,-68,3,1,-18,-3,-5,-7,-32
1573323788778205,12,2,9,4,6,1,4,0
1573323788778205,-61,-24,-9,-8,-10,-3,-3,-12
1573323788792841,10,7,-9,-2,0,0,-1,-5
1573323788792841,-21,-12,-7,4,9,-1,-1,-25
1573323788794795,-11,8,8,-6,-21,-2,3,27
1573323788794795,57,14,-3,-7,1,-1,-2,-31
1573323788816267,18,-3,16,14,11,-2,4,-36
1573323788816267,21,8,2,6,-4,0,0,6
1573323788817246,-11,3,3,0,7,1,1,17
1573323788817246,-2,-19,-22,-18,-35,-1,4,55
1573323788829931,-7,2,-6,15,3,-5,-2,38
1573323788829931,-9,3,12,5,12,0,-4,13
1573323788846525,1,-10,-9,-9,-23,-1,-4,12
1573323788846525,14,6,-7,-19,-25,0,4,17
1573323788854355,9,-1,-6,4,3,2,1,22
1573323788854355,9,6,18,30,28,1,-3,-13
1573323788855307,8,9,-6,-6,-6,-3,2,-1
1573323788855307,-27,-22,-11,-9,-5,-3,-3,-5
1573323788875804,-9,9,4,-2,-10,-5,-5,-3
1573323788875804,26,-8,-7,-5,-2,7,7,11
1573323788877756,18,5,3,7,25,-1,-1,-9
1573323788877756,-55,3,6,22,6,0,1,31
1573323788889490,-2,-25,-19,-23,-7,-4,-1,4
1573323788889490,10,7,-4,-11,3,4,-1,-18
1573323788898252,31,-2,6,25,-9,-2,1,4
1573323788898252,3,-9,-7,-6,-2,0,2,-20
1573323788913868,-22,-5,2,-7,3,-1,3,-6
1573323788913868,-10,14,11,9,13,-3,-6,-17
1573323788914844,22,8,-5,-10,-24,-5,-4,0
1573323788914844,16,9,2,-4,23,-1,-1,-15
1573323788936315,-17,-10,-8,1,-20,1,4,7
1573323788936315,14,-5,-7,7,20,3,2,-1
1573323788937292,-45,-14,-2,-5,-5,-3,-4,-44
1573323788937292,18,16,22,15,15,1,-1,1
1573323788949979,10,9,-10,-10,-4,0,-2,7
1573323788949979,28,-18,-4,-12,-15,-1,2,-1
1573323788958763,-97,-15,-8,-22,-6,-3,-1,-18
1573323788958763,35,5,3,15,18,4,2,6
1573323788973427,15,2,4,0,-19,-1,-3,-14
1573323788973427,-35,-5,-10,-26,-23,-6,0,11
1573323788975356,30,-3,-3,19,-8,5,3,11
1573323788975356,6,0,-3,2,16,-4,-2,11
1573323788995851,-17,3,10,14,11,4,1,15
1573323788995851,-1,-3,0,-6,5,0,-3,15
1573323788997804,4,3,-1,-16,-8,-3,-2,24
1573323788997804,-35,-2,-7,-10,-13,-4,-6,-14
1573323789009516,-1,-12,-12,-19,-10,-2,3,-8
1573323789009516,15,0,1,14,4,-2,-1,-11
1573323789018301,-60,2,-2,-5,0,-3,-7,-25
1573323789018301,42,4,13,10,6,2,2,-21
1573323789033914,-72,-14,-12,-10,-1,0,1,-6
1573323789033914,-1,-2,-2,-5,-11,0,4,6
1573323789035866,31,14,13,21,16,1,1,-21
1573323789035866,27,10,0,-11,-8,0,1,-16
1573323789056362,14,-6,3,2,0,0,-3,-17
1573323789056362,-16,7,-10,2,-2,-1,-2,0
1573323789057340,15,5,-4,-10,-6,-1,-3,1
1573323789057340,-14,-3,0,-3,-5,-4,-4,-8
1573323789078809,13,-1,2,3,4,0,-2,-19
1573323789078809,-20,-6,-4,3,1,1,1,-6
1573323789079786,13,-8,-3,-5,-2,-1,2,17
1573323789079786,-29,-6,-4,-5,-9,-1,0,20
1573323789093449,29,11,1,6,-2,0,-2,9
1573323789093449,39,19,4,1,3,0,-1,-17
1573323789095401,15,5,4,-2,0,2,1,8
1573323789095401,2,-32,-2,-1,0,-2,-2,2
1573323789115897,-10,13,6,1,-1,0,1,2
1573323789115897,37,-3,-2,-2,-2,-2,0,11
1573323789117849,-28,8,3,-2,-1,-2,0,-3
1573323789117849,-4,3,-4,1,-1,1,0,-3
1573323789129567,-19,0,1,-6,-1,0,-1,-2
1573323789129567,47,5,0,3,1,-1,0,-2
1573323789138355,0,-1,-8,-2,0,-2,0,12
1573323789138355,-26,-14,-6,-10,-6,-2,-3,6
1573323789153009,42,13,16,10,7,-6,-7,-12
1573323789153009,-29,8,2,6,2,1,1,2
1573323789154938,19,-2,2,-2,0,1,0,-7
1573323789154938,7,5,-4,1,-1,1,3,14
1573323789175461,3,8,-4,-5,-7,-1,1,9
1573323789175461,-39,-30,0,1,-1,1,0,-8
1573323789182274,-38,-5,-1,-3,-2,-2,-3,-26
1573323789182274,58,-12,-9,-6,-2,-3,-3,-9
1573323789191052,18,-16,-2,0,1,-1,-3,-64
1573323789191052,-66,9,4,0,0,-1,-4,-23
1573323789198860,-51,-1,0,-1,-2,-1,3,48
1573323789198860,22,25,8,3,1,-1,-1,44
1573323789213497,-18,-5,-1,0,1,0,3,50
1573323789213497,17,-11,-8,-3,-2,1,2,22
1573323789214474,66,3,6,2,3,1,3,7
1573323789214474,-37,12,4,3,3,0,0,-4
1573323789235944,71,7,-7,-9,-4,-3,-1,-8
1573323789235944,-42,-15,-8,-4,-4,-4,-7,-48
1573323789236921,25,14,3,3,2,3,0,46
1573323789236921,-15,-13,2,3,2,0,-1,40
1573323789249608,27,29,10,3,4,2,3,37
1573323789249608,35,-17,-12,-11,-6,-5,-4,12
1573323789258392,39,-4,-11,-5,-6,-4,-5,-122
1573323789258392,-28,4,7,3,1,-1,-2,-71
1573323789273032,-37,-8,-3,-2,-2,2,0,-106
1573323789273032,22,20,2,-8,-14,-1,2,13
1573323789274984,35,-16,-2,4,16,3,3,33
1573323789274984,-60,2,-4,-5,-10,-4,-5,46
1573323789303289,-13,-23,-1,8,2,0,-5,38
1573323789303289,89,23,8,7,10,4,2,61
1573323789305240,29,-5,-8,-6,2,-4,0,35
1573323789305240,-44,-9,-5,-5,-12,-1,-5,6
1573323789309144,-51,-40,-15,-14,-7,-11,-9,61
1573323789309144,-31,-37,-1,3,3,1,1,8
1573323789318904,-16,24,-1,-9,-7,-1,1,-21
1573323789318904,127,4,3,-2,7,-4,-1,-4
1573323789332567,66,34,10,9,2,7,9,-61
1573323789332567,-91,2,-4,2,-5,-2,-1,-46
1573323789339399,62,-44,0,0,4,-2,-5,-5
1573323789339399,4,18,2,-17,-23,-3,5,-4
1573323789355996,-29,-8,3,-5,-10,0,11,29
1573323789355996,1,35,9,14,32,3,-17,6
1573323789357947,26,-11,-17,-4,-3,12,6,11
1573323789357947,98,36,1,-2,-3,-3,-1,-12
1573323789369657,10,-12,-8,-12,-9,-7,-8,-51
1573323789369657,31,-1,10,8,7,2,10,43
1573323789378442,-14,2,2,6,-12,-6,-5,13
1573323789378442,98,-6,-4,9,14,9,5,43
1573323789393082,-57,-16,1,0,5,2,2,30
1573323789393082,-29,-15,-1,-2,0,-1,0,17
1573323789399912,-30,14,0,5,6,-2,-4,-19
1573323789399912,-23,18,6,4,0,4,5,-16
1573323789415537,-42,-26,-1,2,0,3,1,12
1573323789415537,73,-3,1,2,-4,2,-2,-17
1573323789417480,24,-13,-3,-9,-3,-4,-3,15
1573323789417480,-13,1,0,9,10,-1,-3,-26
1573323789430175,68,30,1,-2,-4,-1,0,28
1573323789430175,-8,-1,-6,-7,-3,2,6,14
1573323789438954,-86,-6,7,1,-1,2,5,-23
1573323789438954,44,9,6,2,3,-6,-7,-19
1573323789460426,127,42,-1,3,7,0,0,41
1573323789460426,-91,-57,-14,-7,-7,-4,-2,-4
1573323789462379,-43,6,-3,-12,-10,-4,0,-14
1573323789462379,-53,-27,-3,1,-7,-5,-3,-17
1573323789476065,-15,10,12,9,9,5,0,-7
1573323789476065,48,17,-5,-3,-2,-3,1,15
1573323789477995,10,1,0,0,-1,0,-1,9
1573323789477995,-28,-19,-7,-9,-7,-1,-1,-1
1573323789499466,52,-1,-4,4,7,-2,-5,-20
1573323789499466,61,10,2,1,-15,0,2,25
1573323789501419,-16,10,-4,-5,-9,-2,-3,-5
1573323789501419,-64,-16,-2,-3,4,0,-2,-16
1573323789513130,-37,1,-5,1,-3,-4,-6,-32
1573323789513130,61,10,5,-1,1,1,3,2
1573323789519966,-49,5,-1,5,5,-1,8,-3
1573323789519966,-28,-1,-1,1,0,-2,-16,0
1573323789535582,-22,-6,-2,-6,-3,-2,1,63
1573323789535582,22,7,-4,-2,0,0,2,60
1573323789537538,103,7,10,6,0,2,0,5
1573323789537538,-16,-7,-2,2,8,5,6,6
1573323789549246,-97,-26,-11,-5,-6,-3,-4,-36
1573323789549246,37,18,6,-1,-4,-3,1,-26
1573323789565836,35,13,2,0,-7,-4,-4,2
1573323789565836,-18,-9,2,6,22,7,7,-23
1573323789572688,54,8,2,2,-21,-1,-3,-1
1573323789572688,-65,2,4,2,16,2,4,9
1573323789579501,-22,-23,-9,-5,-3,-6,-11,-27
1573323789579501,10,-11,-5,-7,-10,0,3,3
1573323789596120,-61,0,-4,-2,-3,0,0,-26
1573323789596120,6,-5,-1,0,-4,-4,-6,-34
1573323789597067,-32,-7,4,5,8,2,2,7
1573323789597067,40,16,-1,-2,-3,-2,-2,15
1573323789618542,-20,-5,-2,1,4,1,-2,13
1573323789618542,-74,-18,-3,0,-5,-2,-4,-5
1573323789619513,27,26,7,2,4,2,1,13
1573323789619513,4,4,0,0,-4,-1,-1,13
1573323789633183,-23,-23,-1,1,6,1,3,15
1573323789633183,-18,2,-1,-4,-2,-1,-2,-5
1573323789640011,-15,-16,-6,-2,-2,0,-2,-2
1573323789640011,15,42,1,-1,-1,-2,-1,11
1573323789655626,33,-18,-2,-3,2,1,-1,11
1573323789655626,1,-14,-6,-4,-6,-2,-5,0
1573323789657577,-27,7,8,6,6,0,-2,28
1573323789657577,-31,-9,-1,2,1,-1,-2,62
1573323789678071,20,9,0,-2,4,-2,-1,34
1573323789678071,-20,-10,-5,-6,-5,-1,0,-38
1573323789684903,-1,3,-5,-2,-3,1,1,-41
1573323789684903,27,-16,-7,-2,-3,-1,-2,-61
1573323789691735,-2,6,-3,-4,-1,0,2,-45
1573323789691735,-2,0,1,-1,0,-1,-2,-42
1573323789700519,9,1,2,4,-1,-1,-2,-13
1573323789700519,5,-12,-1,-2,-1,0,1,3
1573323789716136,-13,2,-1,1,3,0,5,-16
1573323789716136,13,2,-5,-3,-2,0,-3,12
1573323789717112,17,-2,-3,-4,-1,-3,-1,1
1573323789717112,-15,2,4,2,-1,0,0,-59
1573323789738586,2,7,3,0,0,-3,0,-74
1573323789738586,0,-4,-1,3,1,-2,1,-34
1573323789740537,6,-1,-5,-3,-1,-1,0,-2
1573323789740537,-5,2,2,0,-4,1,3,4
1573323789752253,-3,-7,-1,1,0,1,-3,48
1573323789752253,8,6,-1,-2,-2,-3,0,38
1573323789761033,-3,-7,0,2,-1,1,-2,23
1573323789761033,2,-2,2,0,1,1,1,16
1573323789775697,3,10,1,-1,-1,-1,-3,2
1573323789775697,-6,1,-3,-2,-3,-2,-2,7
1573323789777626,3,-3,1,0,-2,-3,-1,9
1573323789777626,-4,-3,-5,-3,0,-2,0,8
1573323789798145,-5,-3,-3,-2,-3,0,-2,6
1573323789798145,1,1,-1,-3,-2,0,2,26
1573323789800075,-1,2,5,4,4,0,-1,1
1573323789800075,2,-4,-2,0,-1,0,2,10
1573323789811808,-7,-7,-3,-4,-2,-1,-1,0
1573323789811808,1,6,3,2,2,0,0,8
1573323789820571,4,-3,5,1,0,-2,2,-10
1573323789820571,-3,-1,-3,-2,-4,-2,-6,2
1573323789836188,2,-3,-1,1,1,1,-7,17
1573323789836188,0,-1,-4,-4,-1,2,-4,2
1573323789837161,-1,-3,-5,-3,-1,-2,14,-3
1573323789837161,-3,-4,2,-1,0,-3,-7,3
1573323789858631,0,1,-1,1,-2,1,-6,2
1573323789858631,3,2,1,1,1,0,-4,3
1573323789859608,-2,-3,-4,-4,-3,1,-6,-1
1573323789859608,-2,-3,-6,-3,0,0,2,-14
1573323789872296,-1,2,7,0,2,0,6,-12
1573323789872296,0,-2,1,4,0,1,1,-1
1573323789881079,2,2,-1,-2,-2,-1,6,-23
1573323789881079,1,0,2,1,-1,-1,-10,3
1573323789897671,-2,2,1,0,-4,-2,-1,-4
1573323789897671,-3,-2,-9,-2,4,-2,-3,1
1573323789898647,-4,-1,10,-4,-6,2,16,-77
1573323789898647,-3,-9,4,10,-1,-1,3,35
1573323789918192,4,0,-17,-3,5,2,0,12
1573323789918192,0,3,3,5,2,0,3,4
1573323789920121,2,-1,-6,-2,-2,2,-4,31
1573323789920121,-6,3,4,-2,0,-2,4,-74
1573323789931834,9,-3,3,2,1,5,26,81
1573323789931834,2,-3,-8,-7,-2,1,-22,12
1573323789940617,0,1,-2,-2,0,-4,-4,15
1573323789940617,-1,0,4,-2,-1,-2,29,19
1573323789956263,-4,3,0,-4,-3,-8,-54,-15
1573323789956263,0,-1,-2,-2,0,-3,-11,-3
1573323789957209,-2,-4,-3,-3,-6,0,6,23
1573323789957209,-5,-4,-5,-3,-2,-1,-4,14
1573323789978703,1,3,2,3,4,2,25,-2
1573323789978703,4,10,12,3,-2,3,9,29
1573323789979658,-2,-4,-1,6,0,1,-13,14
1573323789979658,3,-2,-11,-6,0,-1,-2,26
1573323789992390,-2,-3,-3,-4,-6,-7,2,-14
1573323789992390,-2,0,1,0,-7,-1,-3,-10
1573323790001134,-6,0,-1,0,4,-2,3,-52
1573323790001134,3,2,-1,-3,2,3,2,-2
1573323790015860,-4,-5,-1,-2,0,0,3,-14
1573323790015860,1,-2,-1,0,-3,-3,1,-6
1573323790017724,-2,-3,-8,-3,-1,1,3,-22
1573323790017724,-2,-4,-3,-2,0,-1,-10,-6
1573323790038225,-1,2,5,2,-1,1,-3,-23
1573323790038225,-2,1,0,-1,0,-1,20,-24
1573323790040171,-1,6,6,4,1,1,-11,-2
1573323790040171,1,1,-3,-1,3,-2,-10,-7
1573323790051917,-8,-6,-5,-3,-11,-1,0,-7
1573323790051917,0,-3,-2,-2,0,-1,7,0
1573323790060665,3,0,0,3,2,2,0,21
1573323790060665,-2,4,5,2,-2,-1,-14,1
1573323790076281,1,-1,-4,-1,1,-2,14,-1
1573323790076281,-3,0,-3,-2,-1,0,9,18
1573323790077257,-1,-6,-2,-2,-3,-5,-22,6
1573323790077257,0,2,-3,-1,-1,1,9,-6
1573323790098726,-1,-1,-2,-3,1,1,-2,-4
1573323790098726,0,2,1,2,2,-1,2,-4
1573323790099703,0,-1,-2,-1,1,-1,-2,9
1573323790099703,-3,-3,-6,-1,-3,-1,-3,-7
1573323790112391,-3,-2,-1,-2,-1,-2,1,-11
1573323790112391,-1,-1,1,1,0,1,-6,1
1573323790121174,2,4,2,0,3,-1,0,11
1573323790121174,-1,-1,2,3,0,-1,2,6
1573323790135814,-1,-2,0,-1,-1,2,-2,14
1573323790135814,-3,-4,-4,-3,-5,-2,1,-5
1573323790137766,-1,-2,-2,-1,-1,-2,1,-7
1573323790137766,1,2,2,0,1,1,7,-6
1573323790158287,1,1,1,0,0,-3,-20,-9
1573323790158287,-4,-5,-4,-4,0,1,0,-4
1573323790160218,-2,-1,-5,-6,-7,-4,-29,-8
1573323790160218,0,2,4,6,-2,-5,4,-5
1573323790171950,0,2,1,1,2,0,6,-9
1573323790171950,1,-2,-1,-1,0,-4,-10,-12
1573323790180712,1,-3,-5,-2,-2,-2,2,5
1573323790180712,-2,-1,0,-1,0,2,-2,0
1573323790194379,-5,2,0,-1,-2,-1,-8,1
1573323790194379,1,-7,-3,1,1,2,4,11
1573323790203225,-1,1,-3,-3,-2,0,30,11
1573323790203225,-2,0,2,-2,-3,1,2,-4
1573323790218840,-4,-2,1,0,0,0,9,-1
1573323790218840,1,0,-3,-2,-3,-3,-1,1
1573323790219754,-2,-5,-5,0,0,-1,-12,1
1573323790219754,1,2,1,1,0,-3,2,-8
1573323790232444,1,1,-1,0,1,2,1,-4
1573323790232444,-2,0,-1,0,-1,-2,1,-6
1573323790241229,3,3,2,1,2,0,-5,-2
1573323790241229,2,1,1,0,2,1,-4,0
1573323790254889,2,-4,-2,-1,-2,-1,-1,1
1573323790254889,-1,-1,-1,-2,-2,0,8,9
1573323790261720,0,4,6,5,1,-2,-2,8
1573323790261720,0,0,0,-5,-1,-1,-5,1
1573323790278312,0,-1,-1,1,-1,0,-2,9
1573323790278312,0,-2,-1,0,1,1,2,-2
1573323790280263,-4,-5,-3,-3,-4,1,8,2
1573323790280263,-1,0,-5,-3,-2,-1,3,2
1573323790291975,1,-7,2,-1,-1,-3,-9,-7
1573323790291975,1,6,2,-1,-1,1,19,-1
1573323790300759,-2,-1,-3,0,0,0,-10,-1
1573323790300759,3,1,1,0,0,-2,-5,2
1573323790315404,0,0,-1,-1,-1,1,8,-2
1573323790315404,1,-1,2,-1,1,0,-7,-1
1573323790322235,-2,0,-2,-2,1,-1,4,4
1573323790322235,-2,-3,-3,-2,-4,-2,1,-10
1573323790338826,0,3,2,1,1,0,-7,23
1573323790338826,-1,1,2,1,0,-3,-19,-4
1573323790339801,1,-1,-2,-1,0,0,1,-2
1573323790339801,-2,-3,-4,-2,-1,1,2,1
1573323790352487,-4,-1,-2,-2,-1,-2,-2,-1
1573323790352487,0,1,0,1,0,0,-6,3
1573323790361272,1,-1,0,-2,-1,-1,7,2
1573323790361272,3,-3,0,0,0,0,-3,3
1573323790374958,-1,0,0,-1,0,1,12,-12
1573323790374958,-2,-1,-2,-1,1,-2,-25,-12
1573323790381792,-2,-1,2,2,1,0,2,-12
1573323790381792,-6,-1,1,-1,-1,0,-1,-11
1573323790398383,1,2,-1,-1,1,-1,-3,-8
1573323790398383,0,0,0,0,0,0,8,3
1573323790400312,0,-1,-1,0,0,1,0,7
1573323790400312,-2,-1,-3,-3,-1,-2,-5,8
1573323790412026,0,3,1,2,-1,-1,3,6
1573323790412026,0,-7,-4,-3,-2,-1,3,1
1573323790420808,-2,-1,2,-1,-1,-1,-2,4
1573323790420808,1,-3,-3,1,-1,0,-1,10
1573323790435471,-4,-3,-3,-2,-2,-1,5,-8
1573323790435471,1,2,1,1,0,-2,0,-3
1573323790442281,1,0,-1,1,-1,-1,5,-2
1573323790442281,4,1,0,-1,-1,0,1,4
1573323790458871,-5,-4,-1,-1,-1,-2,-8,-14
1573323790458871,0,3,2,0,1,0,1,2
1573323790459856,-1,-1,-2,-1,0,3,3,0
1573323790459856,0,0,-2,0,0,-1,4,-3
1573323790471564,5,0,-1,0,0,-3,-3,4
1573323790471564,-3,-2,-1,-1,-2,-2,-5,-4
1573323790481321,0,0,0,0,-2,0,-1,3
1573323790481321,-3,1,-1,-2,0,1,-6,-1
1573323790494983,8,-1,-1,0,0,0,0,11
1573323790494983,-11,-4,-3,-4,-2,-3,-2,-7
1573323790501815,1,1,0,-2,0,1,2,1
1573323790501815,-1,-2,-2,-2,1,2,-2,-8
1573323790518412,1,2,5,1,0,1,3,5
1573323790518412,3,-1,-1,0,-1,-1,-9,2
1573323790520358,4,2,-1,0,-2,-3,-5,-8
1573323790520358,-5,-4,-2,-2,-2,-3,2,1
1573323790540878,-1,2,0,-1,0,0,-1,-4
1573323790540878,-1,-1,0,0,0,1,9,5
1573323790542808,1,1,0,-2,0,-1,-4,-13
1573323790542808,-4,-3,-2,-1,0,0,0,2
1573323790555519,0,-3,-4,-2,0,0,-1,3
1573323790555519,2,2,-1,-1,-3,-3,1,-15
1573323790562351,-10,-3,0,-2,-3,-3,7,-64
1573323790562351,-1,-2,1,2,0,-1,-3,62
1573323790578987,-3,-1,-1,0,-1,-2,-6,-12
1573323790578987,-2,-1,2,0,0,0,-6,31
1573323790579900,-3,-3,-3,-1,-2,-6,0,-88
1573323790579900,4,-1,-1,1,1,3,6,-13
1573323790600456,0,-4,-5,-4,0,5,6,-22
1573323790600456,1,1,0,4,1,1,2,37
1573323790608254,-1,-2,1,1,1,-3,-21,109
1573323790608254,-2,0,-1,-1,0,1,-9,-15
1573323790615035,-1,0,0,-1,-1,-4,0,52
1573323790615035,1,2,0,-2,1,1,3,-77
1573323790623819,7,4,3,1,0,-2,-9,15
1573323790623819,2,0,-1,-2,-2,-1,1,-15
1573323790638544,3,-2,-1,0,-2,1,-5,21
1573323790638544,-7,-2,-2,-3,-2,0,0,-34
1573323790640408,-1,-1,-1,0,0,3,7,24
1573323790640408,1,-1,1,0,-1,-4,-2,-10
1573323790660905,2,-2,-3,0,-1,-4,1,-36
1573323790660905,-5,-4,1,0,0,-2,2,13
1573323790662857,-2,-3,-2,-2,-2,3,-1,-4
1573323790662857,4,0,0,-1,-1,1,4,6
1573323790674569,6,8,3,1,-1,-4,-8,-19
1573323790674569,-2,-5,-6,-1,-1,5,6,19
1573323790684326,-12,-4,-3,-1,-4,-8,-18,-33
1573323790684326,-4,-1,-2,0,-1,-1,-3,27
1573323790697989,-3,-4,-4,-2,-1,3,3,-1
1573323790697989,4,5,3,0,0,-3,-8,2
1573323790699942,-1,1,0,-3,-2,-1,5,-70
1573323790699942,2,1,0,0,-2,-3,4,1
1573323790720479,-3,-3,-1,-2,-1,2,13,-13
1573323790720479,1,-3,-3,0,-1,-3,-17,18
1573323790724341,0,2,1,3,3,4,5,10
1573323790724341,-6,0,2,-2,-2,-5,-10,-55
1573323790735103,-7,-4,0,2,0,-3,-3,-60
1573323790735103,4,1,-1,0,-2,0,5,-5
1573323790741912,-2,-2,-4,0,1,4,5,25
1573323790741912,-5,-3,-2,-2,-1,-1,-4,-17
1573323790758504,0,2,-1,-1,0,1,-1,-3
1573323790758504,-4,-2,-2,-2,-1,-2,3,-7
1573323790760456,4,1,1,-1,0,-2,-5,-10
1573323790760456,-2,-5,-4,2,1,5,10,23
1573323790780975,-1,-2,0,-1,0,3,-1,38
1573323790780975,4,2,2,0,-1,-1,9,-7
1573323790782910,1,0,0,2,0,1,5,63
1573323790782910,-8,-1,-2,-3,-1,-3,-11,-70
1573323790795592,-2,3,1,2,-1,-7,-4,6
1573323790795592,3,2,-2,-1,0,2,3,26
1573323790802424,3,-1,-1,-3,-2,-1,4,-18
1573323790802424,0,1,2,5,-1,-1,-4,54
1573323790817086,-2,-2,-2,-2,-3,-1,-5,-17
1573323790817086,-2,-4,-3,-3,-1,1,1,-17
1573323790825847,2,-3,0,4,1,2,-1,102
1573323790825847,1,0,-2,-3,-3,-2,3,-29
1573323790840564,-1,0,0,0,0,-1,-5,17
1573323790840564,3,1,0,1,-1,1,3,-4
1573323790842441,3,2,0,-2,-1,1,-3,25
1573323790842441,3,0,-3,-1,-1,3,6,-18
1573323790855199,2,1,0,2,1,2,4,8
1573323790855199,1,0,1,-1,0,-2,-2,6
1573323790861963,1,2,1,1,1,-2,5,-53
1573323790861963,-1,1,0,-2,-2,-3,-1,-12
1573323790878552,-4,-1,-1,1,-1,1,1,23
1573323790878552,-3,0,0,0,-1,0,-3,-4
1573323790879531,-4,-4,-2,-2,-1,0,2,-12
1573323790879531,6,0,-1,-2,2,2,2,25
1573323790901001,-4,-2,-4,-4,-3,-2,-1,-9
1573323790901001,-1,-4,-2,-2,-2,-1,2,-34
1573323790901977,-2,-2,0,2,1,4,12,89
1573323790901977,-1,-4,-3,-3,1,0,-1,-5
1573323790915638,1,0,-1,-1,0,-3,-4,-9
1573323790915638,-1,0,-2,-2,-1,0,8,-74
1573323790929307,-6,-3,-3,-2,-1,1,8,-98
1573323790929307,-3,2,2,1,-2,-3,-6,40
1573323790938085,-2,-1,0,1,1,1,0,-3
1573323790938085,0,-1,-1,0,-1,0,-3,23
1573323790940038,-1,0,-3,-2,-4,-5,-6,-21
1573323790940038,1,0,-2,0,0,2,5,4
1573323790960533,0,-2,-1,-1,-1,0,-5,42
1573323790960533,6,2,3,2,2,3,-1,113
1573323790962485,3,3,1,-2,-2,-1,-6,-10
1573323790962485,-3,-1,-1,0,1,4,11,14
1573323790975172,-7,-5,-2,-1,0,-1,-2,33
1573323790975172,-3,-1,-1,0,-1,-2,-10,-7
1573323790982030,2,0,-1,-1,-1,-2,-4,9
1573323790982030,6,4,1,-1,-4,-6,-8,-67
1573323790998622,0,1,-1,1,2,3,2,26
1573323790998622,-10,-1,-4,-2,-1,-1,1,-24
1573323790999575,-7,-6,-2,0,-1,-2,-4,-4
1573323790999575,0,0,-2,-2,-3,-1,-2,-30
1573323791021046,3,2,3,2,-2,-3,-6,-27
1573323791021046,0,1,-1,-1,-1,-2,0,-13
1573323791022023,-3,0,-2,-3,-2,-1,1,28
1573323791022023,-2,-3,-1,1,2,-2,-16,8
1573323791034709,7,3,0,-1,0,2,12,-11
1573323791034709,0,0,4,3,2,2,-5,115
1573323791043495,1,0,-1,1,0,-1,-2,15
1573323791043495,-1,2,2,0,-1,-1,0,21
1573323791059152,-4,-3,-2,-1,0,-1,-3,-36
1573323791059152,-1,2,0,-3,-2,-3,-9,-93
1573323791060087,-1,-3,-1,-1,-2,-2,0,-12
1573323791060087,0,-4,-3,-1,-1,-1,3,32
1573323791080582,-8,-1,-4,-3,-3,-4,-7,-77
1573323791080582,-5,-10,-5,-1,-1,2,6,39
1573323791082537,-1,0,-2,-1,-1,0,-2,-21
1573323791082537,-5,-1,-2,-1,-1,-1,-5,-35
1573323791094245,-1,0,-2,-1,-3,0,1,-35
1573323791094245,5,0,-1,-2,-1,0,5,-11
1573323791103030,-2,-2,-2,-2,-2,-1,-4,-53
1573323791103030,4,-1,-1,-3,-2,-3,4,-17
1573323791118644,-2,-4,1,2,3,3,1,75
1573323791118644,-3,-1,0,-1,-1,-4,-3,-1
1573323791119621,4,-1,-1,-1,0,-1,-2,3
1573323791119621,3,4,0,-1,1,1,4,-32
1573323791141098,5,1,0,0,-2,-2,-1,7
1573323791141098,-2,3,1,-1,-2,-3,-2,-12
1573323791142069,-2,-3,0,-2,-1,2,6,9
1573323791142069,-1,-3,0,2,2,3,-6,111
1573323791154780,0,-1,-1,-1,0,-2,-2,-1
1573323791154780,0,0,-1,-1,2,-1,-1,-32
1573323791163551,4,1,-4,-2,-1,0,4,25
1573323791163551,0,-1,2,2,2,4,9,59
1573323791178266,1,-2,0,0,-2,0,-4,24
1573323791178266,1,0,-5,-1,-1,0,4,13
1573323791180142,-3,0,1,1,-1,-1,-9,-9
1573323791180142,-1,-2,-2,-1,-1,-1,1,-35
1573323791200718,3,1,0,-1,0,0,-1,42
1573323791200718,-8,2,2,1,0,-3,-2,-16
1573323791202585,-1,1,0,-1,-1,-2,-5,-18
1573323791202585,-5,-1,-2,-1,-2,-1,-2,6
1573323791214383,7,3,1,0,0,1,0,59
1573323791214383,1,-3,-4,-3,0,1,-8,-13
1573323791224057,4,3,1,0,0,0,5,-29
1573323791224057,-5,-4,-3,-4,-1,-2,-11,-4
1573323791238698,-7,-5,-1,-2,0,-2,6,-31
1573323791238698,1,-2,0,0,-1,-1,-1,10
1573323791239672,-5,-4,-5,-4,-1,-2,-1,12
1573323791239672,1,0,-3,-2,-1,0,1,-20
1573323791260255,-4,-4,-4,-2,-1,2,1,-16
1573323791260255,-2,-6,0,2,2,1,3,96
1573323791261154,-1,4,4,1,1,-2,-1,-14
1573323791261154,2,0,-1,-1,0,-3,2,-1
1573323791282704,-4,-2,-3,0,-1,-2,-9,-17
1573323791282704,2,0,-2,-4,-5,-5,-1,-111
1573323791283592,0,-1,0,1,1,1,-1,32
1573323791283592,-2,0,1,-1,-1,-2,1,-4
1573323791298231,-4,2,2,0,-1,-4,-7,-57
1573323791298231,1,-1,0,0,-1,-1,6,-21
1573323791298231,1,0,-1,-1,-2,-4,-9,-40
1573323791298231,-5,-3,0,1,-2,-4,-21,57
1573323791319703,3,1,-2,-1,-1,-2,-4,0
1573323791319703,-4,0,-1,-3,-1,0,-1,-24
1573323791320678,-4,-4,-2,0,0,1,5,55
1573323791320678,4,3,2,2,0,2,2,26
1573323791342148,3,1,1,0,-1,0,3,-15
1573323791342148,-1,-1,-1,1,1,1,-3,26
1573323791343126,0,-2,-2,-2,-1,0,7,13
1573323791343126,-5,0,-3,-4,-1,0,7,-61
1573323791357865,-1,0,0,-2,0,-1,-1,4
1573323791357865,-1,0,-1,0,-1,-1,1,-6
1573323791358741,1,1,-1,-3,0,-2,-3,-26
1573323791358741,0,0,2,1,0,-1,4,-18
1573323791380217,0,-3,-1,0,0,2,4,1
1573323791380217,2,-1,0,0,-2,1,-2,-42
1573323791381192,2,1,1,2,-1,-1,-2,55
1573323791381192,2,-1,-1,1,-2,-1,2,-23
1573323791402683,-1,2,-1,-1,-1,-4,0,-21
1573323791402683,-3,-3,-4,-3,-5,-5,4,-43
1573323791403638,-2,-1,0,0,0,1,-2,-17
1573323791403638,-2,0,2,2,2,-1,-11,-11
1573323791417306,-1,1,1,1,1,-4,-5,38
1573323791417306,0,2,-1,-1,-2,-6,-11,-10
1573323791418279,-4,0,0,-2,-2,-3,-7,-28
1573323791418279,3,0,0,-2,-2,0,3,2
1573323791440727,-1,0,-3,-1,-2,0,1,-25
1573323791440727,3,0,1,2,1,2,1,50
1573323791440727,-2,-2,-1,-1,-2,2,-1,-14
1573323791440727,-5,-7,-1,-2,-1,1,10,47
1573323791463226,-2,-2,-1,0,-2,0,4,0
1573323791463226,0,-3,-1,-2,-1,2,5,-8
1573323791463226,1,2,0,-1,-2,-4,-3,-2
1573323791463226,-3,-1,-2,-1,0,0,1,-36
1573323791477901,8,0,0,2,3,5,5,96
1573323791477901,2,1,2,1,1,0,-1,28
1573323791478793,4,-1,-1,-2,0,1,3,-17
1573323791478793,-1,-2,-1,0,1,2,1,48
1573323791500261,0,1,-1,-1,0,-1,8,-6
1573323791500261,-1,3,-1,-3,-3,-8,-30,4
1573323791501239,-2,-2,-1,-1,-1,3,4,-4
1573323791501239,3,2,-1,0,-2,-1,-5,19
1573323791522718,2,-3,-2,-1,0,2,-5,18
1573323791522718,0,-1,-2,0,1,6,10,40
1573323791523689,-8,-3,-2,-4,-2,-7,-5,-59
1573323791523689,0,0,-1,0,-2,-1,0,-20
1573323791537353,-6,-1,1,-1,-1,-2,-3,-46
1573323791537353,2,-2,-2,0,0,1,5,-4
1573323791538325,4,1,-1,0,-2,-2,1,-13
1573323791538325,2,3,1,1,0,-2,5,11
1573323791559797,2,-3,-6,-4,-3,-3,-4,-2
1573323791559797,-3,2,3,3,1,-2,-3,-19
1573323791560771,0,-2,-2,1,2,2,3,80
1573323791560771,-1,0,-4,-1,-1,-1,2,-21
