timestamp,emg1,emg2,emg3,emg4,emg5,emg6,emg7,emg8
1.56941E+15,1,1,0,0,2,1,2,10
1.56941E+15,-1,-2,-2,-1,-1,-1,-2,2
1.56941E+15,-2,2,1,1,-1,-1,-1,-2
1.56941E+15,-2,-1,0,1,0,0,3,-2
1.56941E+15,2,-2,0,-2,-2,-4,-11,-1
1.56941E+15,0,0,0,-1,-1,1,0,3
1.56941E+15,-2,1,-2,-1,0,-1,1,-2
1.56941E+15,0,-2,-2,0,-1,0,3,4
1.56941E+15,0,-1,-1,0,-1,-1,2,-5
1.56941E+15,0,-2,0,-1,0,-1,0,0
1.56941E+15,-1,-2,0,1,-1,0,-3,1
1.56941E+15,0,-2,-1,-1,1,0,-3,3
1.56941E+15,-2,0,0,1,-1,-1,1,-6
1.56941E+15,4,1,0,-1,-1,0,-2,1
1.56941E+15,0,-1,-1,0,-1,1,0,-2
1.56941E+15,1,-1,0,-1,-2,-3,-1,0
1.56941E+15,-3,-1,1,1,-1,-1,-1,-12
1.56941E+15,0,-1,-2,-1,-3,-2,-2,6
1.56941E+15,-2,0,0,-2,0,-1,0,-7
1.56941E+15,0,0,0,0,-2,1,-2,3
1.56941E+15,1,0,-1,0,1,0,-1,1
1.56941E+15,-2,0,0,0,-2,-1,1,-2
1.56941E+15,0,-3,-3,0,0,1,0,5
1.56941E+15,-1,-1,-2,-2,-1,0,1,2
1.56941E+15,-3,-1,0,-1,-1,-1,0,-6
1.56941E+15,1,1,0,-1,-1,0,0,5
1.56941E+15,-3,-1,0,-1,0,-2,-1,0
1.56941E+15,3,1,0,0,0,-6,-15,4
1.56941E+15,1,0,0,0,-1,0,0,-1
1.56941E+15,2,0,-2,0,-1,1,1,1
1.56941E+15,-1,0,1,0,-1,-2,0,-5
1.56941E+15,0,-1,0,-1,0,1,3,4
1.56941E+15,-1,-3,1,-1,-1,-1,-2,-4
1.56941E+15,1,0,0,-1,-1,-2,-3,1
1.56941E+15,-1,1,-1,-2,-1,-1,0,-3
1.56941E+15,-3,-2,-1,0,-1,2,2,0
1.56941E+15,-3,-1,-3,0,-3,-1,-2,-9
1.56941E+15,-1,-1,-1,0,0,1,1,-1
1.56941E+15,-1,-1,-2,-1,-1,-1,1,8
1.56941E+15,1,-1,-2,0,0,1,1,4
1.56941E+15,0,-1,1,-1,0,-2,1,0
1.56941E+15,-2,-2,-2,0,1,0,1,-1
1.56941E+15,-2,0,0,-1,0,-2,-1,-3
1.56941E+15,-1,0,0,-1,-3,-1,-1,0
1.56941E+15,-1,0,0,-1,1,0,-1,-1
1.56941E+15,2,1,-1,-2,-1,-2,1,5
1.56941E+15,-3,0,-1,-1,-1,1,-1,-4
1.56941E+15,-1,1,-1,0,0,-1,0,-1
1.56941E+15,1,0,-2,0,0,0,0,-2
1.56941E+15,-3,-1,0,-3,0,-1,-1,-4
1.56941E+15,1,0,-1,1,-2,0,-1,-2
1.56941E+15,-5,-2,1,-1,-1,0,7,-3
1.56941E+15,1,-1,-3,0,-1,-1,1,0
1.56941E+15,3,-1,0,-1,0,-2,1,7
1.56941E+15,2,0,0,0,-1,0,-1,6
1.56941E+15,-2,-1,1,-2,0,-1,-2,-7
1.56941E+15,-3,-1,-2,-2,1,0,-2,-1
1.56941E+15,-2,-1,-2,0,-2,0,0,-3
1.56941E+15,-3,-1,-1,-1,1,1,1,-6
1.56941E+15,1,1,2,0,0,0,0,14
1.56941E+15,-1,-1,-1,-1,-2,0,1,-5
1.56941E+15,-1,0,0,-1,-1,0,-3,-3
1.56941E+15,1,0,0,-2,-2,0,-1,0
1.56941E+15,0,-2,-2,-1,-1,0,-1,-2
1.56941E+15,1,-1,-1,-2,0,-1,-2,4
1.56941E+15,0,1,-1,1,-2,0,-1,1
1.56941E+15,-3,-1,-2,0,-1,-2,-1,-4
1.56941E+15,-4,-1,0,0,0,-1,-4,-7
1.56941E+15,2,1,1,-1,0,-1,1,1
1.56941E+15,-2,-2,-1,-2,-1,-2,-1,-2
1.56941E+15,1,0,-2,-1,1,-1,-2,0
1.56941E+15,0,0,0,-2,-1,-1,-2,-8
1.56941E+15,-2,-2,-1,0,-2,-1,-2,-5
1.56941E+15,2,0,1,0,0,-1,-2,4
1.56941E+15,0,-2,-1,-1,-1,-1,0,-1
1.56941E+15,-2,-1,-2,-1,-1,-1,0,-2
1.56941E+15,-1,0,-1,-2,1,-1,-2,-1
1.56941E+15,0,0,-1,1,0,-1,0,0
1.56941E+15,0,1,0,-2,-2,1,2,5
1.56941E+15,3,-1,-2,0,0,-1,3,9
1.56941E+15,-3,-2,0,0,-1,-1,2,-5
1.56941E+15,-3,-1,-2,0,-1,1,1,0
1.56941E+15,1,0,0,-1,-2,-1,-4,-1
1.56941E+15,0,0,-1,-1,-2,-1,-2,-4
1.56941E+15,-3,1,0,2,-2,0,-2,-6
1.56941E+15,0,-1,0,-2,1,-1,1,4
1.56941E+15,0,0,-2,0,1,-3,-4,-2
1.56941E+15,-1,1,0,0,-1,-2,0,1
1.56941E+15,0,-1,-1,0,-1,0,-2,-6
1.56941E+15,-2,-1,0,0,-1,-1,-1,0
1.56941E+15,-2,-1,0,-2,-2,0,2,-1
1.56941E+15,1,-1,-2,-1,0,-1,0,-2
1.56941E+15,0,-2,0,-1,-1,1,-1,-2
1.56941E+15,-2,1,-2,-1,0,0,-1,-4
1.56941E+15,3,-1,0,0,0,-2,2,8
1.56941E+15,-2,-1,-1,0,-2,-3,-1,0
1.56941E+15,3,0,-1,-2,-1,0,-1,3
1.56941E+15,-1,-1,0,-1,-2,-1,-1,0
1.56941E+15,-2,-1,0,1,0,2,-1,-7
1.56941E+15,-2,-1,-2,-1,0,0,0,-3
1.56941E+15,-4,0,0,-1,-1,-1,-3,-6
1.56941E+15,-1,-2,0,1,-1,-1,-1,0
1.56941E+15,0,0,0,-3,-2,-2,-2,4
1.56941E+15,1,-2,-1,0,1,0,-1,-1
1.56941E+15,-4,-2,-2,-1,-1,-1,0,-1
1.56941E+15,2,0,-1,-1,-3,0,1,1
1.56941E+15,-1,0,3,1,1,1,-1,4
1.56941E+15,2,-1,-1,-2,-1,1,1,11
1.56941E+15,0,0,-1,0,-1,-1,-2,-1
1.56941E+15,3,-1,0,-1,-2,-2,-13,9
1.56941E+15,-1,-1,-1,-2,-1,-1,2,-4
1.56941E+15,-4,-3,1,-2,-1,1,7,-10
1.56941E+15,1,0,-2,-1,0,-5,-5,-1
1.56941E+15,-3,0,-1,0,1,-3,2,-1
1.56941E+15,2,-1,-1,0,-1,-1,1,4
1.56941E+15,-2,1,0,0,-1,0,-3,0
1.56941E+15,0,-1,-2,-2,-1,2,0,-4
1.56941E+15,-1,1,0,1,-1,0,1,-1
1.56941E+15,-4,-3,-1,-1,-1,-1,-1,-7
1.56941E+15,0,-2,-1,0,-1,1,-3,1
1.56941E+15,0,-1,0,0,-2,-1,2,-2
1.56941E+15,-1,-1,-1,-2,-1,-1,0,-1
1.56941E+15,-1,-1,-1,0,-1,-3,-3,-3
1.56941E+15,2,1,1,2,1,-3,-8,-6
1.56941E+15,0,0,-1,0,0,0,-3,-4
1.56941E+15,1,-2,0,-1,-2,0,1,2
1.56941E+15,-1,0,-1,-2,-3,-2,0,-7
1.56941E+15,-3,0,-1,0,-1,0,1,-7
1.56941E+15,4,-2,1,-1,-1,-2,1,8
1.56941E+15,-1,0,0,-2,1,0,1,-1
1.56941E+15,1,1,1,0,0,0,-1,-4
1.56941E+15,-1,-1,-2,-1,-3,-2,0,1
1.56941E+15,-1,-2,0,0,0,-2,0,-7
1.56941E+15,0,-1,-2,0,1,0,2,2
1.56941E+15,1,-1,-3,0,0,0,-1,5
1.56941E+15,2,0,-1,-2,-1,0,0,7
1.56941E+15,-2,0,0,-1,-1,-1,-1,-3
1.56941E+15,-6,-3,2,-2,-1,-2,-2,-5
1.56941E+15,-3,-3,-8,-4,-3,1,-1,1
1.56941E+15,-6,-9,-1,-2,0,-2,-2,-10
1.56941E+15,11,12,0,5,3,3,0,5
1.56941E+15,-5,0,-2,-1,7,4,3,-6
1.56941E+15,-8,0,-4,3,1,-3,-6,-8
1.56941E+15,9,0,2,-4,-11,-2,4,14
1.56941E+15,-11,-11,-9,-11,-10,-10,-7,-10
1.56941E+15,-7,-5,-4,6,-5,-2,-1,0
1.56941E+15,20,56,8,6,10,8,7,0
1.56941E+15,-3,-13,39,25,13,-2,-6,-24
1.56941E+15,-12,-26,-1,-1,-1,0,-3,-12
1.56941E+15,-1,-9,-26,-14,-26,-13,-5,-6
1.56941E+15,-3,-10,-2,-3,3,1,2,-4
1.56941E+15,19,25,-4,-11,-5,0,-1,4
1.56941E+15,-15,-12,7,-5,1,2,-3,-1
1.56941E+15,-14,-8,-36,-7,5,2,-2,3
1.56941E+15,23,17,-3,9,-1,0,5,17
1.56941E+15,-2,14,31,2,3,1,5,5
1.56941E+15,12,-3,-12,13,8,3,-2,-1
1.56941E+15,8,-3,-2,-6,0,-3,-1,20
1.56941E+15,-17,-17,-31,-14,-3,-2,-3,16
1.56941E+15,0,15,-13,-1,5,2,3,19
1.56941E+15,5,-15,16,10,-4,1,4,0
1.56941E+15,10,23,45,19,5,0,2,24
1.56941E+15,4,-2,5,5,4,1,2,46
1.56941E+15,1,0,-15,-25,-16,-7,-4,-3
1.56941E+15,-24,-26,-28,-3,-4,-3,-4,-25
1.56941E+15,20,8,-12,-13,-21,-2,-4,-9
1.56941E+15,-24,-39,18,2,6,-2,-9,-75
1.56941E+15,-3,6,8,-9,-6,-9,-11,-5
1.56941E+15,5,32,15,16,30,-1,-5,-21
1.56941E+15,6,-15,-18,-3,4,1,3,73
1.56941E+15,24,37,25,8,3,8,16,112
1.56941E+15,-26,-21,-11,-3,7,0,-10,112
1.56941E+15,3,1,-11,-26,-24,-5,-7,-52
1.56941E+15,19,11,14,-5,-3,-1,5,-95
1.56941E+15,-34,-51,-50,-5,-2,-6,-8,-128
1.56941E+15,-3,0,6,15,4,5,9,-74
1.56941E+15,-1,21,30,11,6,4,6,5
1.56941E+15,-3,14,24,-3,4,4,-3,10
1.56941E+15,9,18,8,-5,-23,-5,0,17
1.56941E+15,-14,-20,-31,9,17,4,0,-3
1.56941E+15,-15,-5,-8,-17,-4,-4,-5,15
1.56941E+15,-3,12,-2,-4,-8,2,2,25
1.56941E+15,-10,-11,25,9,-1,-4,-9,24
1.56941E+15,0,0,-6,2,-3,0,-9,-19
1.56941E+15,5,5,-12,-2,1,7,5,27
1.56941E+15,-19,-13,3,-2,2,-1,-4,32
1.56941E+15,28,-1,-4,-6,-11,2,2,34
1.56941E+15,23,0,-5,-6,-10,-5,-14,-38
1.56941E+15,0,22,7,1,6,3,-2,-3
1.56941E+15,3,-22,-5,6,2,1,7,18
1.56941E+15,-6,11,19,7,13,2,-5,28
1.56941E+15,-2,-26,-5,-2,-2,1,13,35
1.56941E+15,2,2,-12,-3,-8,-5,2,-28
1.56941E+15,1,2,10,-1,-8,-1,6,-1
1.56941E+15,-4,3,2,9,19,4,8,-74
1.56941E+15,19,4,-11,1,5,3,19,14
1.56941E+15,3,6,2,-4,-7,-4,5,-21
1.56941E+15,-24,-14,-3,1,0,0,5,11
1.56941E+15,3,-10,-1,-7,-5,1,9,20
1.56941E+15,-8,-3,-15,-3,-9,-4,-12,-36
1.56941E+15,6,-7,5,6,1,-3,-3,14
1.56941E+15,19,13,0,0,16,9,2,16
1.56941E+15,-17,-7,0,23,37,8,2,7
1.56941E+15,25,36,15,5,4,-2,-13,33
1.56941E+15,-11,-16,0,-3,-8,-1,-2,-11
1.56941E+15,-14,-20,9,4,-7,-2,-5,-18
1.56941E+15,1,4,-7,-9,-16,-7,-13,9
1.56941E+15,0,-16,-13,-6,-4,-2,1,-1
1.56941E+15,7,4,0,-1,-1,2,-2,-10
1.56941E+15,4,11,2,1,-1,-6,-12,-2
1.56941E+15,-3,-12,-7,-15,-24,-4,-1,12
1.56941E+15,3,13,3,8,11,0,5,6
1.56941E+15,-9,-8,-6,7,14,-1,-3,-9
1.56941E+15,-5,2,-4,-2,0,0,-1,1
1.56941E+15,10,-6,-15,-18,-17,-4,-1,38
1.56941E+15,-30,-4,16,2,-7,-1,4,35
1.56941E+15,6,5,-6,-3,-3,-1,7,-35
1.56941E+15,-11,-9,-8,1,3,-3,2,-11
1.56941E+15,-24,17,-9,-4,1,0,1,-111
1.56941E+15,72,23,37,9,-1,2,3,-99
1.56941E+15,-1,36,9,-1,3,0,-6,-33
1.56941E+15,-20,-37,0,1,-5,-8,-12,-59
1.56941E+15,-2,-11,-14,-5,1,1,-6,30
1.56941E+15,-32,-16,-12,-1,2,3,12,53
1.56941E+15,13,-2,-2,-11,-14,-1,6,-35
1.56941E+15,1,10,-1,8,16,4,8,37
1.56941E+15,13,14,13,6,-2,-4,4,40
1.56941E+15,-4,-15,-10,-11,-13,-4,5,19
1.56941E+15,-3,-1,11,4,1,2,-1,-6
1.56941E+15,0,5,-9,-5,-7,-5,-7,28
1.56941E+15,-11,-9,9,10,18,2,0,-10
1.56941E+15,22,13,-14,-14,-19,-2,14,-9
1.56941E+15,-12,-14,-4,-2,-6,-6,-20,2
1.56941E+15,2,8,3,6,14,4,2,25
1.56941E+15,-5,9,7,0,0,-2,-3,18
1.56941E+15,-14,-19,-19,-9,-11,-4,7,15
1.56941E+15,0,0,5,3,6,3,7,6
1.56941E+15,-6,8,5,6,6,2,-9,-14
1.56941E+15,14,-6,-11,-7,-12,-3,-10,19
1.56941E+15,-5,9,11,1,3,2,-4,-31
1.56941E+15,1,-13,-9,4,8,1,7,-9
1.56941E+15,-2,7,1,-7,-1,-2,10,8
1.56941E+15,-19,-11,0,-1,-4,2,6,-14
1.56941E+15,3,-12,-1,-2,-2,-1,23,-4
1.56941E+15,-4,7,-6,5,8,5,8,-12
1.56941E+15,8,16,14,13,5,-3,-11,-12
1.56941E+15,-7,0,-8,-14,-6,-4,-20,2
1.56941E+15,-4,-6,-3,6,5,4,-25,-11
1.56941E+15,-22,-6,4,-8,-11,-3,-24,-16
1.56941E+15,17,-4,-18,-13,-7,1,1,37
1.56941E+15,12,9,8,6,-3,-6,5,31
1.56941E+15,6,4,-2,0,2,-2,2,-25
1.56941E+15,-11,-7,-3,-6,-7,-3,4,12
1.56941E+15,-11,-1,-5,-8,-7,3,0,16
1.56941E+15,-13,-15,-6,2,-5,-4,-9,12
1.56941E+15,-9,-7,-4,-7,5,-3,-3,0
1.56941E+15,-14,-10,-1,14,4,1,-22,-2
1.56941E+15,5,3,2,3,-2,-4,-10,-5
1.56941E+15,10,3,2,-8,2,4,10,10
1.56941E+15,6,6,-2,8,6,1,2,-32
1.56941E+15,-5,-1,-2,-2,-4,-4,-3,1
1.56941E+15,-10,-5,-4,-2,-5,-2,4,2
1.56941E+15,-3,-4,-6,-10,-8,-3,6,18
1.56941E+15,10,3,-1,8,6,0,0,-14
1.56941E+15,-8,-1,-6,-5,-4,-1,-12,1
1.56941E+15,10,-6,-5,1,-1,-2,-3,13
1.56941E+15,4,8,18,10,6,3,0,25
1.56941E+15,-10,-8,-8,-9,-5,1,6,17
1.56941E+15,13,5,-8,-1,0,-6,-10,6
1.56941E+15,-11,-5,8,1,0,1,0,3
1.56941E+15,-2,-10,0,2,-1,3,6,1
1.56941E+15,5,0,0,-1,-2,-2,-1,-29
1.56941E+15,5,9,3,-9,-6,3,4,19
1.56941E+15,-15,-3,-9,1,2,-1,-3,-13
1.56941E+15,6,-4,-7,-3,-3,-3,-1,5
1.56941E+15,2,-3,-4,-11,-14,-3,4,5
1.56941E+15,-3,-2,1,11,16,1,-4,2
1.56941E+15,-1,6,4,-7,-10,-5,4,-11
1.56941E+15,3,7,5,5,3,3,1,21
1.56941E+15,1,0,-3,-4,-2,-3,-5,-5
1.56941E+15,4,9,4,-1,-5,-3,-3,9
1.56941E+15,2,-11,-1,-14,-10,-1,-1,-19
1.56941E+15,-14,-6,1,5,2,0,4,12
1.56941E+15,14,5,1,4,3,0,0,-7
1.56941E+15,0,1,4,-5,-4,1,0,30
1.56941E+15,4,6,2,6,5,4,1,8
1.56941E+15,4,1,-12,-6,-3,-4,-11,-14
1.56941E+15,1,-6,-17,-4,-1,0,22,29
1.56941E+15,-5,-1,17,6,4,1,-13,10
1.56941E+15,-10,11,35,15,5,4,4,6
1.56941E+15,-11,-13,-13,-7,0,-2,-3,24
1.56941E+15,-11,10,11,-1,-2,0,-5,-10
1.56941E+15,26,-2,-14,-3,-2,-2,-2,11
1.56941E+15,-19,-4,-6,-1,1,1,10,6
1.56941E+15,13,1,6,1,3,-3,-40,1
1.56941E+15,4,2,-4,2,3,-1,-4,-4
1.56941E+15,-6,-5,-2,-2,-4,-1,0,20
1.56941E+15,24,14,-2,-2,0,-1,-7,-10
1.56941E+15,1,9,5,6,3,3,12,3
1.56941E+15,14,1,-4,-4,-2,-3,2,30
1.56941E+15,-1,-12,-4,-5,-4,-2,-6,26
1.56941E+15,-9,-10,8,3,2,0,4,3
1.56941E+15,26,18,2,-2,-1,-3,-3,-6
1.56941E+15,-30,-22,-2,1,0,-2,-10,-42
1.56941E+15,8,28,-2,-2,-2,1,10,13
1.56941E+15,-6,-9,0,0,2,1,-2,-5
1.56941E+15,-9,8,2,-3,-4,1,12,7
1.56941E+15,9,-7,-1,3,1,-1,-10,-35
1.56941E+15,15,0,-12,-7,-6,-3,11,10
1.56941E+15,-3,-3,-10,0,4,-1,-11,-2
1.56941E+15,-10,1,4,-1,-5,3,34,19
1.56941E+15,-26,-2,0,2,3,0,-9,-17
1.56941E+15,7,-20,4,1,0,-9,-36,-32
1.56941E+15,27,14,-3,-3,0,-3,-5,1
1.56941E+15,3,-11,-4,-2,-1,0,7,13
1.56941E+15,-4,12,3,-1,-9,2,9,0
1.56941E+15,-13,-6,2,2,5,-1,10,15
1.56941E+15,11,2,-4,-3,0,2,2,2
1.56941E+15,103,28,6,2,3,1,3,31
1.56941E+15,-122,-43,-19,-14,-14,-9,-1,-10
1.56941E+15,-58,-37,-8,-2,-4,-5,-13,-35
1.56941E+15,72,19,-14,-8,-5,-3,9,45
1.56941E+15,76,52,7,3,-2,-3,3,53
1.56941E+15,-72,-44,4,-2,5,-4,-17,-33
1.56941E+15,18,3,1,-5,-13,2,18,27
1.56941E+15,-32,-13,-5,-1,-3,-2,-6,-7
1.56941E+15,0,7,-4,-1,0,2,-14,6
1.56941E+15,72,34,16,12,11,5,1,9
1.56941E+15,-38,-10,-3,-11,-16,-5,-9,-37
1.56941E+15,13,-3,-4,5,13,-3,-6,-41
1.56941E+15,-43,-33,-5,1,1,1,5,-6
1.56941E+15,-4,5,3,7,2,-2,-8,-40
1.56941E+15,-7,1,-7,4,11,4,15,34
1.56941E+15,-39,-25,-5,-13,-21,-4,-6,-53
1.56941E+15,0,-13,-11,-16,-17,-8,-6,14
1.56941E+15,59,25,7,7,13,3,-12,4
1.56941E+15,13,6,1,3,-1,3,12,-1
1.56941E+15,-39,-14,6,0,-3,3,23,53
1.56941E+15,-25,-22,-3,0,2,-5,-17,-44
1.56941E+15,22,-4,-19,-15,-14,-3,5,20
1.56941E+15,32,25,19,14,11,-1,-18,-24
1.56941E+15,5,6,1,1,0,2,6,15
1.56941E+15,6,-2,-1,3,3,4,14,26
1.56941E+15,51,-7,2,-4,1,-1,-12,-14
1.56941E+15,37,10,-6,-4,-4,-3,8,6
1.56941E+15,-37,0,7,11,15,2,-10,-46
1.56941E+15,-5,11,-4,-6,4,3,5,31
1.56941E+15,30,15,5,7,1,5,-4,-8
1.56941E+15,-45,-7,1,2,4,0,8,-1
1.56941E+15,-9,-11,3,7,1,3,-1,-31
1.56941E+15,-45,2,1,5,8,0,-3,-9
1.56941E+15,20,-6,-12,-8,-9,-3,0,-6
1.56941E+15,21,-3,0,0,-2,2,5,31
1.56941E+15,-23,-3,-4,-6,-9,-3,3,30
1.56941E+15,24,-16,-15,-8,-1,-3,-15,-25
1.56941E+15,-62,1,8,5,1,5,3,-8
1.56941E+15,17,4,1,3,0,1,-4,-31
1.56941E+15,39,19,-5,-3,-2,-3,0,19
1.56941E+15,5,-2,-4,-9,-16,-6,5,27
1.56941E+15,-48,-9,8,8,13,-2,10,-10
1.56941E+15,-15,-2,4,3,2,5,9,15
1.56941E+15,48,23,4,10,9,5,8,37
1.56941E+15,14,6,8,3,-1,1,-5,23
1.56941E+15,-42,-36,-21,-17,-11,-10,-5,1
1.56941E+15,-25,-12,0,-2,-9,0,7,16
1.56941E+15,17,-4,-8,-6,-14,-3,2,-3
1.56941E+15,-40,-22,7,14,22,5,26,6
1.56941E+15,21,20,14,7,2,4,-8,-20
1.56941E+15,-38,-1,-16,-12,-4,-4,-3,5
1.56941E+15,8,-3,-7,-15,-26,-5,-10,3
1.56941E+15,-4,7,7,16,32,6,6,17
1.56941E+15,-6,-5,-5,-2,-7,-3,10,-17
1.56941E+15,35,7,6,5,8,0,-17,16
1.56941E+15,-13,3,5,2,4,-1,0,-12
1.56941E+15,1,-11,-9,-13,-19,-4,-1,-1
1.56941E+15,0,0,-2,-2,4,-3,-10,-36
1.56941E+15,0,4,0,-3,-8,3,11,67
1.56941E+15,-12,2,3,6,12,-6,-25,-104
1.56941E+15,-11,-12,1,-6,-12,1,2,28
1.56941E+15,18,28,-1,10,17,3,3,16
1.56941E+15,47,-6,16,2,-13,-2,22,5
1.56941E+15,-70,-19,1,15,31,0,-15,22
1.56941E+15,16,9,-3,-4,6,1,-3,15
1.56941E+15,22,4,-6,-9,-17,-2,-4,-15
1.56941E+15,-5,6,-3,3,19,2,7,42
1.56941E+15,0,3,0,-3,-6,1,-4,-54
1.56941E+15,1,2,3,-1,-12,-6,-14,5
1.56941E+15,6,-11,-3,-4,-11,0,-2,5
1.56941E+15,18,25,0,0,-1,-2,-8,20
1.56941E+15,14,-3,-8,-12,-21,-5,7,36
1.56941E+15,-23,-9,-3,3,4,-4,3,3
1.56941E+15,1,3,7,3,-1,4,-3,-24
1.56941E+15,-4,-2,3,4,14,0,-5,10
1.56941E+15,7,-1,-1,-5,-6,-3,-2,30
1.56941E+15,-27,-19,-15,-16,-16,-2,7,22
1.56941E+15,-9,9,10,12,-7,-2,7,3
1.56941E+15,-40,-31,-17,-9,15,-5,-13,-26
1.56941E+15,7,-3,-2,0,1,1,5,56
1.56941E+15,1,14,7,0,-21,-3,-7,-10
1.56941E+15,9,-6,-8,6,41,5,6,3
1.56941E+15,12,6,-3,-7,-20,-3,-13,10
1.56941E+15,8,1,-1,-4,8,-2,1,1
1.56941E+15,24,3,0,-8,-23,-2,-1,14
1.56941E+15,-16,-8,-4,-2,-2,-6,6,-15
1.56941E+15,-5,2,5,2,-3,1,5,7
1.56941E+15,26,4,-2,-6,-2,1,4,-4
1.56941E+15,3,4,2,10,15,4,0,15
1.56941E+15,-35,-5,1,-4,-6,-3,7,0
1.56941E+15,94,4,-7,-4,-2,0,8,35
1.56941E+15,-62,-19,-3,0,-5,-3,1,-24
1.56941E+15,46,7,-1,-4,-1,1,3,2
1.56941E+15,26,13,-4,-2,7,0,14,-4
1.56941E+15,-28,-11,-1,0,1,0,4,29
1.56941E+15,25,23,-1,4,5,8,7,50
1.56941E+15,-7,-18,9,4,-2,-1,-8,2
1.56941E+15,11,6,-1,-6,-8,-2,-8,13
1.56941E+15,-13,0,6,2,-8,1,0,14
1.56941E+15,-3,-4,-8,-2,-3,-4,3,-13
1.56941E+15,-9,-3,-4,8,19,2,6,7
1.56941E+15,-10,-3,3,-6,-16,-5,-14,-11
1.56941E+15,-31,-7,4,5,3,3,2,-2
1.56941E+15,0,-4,-1,-3,-2,-3,-8,-25
1.56941E+15,-27,0,-4,4,8,-5,0,6
1.56941E+15,-8,-2,7,-4,-17,-8,-6,-8
1.56941E+15,2,3,0,1,-4,5,0,37
1.56941E+15,12,-3,8,4,1,7,15,46
1.56941E+15,22,6,-14,-16,-24,-6,-7,9
1.56941E+15,-2,3,-4,2,17,0,13,9
1.56941E+15,-18,-4,0,0,4,-4,-6,9
1.56941E+15,4,-2,10,7,0,3,4,3
1.56941E+15,20,21,-6,-6,-1,-1,0,-4
1.56941E+15,0,-6,-5,-3,-5,3,-7,-8
1.56941E+15,18,11,0,1,0,-1,0,5
1.56941E+15,-8,-13,6,8,9,-2,-17,-22
1.56941E+15,-9,-12,-2,-4,-8,1,7,-9
1.56941E+15,-1,0,1,6,12,-5,-16,-5
1.56941E+15,-22,2,1,-2,-13,-2,13,36
1.56941E+15,24,9,5,5,16,6,-18,16
1.56941E+15,2,-14,0,-3,0,0,-2,3
1.56941E+15,6,7,-2,0,-5,1,-2,-10
1.56941E+15,-15,-3,-5,-4,1,0,19,21
1.56941E+15,-6,-6,-8,-7,-17,-7,-3,-6
1.56941E+15,77,59,14,10,5,3,12,7
1.56941E+15,-13,-35,-5,-2,7,-1,-10,20
1.56941E+15,24,10,-3,-1,-2,-4,-6,27
1.56941E+15,-18,-13,-8,-4,-5,-2,14,4
1.56941E+15,26,18,11,6,-1,5,1,9
1.56941E+15,0,7,1,0,-9,0,2,-13
1.56941E+15,-20,-6,3,0,8,-4,-12,-24
1.56941E+15,14,13,-4,-4,-4,-1,0,16
1.56941E+15,-26,-20,-2,-1,-2,-1,2,0
1.56941E+15,-11,-9,-1,0,11,0,0,-3
1.56941E+15,8,-3,-6,-1,-9,2,2,52
1.56941E+15,3,2,1,2,17,-2,-4,-8
1.56941E+15,-44,-23,-9,-5,-11,-1,11,-1
1.56941E+15,8,8,10,-1,4,0,-23,7
1.56941E+15,12,3,3,5,3,2,-3,32
1.56941E+15,1,-3,-5,-8,-16,-4,-2,0
1.56941E+15,0,-6,1,2,4,1,6,9
1.56941E+15,13,9,-3,1,0,2,3,-1
1.56941E+15,-5,-7,-1,4,1,-1,-6,-4
1.56941E+15,14,8,2,-3,-3,-3,-3,-1
1.56941E+15,5,-3,1,2,3,2,0,12
1.56941E+15,-30,-12,3,3,-2,0,-7,6
1.56941E+15,40,20,3,-2,0,-3,-3,21
1.56941E+15,-14,5,-15,-12,-11,-4,-1,-2
1.56941E+15,-18,-16,-2,-3,5,4,9,2
1.56941E+15,10,11,6,2,-2,-1,4,1
1.56941E+15,-7,-5,4,3,3,4,-12,4
1.56941E+15,4,-4,0,2,1,1,8,1
1.56941E+15,-8,-2,1,-1,1,-3,-6,0
1.56941E+15,-3,0,-5,-4,-9,-2,-3,2
1.56941E+15,-4,-3,-3,-3,4,-5,-5,-2
1.56941E+15,21,0,0,4,7,2,12,82
1.56941E+15,-6,-8,-6,-5,-4,-5,-14,-38
1.56941E+15,-3,-3,-2,-4,-8,0,2,4
1.56941E+15,-3,13,-1,-3,-5,-2,0,6
1.56941E+15,15,0,-1,-1,-1,1,-1,28
1.56941E+15,-12,-7,2,5,9,3,-6,7
1.56941E+15,-3,-8,-17,-10,-7,-7,-6,-2
1.56941E+15,1,9,17,12,5,1,4,15
1.56941E+15,-1,2,7,2,-5,0,-16,-41
1.56941E+15,-1,1,-5,-4,8,-1,-2,-9
1.56941E+15,-1,13,5,-5,-14,-9,-10,-8
1.56941E+15,-16,-27,-11,-7,2,2,10,-20
1.56941E+15,1,1,3,5,1,0,-6,-11
1.56941E+15,3,14,-3,-3,-3,-3,-1,3
1.56941E+15,5,-7,0,-1,4,7,5,11
1.56941E+15,-10,-12,-9,-7,-5,-2,7,8
1.56941E+15,-1,-1,8,2,-3,-3,-12,-35
1.56941E+15,-5,2,-4,-1,2,-2,-11,-3
1.56941E+15,4,5,1,2,3,5,4,7
1.56941E+15,-9,-4,-7,-3,-3,-4,3,13
1.56941E+15,-4,1,0,1,6,6,17,-13
1.56941E+15,-10,-13,-7,-9,-7,-10,-2,14
1.56941E+15,7,1,1,2,4,3,-4,-2
1.56941E+15,-6,-7,-5,-1,1,1,0,-10
1.56941E+15,-6,-2,-7,-3,-1,-3,-2,13
1.56941E+15,-3,0,7,4,1,2,3,-42
1.56941E+15,1,0,-1,-2,-7,2,6,2
1.56941E+15,9,6,3,5,2,0,-1,-6
1.56941E+15,-29,-9,-5,-4,-1,-7,-11,-12
1.56941E+15,11,5,6,2,-9,3,1,-16
1.56941E+15,13,3,1,8,24,0,-8,6
1.56941E+15,8,2,5,1,-4,0,-6,-14
1.56941E+15,2,-2,-5,-5,7,7,11,13
1.56941E+15,7,2,8,15,6,4,-4,-20
1.56941E+15,-11,3,4,0,-17,-1,-2,2
1.56941E+15,23,-1,-5,-6,5,11,14,26
1.56941E+15,14,3,1,2,-4,-7,8,1
1.56941E+15,-13,-4,-4,-1,-2,7,2,-36
1.56941E+15,10,3,-5,-4,-3,-4,13,35
1.56941E+15,10,-5,-10,-11,-5,-1,-10,-21
1.56941E+15,-6,3,5,6,4,8,7,11
1.56941E+15,-27,2,-3,-5,1,-5,-2,-36
1.56941E+15,-8,3,4,1,-5,4,-2,17
1.56941E+15,-34,-9,-10,-9,5,-6,-3,-57
1.56941E+15,28,2,1,4,-2,-1,-1,-6
1.56941E+15,-39,-5,-3,-5,-3,-5,0,-55
1.56941E+15,-1,6,4,4,3,-1,-5,-6
1.56941E+15,7,0,-9,-11,-11,-4,23,-26
1.56941E+15,27,3,0,0,-1,-3,-12,-16
1.56941E+15,-34,-17,3,0,-3,1,-4,0
1.56941E+15,5,-11,-8,-4,1,-4,-3,37
1.56941E+15,15,13,3,5,-1,-1,2,9
1.56941E+15,-45,-18,-12,-14,-11,-6,6,-26
1.56941E+15,1,-4,6,7,12,1,4,-2
1.56941E+15,17,21,3,2,-3,-4,-12,46
1.56941E+15,2,0,9,7,3,0,-12,-31
1.56941E+15,12,5,4,1,1,-3,14,41
1.56941E+15,-23,-30,-29,-28,-6,2,-9,-12
1.56941E+15,26,18,12,16,14,4,6,16
1.56941E+15,-49,-11,13,13,5,-3,-11,-15
1.56941E+15,15,-1,-1,0,-2,19,8,-4
1.56941E+15,6,10,0,-5,-8,-23,12,-32
1.56941E+15,31,14,0,-4,2,14,3,19
1.56941E+15,-42,-15,-3,-2,0,-3,-4,4
1.56941E+15,18,-7,-7,-3,0,1,-15,-18
1.56941E+15,-2,11,9,10,5,-1,-2,-4
1.56941E+15,17,-12,-11,-9,-5,-7,-16,7
1.56941E+15,31,11,-8,-10,-15,-17,6,35
1.56941E+15,-38,3,11,6,3,-4,-5,-8
1.56941E+15,25,-15,2,-2,0,7,19,10
1.56941E+15,60,7,0,-2,6,19,-4,-2
1.56941E+15,-73,-39,-9,-1,3,-12,6,-24
1.56941E+15,-13,-7,-8,-5,-1,-4,-4,-14
1.56941E+15,45,32,6,6,0,-3,-26,1
1.56941E+15,-46,-11,10,5,-1,4,-16,34
1.56941E+15,90,21,3,1,0,15,-1,90
1.56941E+15,-14,7,-7,-4,-1,-5,-13,-28
1.56941E+15,-21,-8,1,-1,1,-2,-12,-33
1.56941E+15,-12,-4,-2,0,-6,-20,0,11
1.56941E+15,14,7,3,4,-2,2,8,-8
1.56941E+15,18,10,5,4,3,4,6,17
1.56941E+15,-10,4,0,-1,-8,-17,-13,-25
1.56941E+15,-41,-22,-7,-6,-2,-6,5,-8
1.56941E+15,11,7,0,-1,1,-3,5,-37
1.56941E+15,2,-6,-2,0,1,5,0,42
1.56941E+15,-18,-5,-4,-1,-6,-22,-8,-2
1.56941E+15,-12,-5,-7,-7,-10,-8,-2,28
1.56941E+15,0,4,3,6,3,3,-8,9
1.56941E+15,9,-12,-9,-11,-13,-10,-10,82
1.56941E+15,-31,2,-5,-1,8,8,-2,11
1.56941E+15,24,-9,2,4,3,2,10,42
1.56941E+15,38,-1,-1,-2,-3,4,-5,-88
1.56941E+15,-32,-16,-2,-3,-5,-2,14,-93
1.56941E+15,72,14,6,6,3,1,0,-100
1.56941E+15,82,2,-3,-2,-4,-11,29,-56
1.56941E+15,82,-3,-4,-4,0,7,42,-5
1.56941E+15,43,8,2,0,1,-2,9,-24
1.56941E+15,-52,0,1,1,2,9,-28,88
1.56941E+15,-125,5,5,0,2,0,-47,68
1.56941E+15,-106,11,3,0,-1,-2,-44,91
1.56941E+15,-111,-4,-2,-1,-2,0,-25,-6
1.56941E+15,-66,11,-1,0,-3,2,2,-2
1.56941E+15,-99,-16,-1,0,-2,11,16,-40
1.56941E+15,-31,-2,0,-4,1,-4,30,-35
1.56941E+15,-8,-20,-2,-2,-1,6,20,-6
1.56941E+15,-27,-22,0,0,3,5,15,-110
1.56941E+15,-16,-5,1,-1,0,-3,7,-60
1.56941E+15,-33,-20,-1,1,0,2,-9,30
1.56941E+15,38,9,2,5,3,-3,-2,8
1.56941E+15,83,13,-7,-5,-5,-3,-14,-21
1.56941E+15,124,27,1,-2,-3,-1,4,72
1.56941E+15,95,12,-1,-2,-4,-1,-6,64
1.56941E+15,66,9,-1,-2,5,-8,-8,75
1.56941E+15,55,-3,1,-1,-1,6,-4,84
1.56941E+15,-3,-5,-1,-1,3,2,0,20
1.56941E+15,2,6,-2,-2,-4,8,-3,19
1.56941E+15,-10,-10,-4,-2,-9,-26,-2,34
1.56941E+15,-5,4,3,2,1,-5,-2,-26
1.56941E+15,-11,-6,-3,-1,2,2,7,-44
1.56941E+15,-13,-4,0,1,0,-3,-7,-44
1.56941E+15,-10,4,1,1,4,10,6,-61
1.56941E+15,-4,-3,-2,-2,0,15,20,-22
1.56941E+15,3,7,3,3,-2,-20,-19,93
1.56941E+15,12,9,1,0,1,0,-6,-108
1.56941E+15,-43,-11,-1,-2,0,2,-7,-45
1.56941E+15,-12,-4,-1,0,-1,-4,-8,-5
1.56941E+15,-10,-6,-2,-1,0,12,0,4
1.56941E+15,-17,-9,-4,-1,1,-4,-1,30
1.56941E+15,30,13,3,-1,-1,-3,-9,34
1.56941E+15,-3,3,2,1,1,4,-7,38
1.56941E+15,-11,-6,-3,-1,-1,1,0,7
1.56941E+15,3,3,-1,1,-2,-4,0,18
1.56941E+15,17,3,2,1,-1,3,5,30
1.56941E+15,-10,-10,-2,-1,-4,2,4,24
1.56941E+15,-5,-2,0,1,3,-1,6,-12
1.56941E+15,-4,0,0,-2,-3,-8,-13,-10
1.56941E+15,-41,-13,-5,-4,2,10,-5,-28
1.56941E+15,38,19,-1,4,13,-5,20,-16
1.56941E+15,-63,-27,-2,-1,-12,-3,-4,-27
1.56941E+15,-6,-3,1,1,3,-2,-1,21
1.56941E+15,11,12,1,0,-3,5,3,6
1.56941E+15,7,-3,-2,0,-2,0,-3,1
1.56941E+15,15,10,0,-2,2,-2,6,-21
1.56941E+15,-10,-3,-3,-3,-1,3,4,-16
1.56941E+15,0,0,1,1,-2,0,5,19
1.56941E+15,-19,-8,-1,-1,-1,-2,-2,-15
1.56941E+15,16,1,-1,0,1,1,4,14
1.56941E+15,-7,1,2,0,-1,2,12,0
1.56941E+15,17,6,-1,1,2,-4,-7,19
1.56941E+15,-9,-6,-1,-1,-3,-1,1,-4
1.56941E+15,2,0,-1,-1,-2,1,2,14
1.56941E+15,6,-1,0,-1,1,-2,0,7
1.56941E+15,-3,-2,-1,-1,-1,-5,1,-5
1.56941E+15,-1,-1,-1,-3,-1,6,1,-9
1.56941E+15,-7,-3,-2,-1,-2,0,-1,-14
1.56941E+15,15,5,1,1,2,0,-11,3
1.56941E+15,9,0,1,2,3,4,-4,24
1.56941E+15,-5,-2,-1,-1,-4,5,2,1
1.56941E+15,3,4,0,0,-1,1,-6,-10
1.56941E+15,-1,2,0,1,-1,-4,-16,-8
1.56941E+15,0,1,-1,-2,-1,-2,0,-6
1.56941E+15,-1,-5,-2,0,-1,-4,-1,-3
1.56941E+15,4,0,-1,-1,1,5,0,7
1.56941E+15,-16,-5,-2,-1,-2,1,7,-17
1.56941E+15,10,3,0,1,3,4,2,7
1.56941E+15,-11,-1,0,-1,-2,1,-3,-11
1.56941E+15,14,0,-1,-1,1,-1,5,5
1.56941E+15,1,0,-1,-1,-1,-2,-1,-1
1.56941E+15,-1,1,0,1,0,-3,-1,-6
1.56941E+15,-4,-1,-1,1,1,-7,-6,-1
1.56941E+15,4,1,1,-1,-1,-3,-3,0
1.56941E+15,-6,-2,-2,-3,0,0,4,4
1.56941E+15,4,0,-1,-1,-3,1,0,6
1.56941E+15,-4,-5,-2,-3,-2,-3,-2,-15
1.56941E+15,3,0,1,-2,0,2,2,9
1.56941E+15,-3,-1,-1,1,0,3,0,-5
1.56941E+15,-5,-1,1,-1,-3,-5,-1,-3
1.56941E+15,-2,1,1,1,-1,-4,-5,7
1.56941E+15,4,1,0,2,2,1,1,4
1.56941E+15,-6,-3,-1,-1,-2,-1,4,2
1.56941E+15,-8,-2,0,-2,-2,3,15,-4
1.56941E+15,9,4,1,0,0,-1,-7,21
1.56941E+15,1,2,-1,1,-1,-8,0,-4
1.56941E+15,5,-1,-1,1,-1,1,3,13
1.56941E+15,-3,-2,-2,-1,-3,-2,0,5
1.56941E+15,-2,-1,0,-1,-2,-5,0,-7
1.56941E+15,-2,-1,-2,-2,-2,22,12,-4
1.56941E+15,2,0,1,0,1,-5,-6,1
1.56941E+15,2,0,-2,-1,1,4,-3,2
1.56941E+15,-3,-4,-2,1,-1,-9,-3,0
1.56941E+15,3,0,0,-1,-3,0,-3,4
1.56941E+15,0,1,1,1,-2,0,1,-4
1.56941E+15,-4,-1,-1,-2,-1,-2,-4,5
1.56941E+15,-6,-2,-2,-2,1,6,1,-10
1.56941E+15,-1,-2,-1,-1,-1,-6,-1,-2
1.56941E+15,2,0,0,-2,-2,1,1,-2
1.56941E+15,-1,1,0,-1,-1,-5,1,5
1.56941E+15,-1,-2,-2,-3,-2,1,1,10
1.56941E+15,0,0,0,-1,1,-3,1,9
1.56941E+15,1,-1,1,-1,0,-3,-2,2
1.56941E+15,3,-2,-2,0,2,3,0,15
1.56941E+15,0,1,0,0,-1,0,-1,-8
1.56941E+15,-8,-2,-1,-1,-1,-4,-5,10
1.56941E+15,1,-2,-4,-1,0,1,2,9
1.56941E+15,-9,-3,-4,-2,-3,-5,5,14
1.56941E+15,1,-2,0,0,3,10,5,4
1.56941E+15,6,1,1,2,1,-7,-3,12
1.56941E+15,1,-2,-1,-1,-2,1,-4,3
1.56941E+15,1,-1,-1,-1,-3,-3,-3,12
1.56941E+15,-3,0,-2,-1,-1,-1,-3,-9
1.56941E+15,-10,0,0,0,0,3,-1,-2
1.56941E+15,-7,-4,-2,-4,-3,-4,5,6
1.56941E+15,2,3,0,0,0,-5,-4,12
1.56941E+15,-5,-1,-1,0,-1,9,7,-4
1.56941E+15,-1,-2,0,-1,-2,-9,-8,3
1.56941E+15,7,2,1,-2,-1,3,0,3
1.56941E+15,-2,-2,0,0,0,0,-3,6
1.56941E+15,0,-2,-2,-1,-1,-5,-2,3
1.56941E+15,-2,0,-1,-1,2,-1,3,-9
1.56941E+15,5,1,0,0,0,1,-4,-6
1.56941E+15,1,-2,-3,-2,0,0,5,9
1.56941E+15,2,1,0,0,-1,-5,-12,-14
1.56941E+15,5,-2,-1,0,-2,1,0,19
1.56941E+15,0,-1,-1,-1,-1,-1,0,0
1.56941E+15,4,1,2,1,0,0,-1,-2
1.56941E+15,2,1,-2,0,-1,-3,1,3
1.56941E+15,-10,-3,-2,-2,1,-1,-1,-8
1.56941E+15,-2,2,1,1,1,-3,-2,-18
1.56941E+15,-1,-4,-3,-1,0,-2,0,11
1.56941E+15,-3,-4,0,-1,-1,-2,-2,-12
1.56941E+15,1,1,-1,0,-1,-2,-4,4
1.56941E+15,-3,1,0,-1,1,0,3,-1
1.56941E+15,1,3,1,-1,0,-1,-10,-12
1.56941E+15,1,-3,1,-2,0,-1,1,-9
