timestamp,emg1,emg2,emg3,emg4,emg5,emg6,emg7,emg8
1573323749695007,-10,-6,-6,-9,-29,-3,0,6
1573323749695007,-3,-11,-9,1,27,-1,1,-1
1573323749710623,-48,0,0,-8,-37,-7,-5,-6
1573323749710623,14,-15,-3,0,4,3,4,14
1573323749712575,-3,4,0,-8,7,-3,-3,-8
1573323749712575,-37,-3,0,11,9,0,-2,-13
1573323749733078,20,-2,3,-5,-22,0,1,2
1573323749733078,-16,1,1,9,37,-4,-2,11
1573323749735023,37,-4,-3,5,-19,1,-3,-2
1573323749735023,8,11,3,4,11,3,3,5
1573323749747714,-12,-4,-1,-1,5,0,1,5
1573323749747714,31,4,-3,-6,5,2,4,14
1573323749754545,27,0,-7,-1,-9,0,1,10
1573323749754545,-22,10,4,13,-3,-4,-5,-14
1573323749771159,-40,-6,-4,-33,-41,-3,-1,-13
1573323749771159,7,-8,1,2,5,-2,-1,-12
1573323749773089,12,17,11,13,25,3,4,15
1573323749773089,-31,-7,-4,-2,-4,0,-2,-11
1573323749793585,19,2,0,10,13,-1,-2,12
1573323749793585,20,-13,-9,-10,-27,-5,-3,-7
1573323749795539,-64,-18,-7,-9,0,-4,-4,-10
1573323749795539,46,19,5,5,-3,3,9,38
1573323749807250,6,-17,1,2,0,-2,1,8
1573323749807250,8,14,1,-8,-8,-3,-7,-17
1573323749816033,-3,1,-1,11,8,1,0,-4
1573323749816033,7,-7,0,-4,-4,-2,0,1
1573323749830672,22,5,-1,6,19,4,1,-4
1573323749830672,-24,0,1,6,-5,-1,-1,-3
1573323749832624,2,-6,1,-6,9,-2,1,12
1573323749832624,11,-2,-4,-5,-15,0,1,-1
1573323749860948,22,5,1,2,-5,-3,-2,1
1573323749860948,-22,-11,-8,-1,-2,1,0,-2
1573323749862892,-17,7,2,-1,-9,-2,0,-2
1573323749862892,32,3,12,2,10,3,-2,-23
1573323749866821,-11,10,-14,-4,3,-1,-2,-10
1573323749866821,-13,-11,-3,-3,-4,-1,0,6
1573323749876561,-10,-19,2,0,-2,1,1,-13
1573323749876561,30,20,14,12,17,2,-1,-1
1573323749891198,8,-14,-3,6,18,-2,-1,-4
1573323749891198,6,8,-4,-26,-53,-7,-4,5
1573323749892172,11,4,-8,8,16,4,2,5
1573323749892172,-62,-19,-8,-4,-5,-3,-3,3
1573323749913644,-20,13,4,1,-11,0,0,10
1573323749913644,-17,-15,-2,5,11,0,-4,-12
1573323749914620,5,1,-6,-17,-12,0,0,-1
1573323749914620,18,8,9,3,2,-1,2,20
1573323749927307,-2,4,1,0,2,-4,-2,-17
1573323749927307,-1,-2,3,1,2,0,-2,-23
1573323749936091,10,4,-3,11,13,5,0,-13
1573323749936091,13,-4,-10,-3,-2,0,3,-11
1573323749950736,-6,-4,0,-10,-5,-1,0,-17
1573323749950736,2,-1,-1,3,4,1,2,15
1573323749952683,-3,-5,-7,-3,-10,-5,-3,21
1573323749952683,5,-3,-5,-4,-2,-2,-2,19
1573323749973183,-15,-6,5,3,3,0,0,20
1573323749973183,8,1,-10,-6,-10,0,0,-59
1573323749975135,11,24,12,-4,7,-4,-1,-25
1573323749975135,-9,4,-1,-5,-5,-1,-5,-14
1573323749987820,-23,-16,14,6,-3,-2,-12,45
1573323749987820,41,2,1,17,16,5,6,98
1573323749996607,-18,0,-4,-3,-5,-1,0,14
1573323749996607,17,-5,-13,-18,-13,-5,0,1
1573323750011247,32,5,-2,-17,-7,3,7,16
1573323750011247,8,8,11,47,30,8,3,25
1573323750012221,-11,-5,0,0,-3,0,1,22
1573323750012221,18,2,3,9,6,0,0,-2
1573323750033716,-17,-5,-13,-15,-1,-2,-3,-24
1573323750033716,-13,1,-2,-15,-10,-5,-2,14
1573323750034669,20,6,-2,-3,-3,-1,3,8
1573323750034669,-25,-11,-2,2,-1,-3,-4,-20
1573323750047401,1,-7,-17,-8,-13,0,6,29
1573323750047401,-39,-3,11,-5,1,-4,-2,-12
1573323750056152,1,12,9,-2,5,-4,-7,-6
1573323750056152,-4,-15,-5,1,-7,1,-2,-14
1573323750070790,11,-4,2,5,13,0,0,19
1573323750070790,65,5,-2,1,-9,0,-1,5
1573323750072742,-8,1,-12,-16,-12,0,1,-65
1573323750072742,15,8,15,16,9,1,-1,-55
1573323750093236,10,-13,-3,1,2,-2,-1,-9
1573323750093236,-11,-3,-6,-10,0,0,3,49
1573323750095189,-29,-12,4,0,-6,-3,-3,33
1573323750095189,19,12,-3,1,-3,3,3,38
1573323750106901,-5,8,2,-5,-9,-2,-5,24
1573323750106901,11,-1,1,4,7,-3,-9,38
1573323750115690,-25,-6,-6,0,-17,0,-2,-18
1573323750115690,-13,-4,-2,3,9,-3,-2,-24
1573323750131302,-13,-5,-1,3,1,2,3,-45
1573323750131302,35,10,5,-13,-11,0,8,-17
1573323750132278,-79,-35,-14,-6,-4,-2,0,-23
1573323750132278,17,19,16,8,19,0,-7,14
1573323750152541,4,4,0,10,1,-1,0,20
1573323750152541,-7,4,-4,-12,3,-4,-1,3
1573323750161325,49,-3,-2,16,-2,4,3,-3
1573323750161325,-32,-9,-9,-11,-9,-1,0,-7
1573323750167187,-14,6,4,6,3,0,0,-6
1573323750167187,-11,7,-8,-6,-1,0,-2,-1
1573323750175965,36,-16,2,0,5,0,0,-1
1573323750175965,-52,-2,-13,-7,-8,-3,-1,-48
1573323750190614,86,-17,10,8,5,2,-6,-12
1573323750190614,-109,-10,-6,-4,-6,-1,-5,-15
1573323750192560,-2,-3,6,-1,3,-3,-6,35
1573323750192560,-3,-5,-2,1,-4,1,5,36
1573323750214037,28,12,-9,-7,-3,-3,6,23
1573323750214037,22,1,2,0,-3,-1,-1,3
1573323750215009,10,7,-4,1,4,0,0,1
1573323750215009,-9,0,4,-2,-5,-1,2,-19
1573323750226793,-33,7,-4,-4,-4,-2,0,1
1573323750226793,8,-3,4,2,1,2,2,-22
1573323750236481,42,22,3,1,3,-1,-2,-16
1573323750236481,13,-17,-12,-6,-5,0,-4,-20
1573323750251207,-20,12,7,1,0,2,-2,14
1573323750251207,5,8,-2,-1,-5,-1,-2,-13
1573323750253074,23,-25,2,-2,2,0,2,-16
1573323750253074,18,0,0,-1,0,-1,-2,7
1573323750273654,-80,-2,-3,1,0,-3,-4,1
1573323750273654,-21,-16,-4,-3,-3,-2,-4,-6
1573323750275519,-32,10,-3,-4,-3,0,-7,14
1573323750275519,35,14,9,3,-2,0,-18,9
1573323750287319,-28,-14,-2,-1,1,-2,-24,17
1573323750287319,36,7,2,0,-2,-1,-20,39
1573323750296017,20,14,4,0,0,3,-21,24
1573323750296017,-55,-24,-8,3,3,-2,-9,-36
1573323750310655,112,34,10,4,2,1,9,-35
1573323750310655,-88,-34,-9,-6,-3,-4,6,38
1573323750312607,38,6,-5,-3,-1,-1,14,41
1573323750312607,48,13,2,0,-2,2,24,24
1573323750333174,-81,-20,-2,-4,0,-3,4,-7
1573323750333174,3,2,1,10,6,-2,11,-48
1573323750335057,9,11,1,2,0,1,3,44
1573323750335057,13,-8,-5,-7,-6,-2,4,127
1573323750346768,54,1,2,-2,1,-1,8,104
1573323750346768,-50,9,3,-1,0,0,6,99
1573323750356527,-17,-10,-2,-2,0,-1,6,66
1573323750356527,39,21,4,3,-1,3,14,-56
1573323750370190,-102,-37,-1,2,-4,1,6,-39
1573323750370190,107,-2,-6,-4,-5,-4,5,-70
1573323750377023,-25,41,15,6,7,4,0,-85
1573323750377023,-1,-15,-13,-5,-5,-6,-10,-80
1573323750393639,31,-10,-5,3,3,-2,0,-128
1573323750393639,106,-13,0,2,3,3,3,-128
1573323750395568,60,4,5,1,1,1,8,-114
1573323750395568,-42,-17,2,-7,-5,3,8,-32
1573323750407302,60,14,-9,-2,-2,-7,-6,37
1573323750407302,81,-7,-10,-8,-5,-5,-26,78
1573323750421919,2,11,9,4,4,4,10,62
1573323750421919,-40,-14,-10,-14,-19,-9,-15,-51
1573323750438511,120,17,3,21,28,2,4,-117
1573323750438511,33,18,11,3,1,1,4,-128
1573323750440462,-104,-13,-1,1,1,-2,-4,-99
1573323750440462,85,0,-2,-4,1,3,2,-24
1573323750454137,-69,-27,-14,-16,-17,-6,0,-19
1573323750454137,-53,-4,-2,3,0,-10,-7,31
1573323750455107,67,17,1,0,0,6,5,103
1573323750455107,-74,-7,8,8,5,-7,0,124
1573323750467800,-28,27,2,-7,-9,-6,-9,118
1573323750467800,6,37,8,3,2,7,15,107
1573323750476576,-6,-83,-27,-10,-16,-15,-21,-33
1573323750476576,33,8,-1,-1,0,3,3,43
1573323750489316,4,-1,0,2,5,7,2,1
1573323750489316,-69,-15,-1,-4,-1,-2,-3,2
1573323750499027,-1,0,2,0,-4,1,4,37
1573323750499027,-6,-4,4,3,3,-1,10,-1
1573323750513751,-12,-1,3,2,4,-1,-14,-8
1573323750513751,13,14,1,0,2,3,6,-15
1573323750515617,-41,-3,-1,0,1,1,-2,7
1573323750515617,104,38,6,4,8,5,-1,26
1573323750527326,-98,2,2,-9,-17,13,15,0
1573323750527326,1,-31,-12,-5,1,-26,-8,-45
1573323750536110,7,11,-4,2,4,-2,-8,-31
1573323750536110,66,7,7,5,3,1,-9,-2
1573323750550771,-56,-30,-6,-3,-4,7,5,6
1573323750550771,9,12,-5,-5,-5,12,5,27
1573323750557584,66,-18,-1,-4,-4,-11,-2,25
1573323750557584,11,50,12,8,3,4,6,119
1573323750573222,66,2,-1,0,-1,-9,-6,91
1573323750573222,-38,-23,-4,-2,-1,0,-2,10
1573323750575152,-14,11,-4,-7,-30,-7,1,7
1573323750575152,-54,-19,-1,8,15,-2,-4,-20
1573323750586885,20,6,4,6,12,1,-2,-23
1573323750586885,-3,12,1,-1,-4,-2,-5,-2
1573323750596623,-51,-2,-1,-5,4,3,1,-23
1573323750596623,-5,-12,-6,-10,-16,-2,-3,-9
1573323750610363,-27,-7,-1,0,-5,-5,2,7
1573323750610363,74,-14,-2,-2,-4,1,-7,-17
1573323750617196,27,13,1,-1,-1,-2,-4,24
1573323750617196,-59,-21,-5,-1,1,-1,1,7
1573323750633787,-38,23,6,3,5,1,4,43
1573323750633787,83,-3,-5,-5,-7,-3,-6,-10
1573323750634688,-25,-11,-7,-2,4,-1,-3,18
1573323750634688,7,-1,-3,-1,-1,-2,-5,99
1573323750656203,42,14,13,8,4,-1,2,3
1573323750656203,-92,-1,6,1,1,3,3,-58
1573323750658115,-1,8,-5,-3,-1,2,1,-120
1573323750658115,10,-3,-7,-1,2,2,0,-128
1573323750678609,33,4,-3,-7,-10,-6,-3,-57
1573323750678609,-25,3,6,9,6,-2,0,-1
1573323750680557,13,5,0,-2,5,2,3,-94
1573323750680557,-32,-14,-5,-5,-10,-1,-3,-93
1573323750695198,16,0,-3,5,22,2,0,-1
1573323750695198,-16,6,-1,5,7,2,2,37
1573323750696172,-14,-4,1,0,-1,1,1,58
1573323750696172,-5,-5,-1,-1,-3,-2,0,3
1573323750715691,57,13,-2,-6,-7,-3,-4,16
1573323750715691,-55,2,-2,-3,-5,0,-1,38
1573323750717644,24,-7,4,7,4,2,4,44
1573323750717644,-111,-25,-11,-8,-3,-6,-9,-40
1573323750730332,72,-15,-4,0,-3,-2,2,49
1573323750730332,0,15,4,1,1,3,6,62
1573323750740093,98,24,0,-1,-2,-2,-6,41
1573323750740093,-57,-33,-4,-1,0,-3,-5,-18
1573323750753782,15,-4,-2,-2,-4,0,0,-6
1573323750753782,18,-6,0,-3,-2,3,0,16
1573323750754735,-16,-1,3,3,2,-1,0,3
1573323750754735,26,9,2,-2,0,0,1,3
1573323750776210,-26,-1,-4,-1,-3,-2,-3,-14
1573323750776210,-20,-16,8,0,0,1,1,-21
1573323750777182,-2,6,2,1,1,1,0,-5
1573323750777182,20,7,0,-1,1,0,1,-8
1573323750789892,-26,2,-1,-3,-3,-2,-2,22
1573323750789892,6,5,-4,-3,-1,-1,-2,7
1573323750798658,-19,-8,-1,1,3,0,-1,0
1573323750798658,26,8,1,2,0,1,0,2
1573323750821101,-19,-5,-2,-2,-6,-1,-2,-18
1573323750821101,2,-2,-3,-2,3,-1,-1,-13
1573323750823054,-19,-9,-1,-2,-1,0,-1,-2
1573323750823054,12,5,2,0,-1,2,2,0
1573323750835740,4,2,-1,0,-2,-1,1,-5
1573323750835740,-4,2,0,1,-1,-1,-3,98
1573323750837692,-15,-1,-1,0,-2,-1,0,127
1573323750837692,19,6,3,-1,-1,-1,-3,65
1573323750851356,-3,13,0,-1,-1,-1,-7,-86
1573323750851356,-1,3,-7,-4,-4,0,16,-128
1573323750859164,-5,-24,8,3,5,0,2,-128
1573323750859164,12,4,0,1,2,2,0,-92
1573323750873805,-6,-11,-6,-2,-1,0,-8,-125
1573323750873805,-3,10,1,-4,-4,0,19,-128
1573323750874780,1,5,-2,0,-1,-2,-12,-122
1573323750874780,4,-3,-1,0,1,-3,1,-51
1573323750896253,-6,0,0,-1,-2,-6,-25,33
1573323750896253,2,-2,1,3,0,1,-4,93
1573323750897228,-7,-5,-6,-2,-2,1,10,127
1573323750897228,6,3,-1,-2,0,0,3,126
1573323750909917,-5,-2,-3,0,-1,-2,-4,90
1573323750909917,1,-5,2,0,0,0,-27,91
1573323750918700,-2,4,5,1,2,2,1,104
1573323750918700,5,2,-3,0,0,3,30,127
1573323750933339,1,-3,-4,-6,-12,-3,13,80
1573323750933339,-7,-8,-3,-2,0,-5,-3,41
1573323750935292,-5,3,-1,1,3,-2,-19,43
1573323750935292,2,4,4,1,2,0,-9,53
1573323750955790,3,2,4,3,4,3,5,42
1573323750955790,-1,-3,-2,1,-1,3,-1,40
1573323750957740,-2,2,-5,-1,-4,-4,-15,28
1573323750957740,-3,-6,-5,-4,-4,-3,-17,17
1573323750969458,-5,-6,-1,1,1,2,27,33
1573323750969458,1,1,0,2,-2,-3,-17,10
1573323750978243,0,0,-2,-3,0,1,18,8
1573323750978243,-3,-6,-5,-3,-4,-1,-9,1
1573323750993858,1,3,4,1,2,1,2,-13
1573323750993858,0,-1,5,1,1,4,26,0
1573323750994831,-4,-2,-4,0,-3,-5,-21,-10
1573323750994831,2,1,1,2,-2,-1,-2,-22
1573323751016302,2,2,-2,-2,2,-1,-4,-26
1573323751016302,0,-1,-3,0,-5,-2,-10,12
1573323751018255,-5,-1,-2,3,3,-2,12,-18
1573323751018255,1,-1,-1,-2,-2,-1,3,-9
1573323751029970,2,-1,-3,-1,0,-1,-1,-8
1573323751029970,-4,-4,-2,-2,2,0,-1,-20
1573323751038749,-1,1,1,-2,-6,1,14,4
1573323751038749,-1,-3,-4,0,3,1,3,9
1573323751053392,-6,-5,-2,-1,-7,-3,-7,-1
1573323751053392,1,5,5,2,3,-4,-5,-1
1573323751061199,0,5,4,3,2,0,5,-6
1573323751061199,4,2,3,1,2,-1,7,-17
1573323751075836,0,-4,-5,-5,-4,0,4,2
1573323751075836,-7,-6,-5,-7,-7,-2,-5,-65
1573323751077788,-2,-5,-9,-2,0,1,4,-11
1573323751077788,-3,-3,3,2,-2,-1,-2,47
1573323751089500,-4,2,3,1,1,-2,-5,44
1573323751089500,2,1,-1,1,1,-1,1,26
1573323751098283,-1,0,2,3,1,1,-1,-10
1573323751098283,0,-2,-5,-9,-3,-3,-6,-51
1573323751113905,-3,-2,20,4,0,0,-2,-54
1573323751113905,-5,-4,-18,1,-2,-3,-2,-47
1573323751114878,-1,1,-13,1,-2,-1,-2,-11
1573323751114878,1,3,6,5,1,2,-2,15
1573323751136348,3,2,2,37,3,3,2,3
1573323751136348,3,0,11,-30,-1,0,0,3
1573323751137324,-2,-4,-6,-15,-4,-2,2,-4
1573323751137324,4,-1,-2,-1,0,-1,-17,48
1573323751150015,-4,-3,-2,-11,0,-1,1,1
1573323751150015,4,2,1,14,0,2,1,-10
1573323751166605,-8,-7,-2,2,-4,-2,-3,-28
1573323751166605,-3,-1,1,-4,-2,-2,6,-21
1573323751172466,-2,-1,-4,-3,-2,0,-1,-5
1573323751172466,-1,-1,-4,3,-1,-1,-2,12
1573323751179296,0,0,3,-4,1,-2,-5,-10
1573323751179296,3,6,4,5,1,1,-2,-30
1573323751195884,0,1,-3,-8,3,-1,-2,-18
1573323751195884,-1,-1,-3,4,-3,-1,3,4
1573323751197839,-2,-4,1,-1,0,-1,1,14
1573323751197839,-3,-3,-4,1,-3,-2,-2,-4
1573323751209551,1,1,-4,-3,4,1,-3,2
1573323751209551,-1,0,3,-3,-1,-2,1,8
1573323751218333,1,5,6,2,-2,-2,-2,6
1573323751218333,-1,-1,-2,0,-1,-2,1,1
1573323751232972,-2,-3,-5,-8,-2,-1,1,1
1573323751232972,0,-2,1,1,-1,-1,-2,-11
1573323751234923,4,-3,0,-1,1,2,5,29
1573323751234923,-2,0,-2,-2,-2,-1,14,-29
1573323751256408,0,1,-1,-3,-2,-2,-13,0
1573323751256408,-2,-3,-4,0,-2,0,-6,-1
1573323751257370,0,1,0,0,-2,-3,-3,-4
1573323751257370,0,0,2,0,1,0,2,-5
1573323751270066,2,0,0,-1,0,1,4,-6
1573323751270066,-1,-4,-3,-1,0,1,1,3
1573323751278849,-4,-2,-1,-2,-2,-2,-4,-8
1573323751278849,1,-4,-3,-4,1,0,-3,4
1573323751293512,-1,-1,-3,-8,-2,-2,-1,-9
1573323751293512,3,6,5,10,3,2,2,10
1573323751295438,0,-1,2,0,-1,0,2,-6
1573323751295438,-1,4,-2,1,-1,-1,-6,-32
1573323751316023,-2,-5,1,1,-1,0,4,13
1573323751316023,-3,5,0,-4,0,-3,11,-91
1573323751317887,3,2,2,4,1,1,-6,41
1573323751317887,6,0,-1,4,1,2,3,44
1573323751329605,-3,-2,-6,-6,-3,-2,1,-78
1573323751329605,3,-1,-2,-4,-3,0,0,21
1573323751338393,-3,2,3,2,0,-5,-3,-46
1573323751338393,1,-2,0,-2,0,-1,-8,51
1573323751353024,1,-3,-1,1,1,1,7,41
1573323751353024,4,-1,-1,-1,0,-1,1,32
1573323751359852,-4,0,-2,-2,0,-1,-1,-36
1573323751359852,-2,-4,-1,-2,-2,-1,1,-39
1573323751375467,3,1,-2,-2,-3,0,-3,26
1573323751375467,-8,0,0,-2,-3,-6,-11,-76
1573323751377420,7,3,1,-2,0,1,-9,75
1573323751377420,-2,2,3,3,2,2,11,33
1573323751397914,-4,-4,-4,-2,1,-3,-17,-51
1573323751397914,-2,1,-3,-3,-4,0,25,-62
1573323751399866,9,4,3,3,2,3,-1,1
1573323751399866,-3,-4,-1,-1,-1,-1,-2,0
1573323751412582,1,1,0,-2,0,-2,-8,-27
1573323751412582,-1,5,2,2,2,3,0,69
1573323751419398,-6,-8,-6,-2,-2,0,9,16
1573323751419398,2,-3,-4,-2,-1,0,-1,28
1573323751436008,-1,-2,-3,0,-3,-1,7,22
1573323751436008,-3,-5,-1,1,2,-3,-13,-12
1573323751437934,1,4,0,-2,-4,-4,1,-57
1573323751437934,-12,-6,-1,-3,-2,-5,-11,-128
1573323751449671,6,9,6,3,0,-1,1,-7
1573323751449671,4,-2,4,5,3,2,-20,111
1573323751458437,3,1,0,1,0,-1,-2,-1
1573323751458437,1,-1,-3,-4,-2,1,5,-33
1573323751473158,4,1,-1,-1,2,3,8,41
1573323751473158,-11,-3,-4,-3,-3,-6,-10,-67
1573323751479904,-18,-10,-5,-5,0,4,7,49
1573323751479904,-3,1,0,0,-2,-3,-2,50
1573323751496501,-10,-3,-2,3,0,-1,-4,2
1573323751496501,12,2,5,3,-3,-5,-9,54
1573323751497472,1,-2,-2,-2,-3,-5,-12,-53
1573323751497472,0,12,4,-2,-5,-11,-9,-94
1573323751510166,2,-5,-2,1,-1,-1,6,21
1573323751510166,3,1,-2,-2,-1,6,12,-119
1573323751518953,-5,0,1,2,0,-5,-13,-43
1573323751518953,7,3,0,1,2,3,-1,11
1573323751532604,1,2,-1,-1,-3,-2,0,-40
1573323751532604,-5,-3,-2,-3,0,0,-5,-44
1573323751539438,3,-2,-2,-2,-2,0,11,-18
1573323751539438,-2,-1,0,-1,0,0,1,22
1573323751556038,-2,-1,-2,-3,-1,-2,1,8
1573323751556038,2,0,-1,-1,-1,-1,5,1
1573323751557980,6,2,-1,1,-1,3,11,73
1573323751557980,-3,-4,-4,-2,-2,-1,6,82
1573323751569691,-10,-2,2,3,0,3,7,87
1573323751569691,-1,-2,-2,-3,-1,0,3,26
1573323751578474,6,3,2,2,2,3,-11,11
1573323751578474,1,0,0,1,1,3,9,47
1573323751593114,0,-1,0,-3,0,1,4,16
1573323751593114,0,-1,-3,-2,0,0,-1,26
1573323751599947,-5,-3,-1,0,-1,0,4,31
1573323751599947,5,0,0,0,0,1,2,-29
1573323751615590,1,-3,-2,-1,-2,-3,-11,14
1573323751615590,1,-4,-1,-1,0,-1,4,37
1573323751617517,-2,-4,0,-2,-1,-2,2,-10
1573323751617517,9,3,1,0,-1,1,-2,-89
1573323751638014,-7,-3,1,3,-1,-3,6,3
1573323751638014,-1,-2,-2,-1,-3,0,4,52
1573323751639964,8,7,3,2,-2,0,-11,29
1573323751639964,0,-2,-2,1,1,0,4,92
1573323751652655,4,5,0,-2,-2,1,6,-83
1573323751652655,-7,-9,-9,-4,0,3,9,6
1573323751659485,0,9,2,-2,0,0,3,-30
1573323751659485,-4,-5,-2,-1,0,1,4,16
1573323751676076,-4,-4,-1,-3,-1,-6,-19,-128
1573323751676076,2,1,2,1,0,-2,-1,32
1573323751678026,-19,-7,-4,-7,-6,-8,-11,-107
1573323751678026,0,0,1,2,1,1,1,6
1573323751699498,1,1,-4,-3,-1,2,1,-36
1573323751699498,-1,-2,-2,0,0,-1,-5,2
1573323751701450,1,-6,-6,-2,-2,0,2,-40
1573323751701450,-7,-3,-2,-2,-4,-3,-8,-47
1573323751712210,-7,-5,-3,-2,0,-1,0,28
1573323751712210,1,2,5,2,1,-3,-12,38
1573323751720979,4,2,-2,-2,0,1,1,-39
1573323751720979,-2,-1,2,3,2,-2,-10,41
1573323751735614,3,1,-2,-2,-1,-4,0,-32
1573323751735614,1,3,1,1,0,-1,-6,13
1573323751737564,-2,-3,-3,-1,1,1,1,20
1573323751737564,-6,-1,-3,-1,-1,-1,-6,-41
1573323751758059,-3,0,0,-2,-1,-1,1,-11
1573323751758059,0,1,1,-1,-3,-3,-3,-47
1573323751760011,2,-2,2,1,2,0,5,70
1573323751760011,2,0,-2,-4,-2,-3,6,-40
1573323751771722,-1,3,4,4,1,-3,7,97
1573323751771722,-1,-2,-3,-1,-1,2,6,-44
1573323751781483,0,1,0,1,-1,-1,-4,-9
1573323751781483,5,1,-1,-1,-3,2,5,-13
1573323751796146,-2,4,2,1,-2,-2,-11,45
1573323751796146,0,-5,-3,-3,-1,0,2,24
1573323751798075,-1,-1,1,-1,0,0,2,-9
1573323751798075,-4,-1,0,-3,0,-1,-7,91
1573323751818594,1,-1,-3,-3,0,1,1,-32
1573323751818594,-2,0,-1,-1,-1,1,-2,-43
1573323751820525,-2,-4,-2,-1,-1,-2,-3,8
1573323751820525,-2,-3,-3,0,1,3,9,4
1573323751832326,-1,-1,0,-1,1,4,-1,2
1573323751832326,-1,5,0,1,0,-1,1,-40
1573323751841026,6,-2,-3,0,3,1,13,68
1573323751841026,-4,-2,-1,0,-3,-2,-3,-20
1573323751855749,0,-4,-1,-1,-1,-2,-4,-45
1573323751855749,4,2,1,1,1,2,-1,70
1573323751857615,-1,3,1,0,0,-1,-7,-17
1573323751857615,-7,-6,-3,0,-1,0,-5,4
1573323751878107,1,-1,-2,-2,-1,-1,-1,-14
1573323751878107,-1,-1,-2,-2,0,-1,-4,0
1573323751880062,2,3,2,-1,0,-3,-2,-45
1573323751880062,4,-2,0,1,3,3,1,29
1573323751891775,-1,1,0,-1,-2,-2,-1,10
1573323751891775,-3,1,0,1,0,-4,-1,-20
1573323751901530,-6,0,-2,1,-4,-3,-1,-18
1573323751901530,-3,-1,-3,-8,-4,-6,-7,-73
1573323751916175,5,-2,-1,0,2,5,1,64
1573323751916175,0,-2,2,-1,-2,0,0,22
1573323751918124,-5,-4,-5,-3,0,1,0,-64
1573323751918124,5,2,0,1,0,-3,-4,10
1573323751938645,3,2,0,2,0,-2,-1,21
1573323751938645,-1,-2,-1,-2,-3,0,0,-22
1573323751940573,4,2,0,0,-4,0,-5,-8
1573323751940573,-6,-6,-2,-1,-2,1,-1,12
1573323751952291,-4,-1,-1,-1,-1,-2,-1,-19
1573323751952291,2,2,-1,0,-1,-1,1,-6
1573323751961067,1,-3,0,0,0,0,-2,-8
1573323751961067,4,2,2,2,3,1,-9,63
1573323751975709,-2,-2,-3,1,0,1,1,-18
1573323751975709,-4,-2,-3,-1,-2,-2,0,-34
1573323751977659,1,-1,1,2,1,0,-2,9
1573323751977659,-3,0,-2,-2,-2,-1,8,-12
1573323751998165,-2,1,-1,-1,-3,-2,0,-41
1573323751998165,1,-5,1,2,2,-4,0,69
1573323752000107,-4,-1,-4,-2,-1,1,4,21
1573323752000107,-1,0,0,3,-3,-3,-1,-20
1573323752011824,0,-1,-3,-3,-2,1,1,-10
1573323752011824,8,5,-1,-3,-2,1,-3,-122
1573323752021578,-10,-5,2,1,-1,-2,5,-35
1573323752021578,-1,1,1,0,1,-1,-2,-12
1573323752036313,-4,-5,-2,-1,-2,0,2,-7
1573323752036313,-3,-2,-1,1,-2,1,0,-27
1573323752037194,0,-2,-3,-3,0,0,0,-15
1573323752037194,0,1,-1,-2,-1,-2,-2,-30
1573323752058764,0,-1,2,1,-1,-2,-2,-3
1573323752058764,-1,-1,0,0,0,1,1,14
1573323752059644,2,-1,-1,0,-2,1,3,6
1573323752059644,2,0,-4,-6,-4,3,9,-79
1573323752073315,1,-1,7,9,6,-1,-1,16
1573323752073315,-7,-4,-2,-1,-1,0,2,-23
1573323752079202,4,3,-1,-1,-2,0,-2,-15
1573323752079202,1,-1,-1,-2,-1,-2,0,-51
1573323752095849,1,-1,-5,-6,-2,-1,-4,-42
1573323752095849,-2,-1,-1,-1,2,1,-1,20
1573323752097709,0,-3,-2,-1,1,3,3,38
1573323752097709,-1,1,0,0,-1,-2,-5,4
1573323752118304,0,-1,-2,-3,0,1,-1,7
1573323752118304,-2,-1,1,2,-2,-3,-1,15
1573323752120158,2,-1,1,-1,0,-2,-3,4
1573323752120158,-3,-2,-1,2,1,-2,-6,-1
1573323752131964,-6,-5,-3,-1,-1,-1,1,-19
1573323752131964,-7,-4,-1,0,0,0,2,-6
1573323752141630,19,-1,-3,-1,-2,-2,-3,37
1573323752141630,16,0,1,-1,-1,-3,-6,16
1573323752156490,1,-1,-3,-1,-4,-2,8,-64
1573323752156490,-1,0,-1,0,-1,-1,-3,-3
1573323752157243,-12,0,1,0,0,-2,1,-4
1573323752157243,-9,3,3,2,1,0,-3,-6
1573323752178756,-3,2,-1,-1,1,0,6,86
1573323752178756,-4,0,0,-1,-2,-2,3,-7
1573323752179691,-6,1,0,-1,-1,0,-1,-5
1573323752179691,-7,-3,0,-1,-1,0,1,-7
1573323752192618,-1,0,-1,-1,-1,0,-7,-25
1573323752192618,4,-3,-4,-2,-2,-1,10,-27
1573323752201163,5,1,0,2,1,2,-1,7
1573323752201163,1,-2,-1,0,1,1,-1,0
1573323752215970,3,0,-2,0,-2,-2,-7,14
1573323752215970,-10,-6,-3,-2,1,4,4,21
1573323752217754,-6,0,-2,-3,-3,-2,-4,-84
1573323752217754,-3,-2,-2,-2,-2,-2,2,-62
1573323752238252,-4,4,5,3,0,-3,-11,-65
1573323752238252,3,2,1,4,1,-1,-4,7
1573323752240203,-6,-2,0,-1,-2,-1,-2,-9
1573323752240203,-5,-1,-2,-2,-1,2,0,-9
1573323752251921,0,0,-3,-4,-1,0,5,-11
1573323752251921,1,0,1,-2,-2,-3,-4,51
1573323752261677,-4,1,3,1,0,0,0,26
1573323752261677,-2,1,0,0,1,-1,-1,16
1573323752276532,0,-3,-3,-4,-2,3,-1,19
1573323752276532,5,6,-1,-2,-3,-3,-6,-14
1573323752277292,-3,-5,-5,-3,0,-1,2,13
1573323752277292,-3,-4,-3,0,0,2,3,35
1573323752298906,-8,-5,-2,-1,0,-5,-1,-38
1573323752298906,3,1,4,3,3,1,-5,65
1573323752299740,2,-2,-2,0,-1,-1,-3,14
1573323752299740,3,-2,-3,-2,-1,0,0,3
1573323752312620,-2,0,0,-1,-1,-4,-10,-59
1573323752312620,-2,-1,-3,-4,0,2,6,-32
1573323752321219,-1,1,-2,-2,-1,-1,-3,17
1573323752321219,-5,-4,1,2,-2,-4,-8,37
1573323752335855,0,-3,-1,-1,0,0,0,26
1573323752335855,2,0,-2,-1,-3,-1,-2,-22
1573323752335855,-1,2,-1,2,1,0,2,-4
1573323752335855,1,2,0,-1,-1,-1,0,-28
1573323752358304,3,1,0,0,-2,1,-2,25
1573323752358304,-4,-4,0,-3,-3,-4,-1,-62
1573323752358304,-1,-2,-1,-3,0,-3,-5,-37
1573323752358304,3,3,0,1,-1,-3,-3,-18
1573323752380848,1,2,2,2,2,2,1,21
1573323752380848,-1,-1,-3,-2,0,4,0,-11
1573323752380848,-3,0,-1,0,-2,-1,-2,-12
1573323752380848,-1,2,-1,-3,-2,-1,2,-35
1573323752395386,6,3,0,-2,0,-1,-5,4
1573323752395386,-5,-8,-2,-1,0,-1,-1,35
1573323752396363,-3,-2,2,1,2,2,-1,32
1573323752396363,-1,0,1,-1,-1,0,0,17
1573323752417838,2,-1,1,-1,2,1,4,17
1573323752417838,4,2,0,2,0,1,-4,52
1573323752418810,2,1,1,0,0,-2,1,1
1573323752418810,0,2,3,1,1,-1,-1,9
1573323752440322,0,-3,-4,-4,-3,-2,2,7
1573323752440322,0,1,0,3,1,0,4,38
1573323752441258,-2,-2,-1,-1,-1,1,3,-11
1573323752441258,6,5,-1,-1,-2,-2,-5,-44
1573323752455903,-5,-3,-1,1,0,-1,2,39
1573323752455903,-1,1,-3,-4,0,-2,-2,-26
1573323752455903,-3,-3,-2,0,1,0,0,20
1573323752455903,-6,-7,-2,-2,-1,0,3,0
1573323752478352,-13,-8,-2,-2,0,6,11,75
1573323752478352,0,4,4,3,-1,-4,-8,19
1573323752478352,0,-1,1,0,-3,-1,-3,-15
1573323752478352,1,-3,-3,-1,1,1,3,56
1573323752500889,3,3,1,-2,0,-1,-4,-42
1573323752500889,-6,-6,-2,-4,-2,-3,0,1
1573323752500889,1,1,0,0,2,1,1,17
1573323752500889,2,0,-2,-1,1,-2,-1,1
1573323752515634,4,0,-1,-2,-2,0,-3,4
1573323752515634,-4,-3,-3,-3,-1,0,3,-46
1573323752516411,1,1,0,-1,-2,0,-2,-18
1573323752516411,-3,-4,-4,-4,0,0,2,18
1573323752538061,2,3,-1,0,-1,-2,-1,-20
1573323752538061,3,-1,1,-1,0,0,-2,-31
1573323752538861,-2,-1,-3,-1,-2,2,2,23
1573323752538861,-5,-3,-4,-1,-3,-1,-1,-49
1573323752560531,4,5,1,0,-1,-2,-1,-20
1573323752560531,-2,-1,-2,1,-1,0,-1,-15
1573323752561308,2,0,-3,-2,-2,-1,-2,-23
1573323752561308,-6,-4,-1,-1,-2,-3,-1,-83
1573323752575951,-3,-7,0,2,2,-1,2,55
1573323752575951,2,0,-3,-1,1,4,6,27
1573323752575951,-1,-1,-1,-3,-1,-4,-1,-39
1573323752575951,0,1,-1,-2,-2,-3,-3,-47
1573323752597418,-6,-3,-3,0,-3,3,4,-14
1573323752597418,2,0,1,-1,0,0,1,-7
1573323752598399,0,-2,-2,-2,-1,-1,1,0
1573323752598399,4,7,7,3,0,-3,-8,4
1573323752619869,1,0,2,2,1,-2,-4,-3
1573323752619869,-1,1,0,-1,-3,-3,-5,-6
1573323752620841,0,1,1,0,-1,-3,-4,16
1573323752620841,0,-2,-3,-2,-1,2,1,43
1573323752635486,3,5,1,-1,-2,0,-1,-20
1573323752635486,-1,-4,-3,-1,0,0,5,25
1573323752636458,-8,-4,-3,-4,-2,0,-1,-26
1573323752636458,-6,-7,-3,2,2,4,1,37
1573323752658081,-12,-3,-4,-2,-2,-2,17,-69
1573323752658081,-3,0,0,0,0,-1,-1,-35
1573323752658905,2,2,-1,0,-2,0,0,-1
1573323752658905,2,2,-1,-2,0,0,5,10
1573323752680377,-1,-3,0,-2,-2,0,-3,-14
1573323752680377,-1,2,0,0,-2,-4,-5,-37
1573323752681352,-4,-3,0,1,0,2,2,31
1573323752681352,-6,-4,-2,-1,-2,-3,-3,3
1573323752695016,4,1,0,-1,0,0,-5,12
1573323752695016,1,2,2,0,-1,0,-6,-16
1573323752695992,8,5,3,3,-2,-1,-5,50
1573323752695992,1,-1,0,0,-1,-1,1,-35
