timestamp,emg1,emg2,emg3,emg4,emg5,emg6,emg7,emg8
1570178999612932.0,10.969255393397747,0.7849873561683655,2.0958175045523117,2.5631788809557534,1.5170483622061133,17.943673445718012,9.558587335311655,25.2217472444312
1570178999612932.0,8.111568727995698,0.7729622714902588,1.8482613867168796,2.122991346062726,1.583258141877896,13.146267301798074,7.3718072474388565,18.851776858912018
1570178999613137.0,7.809373795302154,0.7990727046116741,1.8172201067039007,2.0646259480617717,1.6389161499595126,12.664504877805026,7.340144975593812,18.61815324172277
1570178999613137.0,7.031589287025938,0.8271469903492465,1.7496028760740765,1.9429002711356367,1.6919336124580289,11.190960006591334,6.696795278562096,16.742621950952966
1570178999613922.0,6.786169194228744,0.8555859128178783,1.7287414379579333,1.8981273629845574,1.7420962136792952,10.816391558994306,6.663600791687682,16.56487956186864
1570178999613922.0,6.3703826082511785,0.8837466709414847,1.694811405493198,1.8287828512647293,1.787311815002489,9.94947579141367,6.285602113269433,15.529662158407328
1570178999617916.0,6.164352276428482,0.9072389007224484,1.6807045275947698,1.79119323599941,1.8220817473713784,9.631192826602726,6.239758529173648,15.366294231451883
1570178999617916.0,5.884168300236924,0.9309970776058557,1.6580393545641952,1.7430334764444846,1.8490008057060456,9.030253737711366,5.98522026322068,14.615789664725103
1570178999618905.0,5.696871860127061,0.9521356979546204,1.643725883627969,1.710255246107554,1.8735487140429508,8.769058998435892,5.947808933519197,14.453849172775476
1570178999618905.0,5.495392142084457,0.9765873760685309,1.6223740720682298,1.6713283683569435,1.8921835094433237,8.310070598449885,5.738362410282756,13.931394337081343
1570178999625887.0,5.336029629376281,0.9984159573666626,1.6053252527207515,1.6409741507847837,1.9029635066827377,8.07596499316819,5.662295599949002,13.840152629766429
1570178999625887.0,5.180506806597036,1.0247047188725624,1.5892947896279548,1.6104357042552195,1.912326210733669,7.708755174291832,5.471169690580462,13.45437672619891
1570178999639847.0,5.029574904132086,1.0511122034986495,1.5757986540710072,1.5888651486614873,1.9237714802474934,7.5183206343448505,5.394978042927127,13.375806294732092
1570178999639847.0,4.89694905003096,1.079003678933223,1.5577183689650476,1.5702330250127643,1.9377228873817995,7.229752489998831,5.220030250981022,13.042930927218361
1570178999647957.0,4.751352131689743,1.1004074128465084,1.5398316523124718,1.5557821923192612,1.9538111750901364,7.080058389157467,5.1430352721781984,12.91471476905841
1570178999647957.0,4.626991640755416,1.120398813522736,1.5239370718435916,1.541325521688107,1.9708128525890336,6.851270252782924,5.002479198857799,12.581857632037531
1570178999653899.0,4.476438228293727,1.1400864468142895,1.5101802982823302,1.5299478965465034,1.985880508859822,6.716784713363706,4.936939110060352,12.452252307479231
1570178999653899.0,4.360019930614279,1.1613023610892916,1.4967771866344057,1.5183689119668609,1.996578699546177,6.489404527490248,4.812608775108545,12.170856885018527
1570178999677748.0,4.221978557971065,1.1762034024617836,1.4819811461535985,1.505014780745171,2.0055371063488687,6.332688179166132,4.763151610417706,12.06325017974705
1570178999677748.0,4.123873882005867,1.1896592677988227,1.4686955783329956,1.4911890782125636,2.017023493988131,6.124756608972063,4.6676791747889945,11.844543430702082
1570178999717641.0,4.003712891967976,1.2007911970175185,1.4546243230553393,1.4767073499649124,2.0280505633656754,5.998200134353133,4.63177875120438,11.794282790493723
1570178999717641.0,3.9248332498021856,1.2134762882160295,1.439166487542483,1.4612564224242914,2.029231884261233,5.823679549416741,4.545473528340906,11.642062508629628
1570178999717641.0,3.829482108886837,1.2270254960204416,1.422479801312786,1.4423942763999413,2.0228997735084837,5.708449669968274,4.51104585472696,11.638422720104652
1570178999717641.0,3.7716939684282926,1.2447757472108132,1.4091777311213463,1.425577254424278,2.021481600322192,5.552582087519472,4.44029464221983,11.53302828715288
1570178999718637.0,3.6959090158353542,1.2640004396955704,1.3976569386869455,1.4088535228983725,2.0259207333388622,5.46355536697005,4.422253801846658,11.541490612881589
1570178999718637.0,3.6529524645673854,1.2860170110822284,1.3884164144799809,1.3961432263357836,2.031242468707149,5.336713286779256,4.369510475039159,11.461822698107802
1570178999721629.0,3.592350168177939,1.3076195120761667,1.3800448992909191,1.3845322150289163,2.0389658414002088,5.272720845581887,4.361089397317687,11.501720980468804
1570178999721629.0,3.560127375658195,1.3320714890317276,1.3747241533863426,1.3749882958959851,2.0517089364902805,5.173823918578681,4.31538790616316,11.462518811400443
1570178999728611.0,3.509271725252749,1.354913148381785,1.371438016998772,1.362531323111272,2.065929539959141,5.138051025656338,4.313802791246448,11.535971159767161
1570178999728611.0,3.481599462966978,1.3758783705557383,1.3681236008473199,1.349931108120244,2.077517387078818,5.065613032023762,4.281815596549059,11.53879741564946
1570178999736590.0,3.4335794192955724,1.3955163467498306,1.3628942170016347,1.3361063922916594,2.087780882445392,5.04880093965993,4.286703997781215,11.622592568299893
1570178999736590.0,3.4024973218837915,1.4184612022668301,1.3584345655202077,1.3249441477133725,2.095232552080961,4.982046576450176,4.256557704781651,11.59386801304672
1570178999743658.0,3.3529165549816,1.442433836317925,1.355074339292175,1.3136579562556667,2.0989993495526513,4.957276368529598,4.257584785443917,11.610694419537168
1570178999743658.0,3.328695817399786,1.464067881525343,1.3543504579502177,1.3048431494574588,2.104186620102486,4.88924989283539,4.226505066971395,11.567939090150665
1570178999759529.0,3.297783929542053,1.4788443490933367,1.3578472833444277,1.296037419655794,2.1117885380758645,4.868477436485301,4.233567230755947,11.605968046415185
1570178999759529.0,3.289605085588517,1.4916390115475056,1.36588348483236,1.290446454668789,2.1189035881832092,4.809518829859534,4.216705209617065,11.583126504946655
1570178999766510.0,3.268291497054478,1.5039657488065656,1.3733401886596512,1.2861073130092184,2.123197636380778,4.800583310702374,4.232769900014321,11.597597425746415
1570178999766510.0,3.2581511685456706,1.5147902282410726,1.3756374844790178,1.2829328843811894,2.1255830668580167,4.754859403752284,4.222418867773239,11.522103533398084
1570178999790445.0,3.228791651940877,1.5224398622639852,1.3713596155948804,1.2761738936319225,2.130307363013763,4.7550796673693005,4.243844308021369,11.472166825391847
1570178999790445.0,3.210616163526718,1.5277730921091024,1.3610441606578525,1.2644447024984116,2.1368307915494027,4.708654527909871,4.245900205057568,11.385823442808768
1570178999791442.0,3.177348183555102,1.5292623933147653,1.3465628064999744,1.2486452138729054,2.14375826127406,4.698753826425653,4.28348067866102,11.36237437390772
1570178999791442.0,3.1567136084494685,1.530563830732133,1.3336909770765693,1.235431361805128,2.153643284488639,4.654975542427633,4.295487972328839,11.302296140875859
1570178999805610.0,3.127705974041108,1.533939914251887,1.3245288308033207,1.2244260159949139,2.167585628257034,4.661083379865483,4.329065671386925,11.291425902710674
1570178999805610.0,3.117808877866111,1.5407566542898439,1.3200227172534416,1.2168552130015349,2.1849341594634195,4.6343394302479854,4.337927662917268,11.257692607986678
1570178999806470.0,3.108151376363119,1.5524276964334678,1.3185006806747668,1.2119932068245234,2.2055212776885127,4.649246465637866,4.374975794150407,11.281476718193698
1570178999806470.0,3.1166011687085398,1.5671830141732068,1.3195503557834756,1.2112005135947084,2.229623863670507,4.622403737035814,4.390113875788963,11.289643682709977
1570178999827369.0,3.121699622178636,1.5779356285589123,1.3207201839060738,1.2156128287386565,2.254100094397962,4.623570824300312,4.424318699487451,11.360211492705174
1570178999827369.0,3.13824421893012,1.5833728131570695,1.320420322278038,1.2235762619604114,2.2753609793608267,4.58672636827653,4.43294396628057,11.42406898219336
1570178999829340.0,3.1535999541527224,1.5882657561929103,1.3182255046830205,1.2340212117145766,2.296670949096384,4.594592957646672,4.4588508957716,11.549580181487126
1570178999829340.0,3.1790226124726293,1.5936688051382688,1.3155016988501274,1.2446807611924262,2.322537965074944,4.5776902659691965,4.453591833949923,11.645151508889937
1570178999850305.0,3.195314656977585,1.595616536151731,1.31085272221691,1.2581395670686537,2.353424476070164,4.60762920083371,4.454250131158616,11.742782888938898
1570178999850305.0,3.2117191609917657,1.5941115887003023,1.3065738746810078,1.2735905432426653,2.388212011867231,4.604633752761921,4.434978580320145,11.760191713452599
1570178999851283.0,3.2130586130555856,1.5940376750144225,1.305331595946307,1.2918671678722808,2.4250612443648643,4.624309205684651,4.438566192134136,11.731564631204066
1570178999851283.0,3.2219223170970337,1.5983020361164992,1.3054508697223224,1.3110694762686768,2.4610176148003093,4.60558498804092,4.430468941123951,11.662000066303387
1570178999865243.0,3.230635677910315,1.603255638942947,1.3057002190515623,1.3330276857617913,2.487817431488166,4.6190552821289526,4.43914721010222,11.638047506715356
1570178999865243.0,3.243222219379398,1.6038538938677176,1.3062855134250297,1.3510689758283327,2.4966751738201816,4.598946129534659,4.431422950326401,11.597192418698159
1570178999866241.0,3.2350859031717096,1.5992297555601236,1.303066832440926,1.3613071407337098,2.48537694948748,4.610127363730705,4.439509479319879,11.540711039315463
1570178999866241.0,3.2326867188714083,1.590801216007189,1.2961892894393952,1.3648977813631475,2.453970862291571,4.589772062387884,4.4328735065749845,11.47055071135822
1570178999887186.0,3.221658060205877,1.5827134440756023,1.2883521769188468,1.3675108680854746,2.412419093296371,4.5849073325073935,4.446312468201932,11.429841801858435
1570178999887186.0,3.2126236537377935,1.5756398239231812,1.2797511979913054,1.3685809532885722,2.372674861927122,4.543482509473677,4.452624636912343,11.38531936822733
1570178999889180.0,3.1929120685190404,1.569981718634311,1.2732055393486,1.3693004269745146,2.3345338406932505,4.521357756563587,4.478624756817206,11.365746129713385
1570178999889180.0,3.188278933280917,1.5654093153115853,1.2717909802853002,1.3696961376267578,2.2976788541750333,4.472800038176789,4.500089527670037,11.347936236808554
1570178999910125.0,3.174368605391613,1.5604223006154232,1.2756025024472268,1.3675468951767211,2.265598072860762,4.454235969822466,4.538465405342155,11.307315540714058
1570178999910125.0,3.1633532314817305,1.5534188105756987,1.282336157670282,1.3633029899090083,2.2401096224695114,4.418975810697366,4.559754940112262,11.22538875269811
1570178999912119.0,3.1368930915391577,1.5456596609662767,1.2903827871486444,1.357127021542909,2.217333675964634,4.413749702291525,4.586624889641161,11.146779069065841
1570178999912119.0,3.1201964858102498,1.5386016550442216,1.3002495069098519,1.3528439764469538,2.1946608230497886,4.392453057851992,4.59810183165147,11.075699642571172
1570178999924087.0,3.0946504100130543,1.5328369905354589,1.310410387888655,1.3485361822766242,2.1740013746912656,4.393631140903463,4.623455381504875,11.003298741841665
1570178999924087.0,3.0830237503729707,1.527782519628678,1.3165042160897018,1.3423795803300107,2.153043516082065,4.361576798969306,4.637320707643274,10.936134183974746
1570178999931098.0,3.0642313419269636,1.5260394776225064,1.3201501968651415,1.3348457405490164,2.1314428238279404,4.345856133047793,4.652455195897486,10.889298177035158
1570178999931098.0,3.059241051581246,1.5244789571965192,1.3228972913844603,1.3275447153910425,2.1142719308879645,4.314470949886396,4.652169198992015,10.86758602037754
1570178999947025.0,3.048859690475775,1.5202579061142032,1.3251123334119446,1.3167674261892028,2.1037004468884866,4.310496364394369,4.655841845075593,10.852341855717826
1570178999947025.0,3.0496584498127266,1.5166125148327465,1.3255012933783679,1.304115973368622,2.0981497701092606,4.289108809932328,4.650119162327546,10.814231972491031
1570178999949351.0,3.04035838707718,1.5144160953057433,1.3223684027014195,1.287426127374524,2.0962750766915246,4.293993791746953,4.656088186296222,10.760148319361539
1570178999949351.0,3.039489526902825,1.5100752736544978,1.3165332223580608,1.2712923302872006,2.094830048583111,4.27727379910933,4.656014442856999,10.715273339184881
1570178999969983.0,3.0310229721090143,1.505782014496885,1.311030527627597,1.2578026738825852,2.0914228506205332,4.277557609516465,4.665118892116468,10.673580183321915
1570178999969983.0,3.035224225398454,1.5032161746271653,1.3057361073459248,1.2491338958547313,2.0885350752447915,4.263655803050775,4.667297757228222,10.642663739686782
1570178999971958.0,3.030789854190636,1.5011951797540402,1.2997095591077665,1.2425703234680214,2.088948924822754,4.281047842121197,4.665816351131279,10.619926448326831
1570178999971958.0,3.035091263337462,1.496085876134277,1.2928660480058853,1.2397699190481544,2.093924383685875,4.283401474409284,4.654916311625894,10.604976567347236
1570178999984836.0,3.0326784645481117,1.4890054529207735,1.286253692461936,1.2392863431246968,2.0986243200741863,4.305721377680923,4.6526698278725505,10.60043495766653
1570178999984836.0,3.0371949678896493,1.4814225904147398,1.2807443670171563,1.2415598403175214,2.095913430548914,4.304704317166602,4.6400738542350926,10.602600463056424
1570178999991005.0,3.016059877160372,1.47294257586659,1.2764829805349807,1.2442868188127896,2.088110214969622,4.3122981705396075,4.613857207592704,10.554952576810345
1570178999991005.0,2.990493051775677,1.4627157367827355,1.274251336453192,1.2496921549725895,2.080028044794741,4.288014342749125,4.575063753282858,10.480419225730227
1570179000007863.0,2.949995903746322,1.4541623493734666,1.275293090438176,1.254818638682267,2.0713069560494968,4.276897410113844,4.543815779828651,10.402258387295067
1570179000007863.0,2.92529190804736,1.4471071969360667,1.2781719390767465,1.2568554754376762,2.061976659186569,4.256871311160454,4.516761028165877,10.349162683629238
1570179000008912.0,2.8987603907409887,1.4399413879066028,1.2803322209961845,1.2553240522405398,2.0519198297230843,4.257874590395134,4.499064855164101,10.314191247813127
1570179000008912.0,2.887483567671321,1.4349062503249854,1.2813913554243974,1.2536018836345222,2.0413324327039253,4.240600934192144,4.484299201418107,10.296694072593047
1570179000030051.0,2.86745119135263,1.4350237408730524,1.2828053217076003,1.2493514797936027,2.0338918637139085,4.242048685069044,4.453245554751777,10.244402996065991
1570179000030051.0,2.859890865215043,1.435346645753801,1.2820915619949633,1.2421504036522792,2.025767690538199,4.225786708446324,4.393893343360235,10.186442150041232
1570179000031801.0,2.845111925248125,1.4309777299477027,1.2809142676831402,1.2289985584386447,2.0097227454786855,4.2017156454474485,4.324607603147945,10.12736387140935
1570179000031801.0,2.8396291713231796,1.4227882012238828,1.2816388968619237,1.2132940822162175,1.9906352332577761,4.140811033865818,4.253128474063432,10.078905551054305
1570179000044764.0,2.8188895920224954,1.4142141918156599,1.2847394187355947,1.195889549345786,1.9739097427275536,4.0930526702947425,4.179460656885769,10.004329327833167
1570179000044764.0,2.8030247491648015,1.4048264931577075,1.2865463453558297,1.180762112324792,1.957182910086653,4.040419407727663,4.107842326625223,9.931937887284906
1570179000050748.0,2.771564891811066,1.3960316559625867,1.2869655121488508,1.1671265629143737,1.9406613470308294,4.004756664053544,4.0407903281327755,9.834295194918715
1570179000050748.0,2.744376420618259,1.3875471391393834,1.2883369469444126,1.1560627353826665,1.9261835894905028,3.962197715629962,3.9822074769889464,9.723159040835904
1570179000067702.0,2.7086911705235126,1.3778018293920047,1.293288939360719,1.1437258334164948,1.9136330569558972,3.9389311447186985,3.931881285162516,9.595504722376104
1570179000067702.0,2.687665063510454,1.3659955689095689,1.2998595347646154,1.1315963853605437,1.9039706067811597,3.9083718004667864,3.8925751217136213,9.505699364283075
1570179000068700.0,2.659090278089972,1.3553695728460018,1.3079402620317055,1.11997934080231,1.8980226937868192,3.895860889102118,3.8626092340090277,9.43109299321769
1570179000068700.0,2.643417590887998,1.347774057949636,1.3165880563352599,1.1114932782213165,1.8965144647343029,3.876460402138437,3.8421707574289266,9.388223729445965
1570179000089644.0,2.6250907478771555,1.3428515718651066,1.3256275109552247,1.1039046263918084,1.897944183767764,3.8785459927150145,3.8281179806847225,9.33364421671007
1570179000089644.0,2.6202973927472857,1.3382764180259568,1.3302340159970738,1.0972974655212242,1.8983731237821113,3.8716586190204563,3.813250600404248,9.280126137698083
1570179000091639.0,2.607392336594763,1.3332146432478067,1.329759124472561,1.0926223023339947,1.8982779332371473,3.8833075678044624,3.801764635201182,9.20688101056193
1570179000091639.0,2.600441570002265,1.3282191717002376,1.326547812257214,1.0927935974559864,1.8994330249313371,3.880853490863079,3.7892422208144207,9.14303706024504
1570179000104603.0,2.5875810964720674,1.3255521106976433,1.3244345840186174,1.096307499995889,1.8996291785006647,3.8793291591762635,3.766156849990072,9.067890821484678
1570179000104603.0,2.5858998822632957,1.3271107044965684,1.325488416508855,1.1025002317388584,1.897185469817345,3.845681688654606,3.74009481015799,9.01552156678863
1570179000111585.0,2.5824704186686747,1.333280009397956,1.3323627917704077,1.1111371100607963,1.893459574419975,3.8149254608631398,3.716061632004438,8.969742251386513
1570179000111585.0,2.592946092159977,1.341966116608099,1.3427774619370512,1.1212456731573555,1.8911150570752324,3.767840888956506,3.687857184343475,8.960071840872004
1570179000127544.0,2.605398340351478,1.350329656135119,1.3546649678112304,1.1308690002586586,1.8856591030722,3.735816441376648,3.656561087281174,8.960010842192787
1570179000127544.0,2.6292834105444367,1.3551826979592603,1.3652055612502085,1.1379792994934588,1.8731898991872458,3.6998935708498593,3.6307535418108277,8.981402253536798
1570179000129537.0,2.6503580118742955,1.357495101984674,1.3766205613231515,1.1417143867205508,1.8614083440363816,3.6894063683122136,3.609673683812379,9.01252354261189
1570179000129537.0,2.677585436573872,1.3611464280941314,1.3887359062356766,1.1420600289756824,1.8554264662964108,3.6740193593824984,3.58878161696889,9.084278627040087
1570179000149947.0,2.688231076465257,1.3644438142901807,1.400515015784588,1.1399936849601975,1.852591033096071,3.6765830420860564,3.5716790938961527,9.113968944650775
1570179000149947.0,2.686045416247495,1.3622294697062667,1.4092496611654726,1.1375090228199822,1.8510304901752612,3.6646828011245063,3.553407812087172,9.064239065715663
1570179000151479.0,2.6717614840684227,1.35837482836164,1.4170179138163754,1.135541052827927,1.851796879310205,3.6712083395357817,3.5351862535911476,8.960584544055049
1570179000151479.0,2.662424733352948,1.3558716889427556,1.4219402985623728,1.1351132569729603,1.8556426309815708,3.6689630090149876,3.5245517321493653,8.85738263237371
1570179000164446.0,2.6327749855792537,1.3508849039361879,1.4240681416540415,1.136213095735624,1.862153972320662,3.6880423450600515,3.5208249160297416,8.693888890526305
1570179000164446.0,2.600198613350296,1.3441485866093148,1.4247065273083424,1.1378405280152002,1.869058191928933,3.693329207707558,3.5162466770385508,8.519128956290647
1570179000171425.0,2.5616892555468684,1.3397576648796556,1.425411055830589,1.1410106879502104,1.8741720778149522,3.7178110180358055,3.51812601534786,8.332038990542863
1570179000171425.0,2.5362471732608634,1.3367336429912982,1.4235297966225082,1.141784797950809,1.870587285540846,3.729739707151807,3.5287096911307274,8.17145376617283
1570179000187382.0,2.5079818458410124,1.333129753865477,1.4188504216966173,1.1362073952871667,1.8540351486488909,3.7582308935963695,3.54934539241857,8.008958564491408
1570179000187382.0,2.4912917201221667,1.329893463522535,1.414826906935933,1.1282523077914957,1.8324385299905799,3.764605471228304,3.5747341625390106,7.879194485170759
1570179000189377.0,2.471832512213085,1.3290770485553554,1.4137567747119066,1.1187315999506942,1.8113232888857975,3.782315910259076,3.5966095899306163,7.754830295864874
1570179000189377.0,2.460224741450819,1.3327272954780518,1.41407388555644,1.106756028856004,1.79339825411401,3.7811508663297784,3.5952382126794973,7.666360601133202
1570179000210322.0,2.4409964174060352,1.3417531389987505,1.4172289102169773,1.0950828077653492,1.7801249058599429,3.7988759255841797,3.575331064663204,7.5836498913361705
1570179000210322.0,2.427348040339025,1.3530921296044245,1.4205586194814908,1.0868372408085882,1.770233871883411,3.8014844453013397,3.551464228038465,7.525728491466972
1570179000211319.0,2.4109095069729647,1.361715346138551,1.4197860578308161,1.0830314301725674,1.763639813033166,3.827471400974143,3.5330079121422644,7.468378868808642
1570179000211319.0,2.4018882780323256,1.3679007179140352,1.416703716139542,1.0825395915194507,1.7602496040252469,3.847892121469987,3.512727694192945,7.420663027396525
1570179000224283.0,2.380832205445205,1.3735651055030045,1.4166216171161299,1.084560538154279,1.7608347670566773,3.89774352694377,3.489851036100817,7.345075824105967
1570179000224283.0,2.3608782853933183,1.378892488026465,1.418898576212283,1.088693845953162,1.763846307851611,3.939367359179463,3.4713384920046106,7.262467753854425
1570179000231265.0,2.338565012604076,1.3858456438947688,1.4219580215504488,1.09427997004683,1.766389988016047,4.002994963612234,3.462886954895896,7.170091968861798
1570179000231265.0,2.327011254666216,1.3975132953766287,1.4234449693707492,1.0978326788195247,1.768888630322848,4.047935067188776,3.4569323364853526,7.104910449300479
1570179000247222.0,2.3121301486562746,1.414459639001785,1.424915954643913,1.0979751780200977,1.772146376213272,4.106185721480874,3.4540616131592703,7.058199457678824
1570179000247222.0,2.298995208810481,1.4326540506998404,1.4278491894338834,1.093314335625909,1.7741541559322735,4.138551103489014,3.4495491698828893,7.040256417430031
1570179000249219.0,2.27476789569548,1.4482043423018527,1.4316341792991942,1.0844281701396687,1.7756539474781565,4.184273878081862,3.4464614423170823,7.02922555539616
1570179000249219.0,2.254206770681375,1.4624667298353704,1.435870307393674,1.0748627238859965,1.7805345783263853,4.214108513494036,3.442734975507463,7.03140345189723
1570179000270161.0,2.232751026768678,1.4733472553678824,1.439936463201876,1.0670069394593582,1.788624251321471,4.255832047957771,3.442792443178081,7.044456901723453
1570179000270161.0,2.218189910375104,1.4813394020749098,1.4415699168423177,1.0603417536065651,1.7943093107252428,4.264372462108726,3.4489634083831313,7.073154746088084
1570179000271160.0,2.2038149306180017,1.4902001204405078,1.4421888731795915,1.0575086042496031,1.79293461488871,4.271022051122679,3.4611346246955357,7.101347906677526
1570179000271160.0,2.1940663945272276,1.4979527105444286,1.4414516639474089,1.0575873870932386,1.7884417289848733,4.2641336279205,3.466933063396878,7.114631253105805
1570179000283127.0,2.180021080824971,1.5016997848172613,1.4397001432690866,1.0604399795920845,1.78800207159467,4.2834825049070275,3.474918560160066,7.1083425057637495
1570179000283127.0,2.1722963194046523,1.5036800280502476,1.4386182376312957,1.0649431946311831,1.7946600956055752,4.294474108257683,3.482615014659269,7.1045991397296655
1570179000293099.0,2.1682954892123516,1.5057039376855337,1.438400496035126,1.0711322760277402,1.8081942996674585,4.32287747463905,3.4916369238343656,7.10319064541093
1570179000293099.0,2.168426766030043,1.5078596513744145,1.4378248400584839,1.0767591150781912,1.824719988165669,4.336807444420468,3.5038306073601433,7.095728612284695
1570179000307445.0,2.1659745796340752,1.512033397414335,1.4381208769077363,1.082149388121561,1.8420489284463526,4.364815551054474,3.5250744940411813,7.08358947505582
1570179000307445.0,2.166603422491531,1.5191801553711024,1.4390276790779784,1.0850889705387692,1.8634105621787194,4.384887648947148,3.5476025405161074,7.06966294435926
1570179000309057.0,2.170284208693694,1.5252485687539457,1.4397777174858108,1.0871714730918727,1.887487207410042,4.414034381049834,3.577366476564725,7.061469281773508
1570179000309057.0,2.1774985337839063,1.5284990979169077,1.4401825588157782,1.0881342631288062,1.9107091989693599,4.405113395888414,3.6108998164120716,7.064668213718894
1570179000330024.0,2.183340802832659,1.53089363103398,1.4394402211158646,1.091409919141051,1.9348607319689264,4.388792901297461,3.6465443465508542,7.085481037193992
1570179000330024.0,2.180217726041084,1.5324681621501344,1.4374201376995657,1.0952118697030062,1.9604343024194997,4.3645933439191325,3.67043200732464,7.102600579154117
1570179000331996.0,2.1690600712356494,1.531245996762674,1.43523480598104,1.100181560872099,1.986493313212862,4.36285653309792,3.6924424380190644,7.1192904536006285
1570179000331996.0,2.1586084157604266,1.5262861109836194,1.4327481495172816,1.1047545253584194,2.0138153334655504,4.355056738832882,3.7084951939469732,7.140311526377201
1570179000344050.0,2.1528582507788503,1.518529847127084,1.4300488907779267,1.111676877386356,2.03949523157927,4.360776248077905,3.718996950204362,7.170506414469316
1570179000344050.0,2.1503647346132047,1.5088844571804922,1.4260491365656778,1.118864932937207,2.0584931923066234,4.353545853053742,3.7301122149697,7.190343280276805
1570179000352940.0,2.1556964018476417,1.4982762304310184,1.420824988202996,1.1263048222844627,2.0719720144817093,4.357701195960147,3.7508008613328068,7.22554963997183
1570179000352940.0,2.1664858193258367,1.488595435388435,1.4162657776173115,1.1334520073864713,2.0844678436824635,4.352044594194512,3.7676675545404894,7.27631388903505
1570179000367936.0,2.1879459849911944,1.4808422758595694,1.4134069981769766,1.1439550277419144,2.097560564364654,4.352412244282645,3.783725319593563,7.360397290724642
1570179000367936.0,2.2144104540751637,1.4739891647113397,1.412151845448554,1.1543827068143837,2.112199925986867,4.339356496297416,3.803039161468262,7.461982401503294
1570179000369092.0,2.2494983490593916,1.4670392687276677,1.412585986392249,1.1637954461951785,2.1298521081275004,4.341016246157895,3.8312293263854853,7.595402565570299
1570179000369092.0,2.281101985130642,1.4609271238268493,1.414590187670769,1.168933208230369,2.1486064994781167,4.329359203141399,3.847378211351242,7.710044799284039
1570179000389841.0,2.3132650913623016,1.4566533708789682,1.4182881188390413,1.1753951229358999,2.164820268181931,4.315285571974036,3.8412224658412395,7.801804687394369
1570179000389841.0,2.342791800460394,1.453206210605685,1.4245170497371595,1.1837038339596266,2.178787973028064,4.287040837223497,3.827827765349618,7.876544779224315
1570179000391836.0,2.3800627254184574,1.4476140638273383,1.4313888587407047,1.19558909341487,2.1939329966792642,4.27704592600361,3.825701367119613,7.974949786739903
1570179000391836.0,2.4114039997202874,1.4378470881951955,1.4319718507976664,1.2086904880758056,2.2117544021128426,4.266452104317871,3.828224414225261,8.076384844670738
1570179000403804.0,2.442170036786228,1.426835964388348,1.4254882606879369,1.22390915282949,2.232061859883546,4.277370356907538,3.8290658892671643,8.198660600320599
1570179000403804.0,2.4674238141889493,1.4195349488333984,1.4187393883550723,1.2381306070585456,2.255816273990481,4.291736427890544,3.824392518387415,8.318773506853931
1570179000412781.0,2.496418218040231,1.4159262165811333,1.4156501614532335,1.2523016632450585,2.283426964402792,4.3287641437488515,3.8255142856040396,8.465291356092157
1570179000412781.0,2.5190583450760786,1.4130203335230234,1.4141811674632916,1.260605560445963,2.3125157665333442,4.361958474557747,3.830554582124714,8.617447482406268
1570179000427739.0,2.5482746633631663,1.409793193640311,1.412388528275277,1.264247130444289,2.3418436298608434,4.40880350054718,3.8368026797981427,8.801240729414527
1570179000427739.0,2.5776375605647517,1.4063024687409225,1.4102340560079456,1.2658077942717858,2.374775373281415,4.444047136284312,3.841201580620242,8.992766619751334
1570179000428802.0,2.61027591864739,1.4035265416175555,1.4087415486705372,1.2696865599963085,2.4121185626526405,4.487433549708193,3.8439296135165395,9.20534613524929
1570179000428802.0,2.634535999600077,1.403524970415332,1.4088443859795732,1.2737954224824348,2.449559078789292,4.520698790853113,3.842260795145145,9.379897770517967
1570179000449765.0,2.660233766038306,1.4071120417175151,1.4095959239105003,1.280775990939523,2.485589312710443,4.567151211847525,3.8440886021460465,9.501077883727085
1570179000449765.0,2.679489974446372,1.4122585242476093,1.4109501044984474,1.2873573816946509,2.5153130225072777,4.603258883550701,3.8461807210658345,9.563969674261283
1570179000451677.0,2.702651897802467,1.4159284739321436,1.4139476306635665,1.2925393698246415,2.53301177103939,4.643690663059518,3.8437147155994196,9.624820778612946
1570179000451677.0,2.725600801961572,1.4184364609881464,1.4165531884169922,1.2940594953006705,2.5463693843768778,4.6678000760404466,3.843181476089566,9.678382870173806
1570179000463684.0,2.7554870952828026,1.4227362434053177,1.4168788430301527,1.2951142579386308,2.562054298762352,4.700458244836537,3.8518018392810323,9.74553121612003
1570179000463684.0,2.784339315402669,1.431719453775008,1.4178592624517747,1.2978736073179786,2.572204281797862,4.724529839962126,3.8617165851506563,9.825234606526912
1570179000472622.0,2.808899040627516,1.4418910340636617,1.4185278526325498,1.303193069968044,2.5615872681133944,4.7467980851594165,3.873967616537469,9.912163889333096
1570179000472622.0,2.8126924376226867,1.448689860777237,1.414946040544328,1.3056544926111284,2.5274889090522894,4.750888267993867,3.891740146368174,9.960901228515405
1570179000487580.0,2.812230814551032,1.454223502591325,1.41101016884417,1.3084754571412134,2.485417502548312,4.767056379159506,3.9173573301607596,10.00919192345315
1570179000487580.0,2.8078881660703403,1.4584765589649746,1.4087230678439406,1.3118765824028948,2.446669640438246,4.781492431987671,3.936170736561738,10.054964230982927
1570179000489576.0,2.8020870725279123,1.4585999536337628,1.4060573936151468,1.3183110520948318,2.4113110313801585,4.792810607991185,3.942806405467226,10.109521283962959
1570179000489576.0,2.7950081273561964,1.458992492088272,1.4040447451768208,1.325681338345877,2.3760087420409106,4.775600283024807,3.9489696725336585,10.178070223979343
1570179000510521.0,2.798150289439219,1.4621938667918977,1.4016495984114827,1.3326121978321666,2.3415005642577866,4.752053250488947,3.9615512948617075,10.285951741008457
1570179000510521.0,2.806787843631359,1.4672170058050342,1.3969649163654212,1.336976754771778,2.311449920561024,4.713866448245309,3.9761738493387044,10.414084852931182
1570179000511516.0,2.8236438450093866,1.4728127921191583,1.3898506478153656,1.3414997391407995,2.2856626460627623,4.663058867977774,3.9881084444552304,10.566885821034251
1570179000511516.0,2.8413454483006224,1.4772634498363002,1.380352713347235,1.34460418876348,2.2600943000389155,4.600261425699506,3.9897604814482763,10.733902852543192
1570179000523484.0,2.857893048760038,1.4815301312153468,1.3712216922713771,1.3479531616572582,2.2306833625142737,4.556197664103124,3.9931932375620898,10.884759045220237
1570179000523484.0,2.8644161415480545,1.4856453315797375,1.3636427935643751,1.350124400717883,2.199190964391365,4.5253318709650365,4.006136790843517,10.96709796068484
1570179000532460.0,2.8698551648834076,1.48757783003099,1.3534953181750955,1.353878880245972,2.169395762081267,4.510339905789486,4.026357601467323,10.991212672730626
1570179000532460.0,2.870759297226535,1.4887048878453002,1.3407915665490882,1.3595801488979973,2.142192066728143,4.497476351858326,4.052080180042718,10.943574982571691
1570179000547421.0,2.8712463715428926,1.4907541574537757,1.3273141974789753,1.369521366906496,2.1165012526401625,4.501939727798382,4.081180105310239,10.86208419023728
1570179000547421.0,2.8664241792605556,1.492731300654636,1.3131640138688538,1.381886131739276,2.09221514438276,4.513741029287555,4.111201929620372,10.788309123270055
1570179000549416.0,2.858240199806582,1.4926878139954929,1.30021371692123,1.3981000374070187,2.071245839106023,4.533782192874344,4.1350158759748865,10.726056546340628
1570179000549416.0,2.8483637311414127,1.4930187677457205,1.291589754050877,1.4153490486330185,2.054554029784499,4.546747190663145,4.1438094799746485,10.673294268636893
1570179000570358.0,2.8438849269817634,1.495476804953277,1.2883659570783492,1.434405311714068,2.0421037006801765,4.568821861396541,4.14843414466605,10.625360463687116
1570179000570358.0,2.843207487746307,1.5021912426545878,1.2904642572921534,1.453733009690221,2.033852114347008,4.591851971569046,4.157862389071386,10.58455947464777
1570179000571784.0,2.849451653364336,1.5145041717987358,1.2979475832384366,1.4749369598242428,2.029755336642574,4.624844699313659,4.172783048482587,10.565719563257254
1570179000571784.0,2.85803158207646,1.529125062702482,1.308419307352981,1.4964653161827497,2.0307506563415387,4.657341079389675,4.192971572767038,10.567308122499423
1570179000583323.0,2.8702149194920703,1.5410636528830461,1.31918857955524,1.5196364078984619,2.0367349616902852,4.694628038983765,4.212973765329153,10.590520514919303
1570179000583323.0,2.8777808751507936,1.5500722535496456,1.3310403712895091,1.5399914933940566,2.0446637462271084,4.719867622534434,4.239969625663938,10.625952390069882
1570179000592301.0,2.8852483166021807,1.5579943280356796,1.3461459459909302,1.5554369309079328,2.0496380334857767,4.731454161579497,4.266344120010987,10.654332643885052
1570179000592301.0,2.8843565405058866,1.5629265212872356,1.3599520554032474,1.5615257143241787,2.0439745608180355,4.706215905058802,4.263018745235797,10.660158457778927
1570179000607260.0,2.871886182344991,1.56318623851698,1.3692548313392703,1.5562464491724046,2.0268014317079657,4.656319317758381,4.222527525029482,10.654434050728335
1570179000607260.0,2.855437327447925,1.56300726811588,1.3759357020976473,1.542245151281038,2.0048555066423064,4.598221071543999,4.171755869850744,10.660038464381582
1570179000609255.0,2.84604409300695,1.5608762441556843,1.3823597202653801,1.5257662552528046,1.9819183148772765,4.5424025686883205,4.119567579747083,10.68547676468809
1570179000609255.0,2.8397035201730074,1.5543445286488244,1.3891148285620574,1.5097380330340806,1.958871228681503,4.489816225986947,4.072337079422004,10.719134336670455
1570179000630198.0,2.8359850514905505,1.5474236064911904,1.396462312814849,1.4952048417255253,1.935625630357516,4.450769239087474,4.025264144460535,10.761134835831353
1570179000630198.0,2.8303333484725575,1.5419876948495357,1.4011020054031995,1.47966051108644,1.9150977628797299,4.417492902943333,3.973528100313027,10.82646877883744
1570179000631196.0,2.8286489805006765,1.537905433788121,1.4026706662050188,1.463386638526293,1.8992583872095374,4.3919928522991905,3.9167065084977213,10.913191267449696
1570179000631196.0,2.831758505068712,1.5382085214712893,1.404905586439877,1.4479786137540605,1.8870797147518672,4.367970060822608,3.865735987356072,11.003667354414697
1570179000643164.0,2.840173679497976,1.542256108483918,1.410891452224457,1.4345569262797788,1.8775031519707273,4.35178843130296,3.8170049290611225,11.100493580274149
1570179000643164.0,2.8428896157248906,1.5461227739301133,1.4181412604274068,1.422807959356795,1.8675107251970822,4.343631293565792,3.7744232503862944,11.204087321561708
1570179000652358.0,2.8395794197547257,1.5479119692446157,1.4241014401463816,1.4139332800697086,1.8571801352424049,4.344444809680713,3.7341229097225876,11.305889070833294
1570179000652358.0,2.8315496392615773,1.5479571732022441,1.4286387836871288,1.4085649011598356,1.8505273830434525,4.345721077917464,3.7016637278625533,11.374956825241844
1570179000667103.0,2.8257000330759183,1.5462520991729445,1.4340602955651627,1.405899000116835,1.8494359109625944,4.349969355131899,3.676928247154708,11.39353479494985
1570179000667103.0,2.8198547198850363,1.545087361710489,1.4409955322030952,1.4035982160336808,1.8527432489098126,4.352842499271394,3.661032059746038,11.402056237228896
1570179000669094.0,2.81820288028419,1.5460657501563622,1.4486746319060868,1.4000592467147552,1.8583817794215087,4.353132206264642,3.6427531536137043,11.430781119272165
1570179000669094.0,2.819305570575436,1.5481843828340427,1.4549219369419102,1.3960391297962305,1.8663444106554652,4.328963227239533,3.6220783859629306,11.485498136669287
1570179000689041.0,2.8265076214830653,1.5503315653061756,1.4571197639411928,1.3938165109790868,1.876381026508097,4.281850484478446,3.6026241106524703,11.565126492264872
1570179000689041.0,2.836058367237128,1.5527764777691202,1.454284458683216,1.3929842784893827,1.8824551206233031,4.2257685698368395,3.594361355289169,11.666836173781483
1570179000697057.0,2.852653756789497,1.556406329172551,1.4504861827301512,1.3938892014094908,1.882288357192629,4.171360801389491,3.5976154772953524,11.788593736939383
1570179000697057.0,2.8708789552092466,1.5631636547109502,1.4475053945956018,1.3961341621671872,1.8841043740087817,4.120033633896615,3.613851626639215,11.925415033501965
1570179000711979.0,2.8906101309479957,1.5704058590925263,1.441444911189282,1.4010493325049933,1.8902798794061344,4.079761537594182,3.634568189684929,12.058747122930074
1570179000711979.0,2.8990880529445615,1.5736368856164145,1.4293279238575096,1.4060905213812103,1.8957469221164056,4.0485738042462565,3.655832420306795,12.160933652316297
1570179000712977.0,2.8998554150535583,1.5732900802958694,1.4139482965790955,1.4078641459329564,1.9008585897981722,4.023038619226032,3.683219335633985,12.21550545682174
1570179000712977.0,2.900199510414946,1.5727001954554232,1.4001754303956195,1.407191502344585,1.9084532089441766,3.99822807679732,3.7230384325024453,12.264130033169105
1570179000733993.0,2.9103274796014675,1.5744804834016812,1.3889236666455262,1.4073774561153933,1.9162523667312494,3.981464301464401,3.771715943182532,12.335035183581207
1570179000733993.0,2.9223430186798454,1.578347736017215,1.3772599475092187,1.4069478469368997,1.921490476983545,3.9695942230167316,3.828961840487676,12.420550461282813
1570179000734918.0,2.935608184409916,1.5811900881763907,1.3650494146990568,1.4043928867936086,1.92434052870141,3.9614619428851348,3.8925084913998935,12.493404869104047
1570179000734918.0,2.9459539734897,1.5843097659157863,1.355289248636142,1.4024041405884857,1.9240248240998086,3.95098924236434,3.9583522478575035,12.56072317004914
1570179000748949.0,2.9514066789490765,1.5852769127843984,1.34794804434717,1.4021395920123823,1.9237951995043527,3.945668737601179,4.006012880858719,12.593737763038913
1570179000748949.0,2.9412346156766014,1.5819289576493196,1.3420215936096311,1.4003079226850135,1.9263151328523294,3.936386306117436,4.018233601500352,12.579040154053482
1570179000756860.0,2.9315905246738745,1.5793607764815742,1.3375006094456732,1.398362165375111,1.9294640529099887,3.926878133851589,4.01523970340726,12.547139866111781
1570179000756860.0,2.9294852138649348,1.5792015194949256,1.3333243738158238,1.3978945539133545,1.9334307423167196,3.916887061138225,4.019231420056505,12.549501500773294
1570179000771888.0,2.937236627374486,1.5792442950857122,1.3285578357774974,1.3992136676509244,1.9401764849207843,3.9139775540862662,4.02437842164702,12.574415219356087
1570179000771888.0,2.946281748318851,1.5807413523088634,1.3231269480775436,1.401953612371569,1.9504176556357418,3.9149423698540873,4.0308365953621665,12.61754127220832
1570179000772819.0,2.9606050462261635,1.5832717549458895,1.3181708481470915,1.4075158939866996,1.9619311476895898,3.925518088279877,4.045035341440816,12.663355294250367
1570179000772819.0,2.979294833142775,1.5860539526105577,1.3155356868842494,1.417330369458556,1.9729038555557599,3.9349678272595874,4.07300954781666,12.733558248963538
1570179000793863.0,3.0064738673636384,1.5887828737989613,1.3153386886448806,1.428587279481899,1.9842903049456797,3.9523400045220867,4.109902351797229,12.828659048902662
1570179000793863.0,3.030826070225604,1.5886362385150257,1.3163658764117863,1.435182242706612,1.9918471125493764,3.9666730169390125,4.153587007888923,12.959377349256897
1570179000794759.0,3.05410493569984,1.5841825670094658,1.3189101989555334,1.4398499768022215,1.9894116886475421,3.981986878959493,4.195301220811395,13.070093574389563
1570179000794759.0,3.069822307079855,1.5810551679431544,1.3236787593429644,1.4450746308970945,1.9818251445267545,3.9885810031811917,4.2227309425350406,13.10965282276519
1570179000808721.0,3.0869754621833425,1.5825222112417512,1.3308778648727153,1.4492402918010845,1.9758259760977719,3.9895654627837653,4.235768622418864,13.081540265741877
1570179000808721.0,3.1059931941835304,1.5883274627672623,1.3381885573782386,1.4540925765694268,1.9731273470990092,3.9873962625884927,4.252690616857599,13.06460373257278
1570179000816705.0,3.130454839401446,1.596847728390444,1.347229940614865,1.4607681077595343,1.9754250312351784,3.9979319215011944,4.279406345153539,13.066354070240862
1570179000816705.0,3.152390163331432,1.605207434408804,1.3604369254933555,1.4641044340439786,1.9803456816067395,4.0071773403462725,4.312140068105877,13.099744171223412
1570179000831660.0,3.179343769476516,1.6116104857126967,1.3778454733647305,1.4635561869184857,1.9851467267940301,4.024882431300541,4.341715636043548,13.152688489360722
1570179000831660.0,3.2076284164463527,1.6176739549837629,1.3947784742984393,1.4618979319425902,1.9920605885607923,4.0489247682979475,4.370367610346742,13.247015815748934
1570179000832954.0,3.2399139603738676,1.6250040062840314,1.4081623877668386,1.4592226203407723,2.002839920500334,4.092470318253045,4.395409871915541,13.358497754951934
1570179000832954.0,3.264240292359467,1.632455350806636,1.4190394874222705,1.4554127496663063,2.0162350760704975,4.143634263227884,4.426266809774154,13.473233857477059
1570179000854657.0,3.282665388381567,1.6371496559560255,1.431809645364689,1.4524866270462797,2.0303132051222117,4.201643254980661,4.466023687257206,13.544889528686825
1570179000854657.0,3.29097227278704,1.640994201889731,1.4446247933707288,1.4503514819577557,2.0452859545755127,4.240315497618842,4.499224115271541,13.572670482330995
1570179000854657.0,3.2934592990671847,1.6467472183331968,1.4542517447109375,1.4490358805458694,2.0620754550844795,4.2642960142379795,4.501236691246101,13.529086227284592
1570179000854657.0,3.2932442750759083,1.6563167161415764,1.4616564995002712,1.4485096330738019,2.079601517446418,4.270504989133579,4.488713403831019,13.484517443182737
1570179000876601.0,3.300841745631642,1.6688276454549027,1.4702053806654214,1.446806487113846,2.0969339357371486,4.280798322353472,4.480712407270267,13.461888886202685
1570179000876601.0,3.311394965425664,1.6814455624629758,1.479276996072615,1.4449171401587118,2.112166155891722,4.295723620855642,4.486211632797784,13.473473166836232
1570179000877537.0,3.326761476211387,1.6934090018030272,1.487362529414189,1.4437920038703123,2.1237655598578855,4.329023353164511,4.501348729599817,13.47995104661156
1570179000877537.0,3.3388245167313513,1.706031837976599,1.4942910111808232,1.4425031102294557,2.1340519204872312,4.3726021125677965,4.527651329545812,13.502837594522378
1570179000891499.0,3.3491795717589206,1.718110770216002,1.5024806066567955,1.4399909662324197,2.1449777710096756,4.437352837826508,4.558014690964637,13.52607961824925
1570179000891499.0,3.356380156320069,1.7314659521073266,1.5134382845055505,1.435320241759664,2.1585025582149413,4.5082552775883205,4.600461159744238,13.575732233715332
1570179000892532.0,3.369988084710347,1.749254264762507,1.5272817093655044,1.431263398515532,2.1762152747100716,4.5915530980638595,4.638647879253954,13.630248121743247
1570179000892532.0,3.3804256808874578,1.7677628997381787,1.5397119525973813,1.429982793270932,2.1929436609048523,4.671409725573702,4.658398244151192,13.680789652928096
1570179000914438.0,3.3866966123458275,1.7827882173523852,1.5484463007171623,1.428418229453643,2.205316824145299,4.755989613181424,4.658857464542881,13.651244731388967
1570179000914438.0,3.394437109766434,1.7993839213821343,1.5554061963045902,1.424692462853509,2.2155012016348623,4.82938541134776,4.658941235900452,13.606214937142816
1570179000915435.0,3.4114861856880085,1.8193989459112723,1.561775986846345,1.420502617950142,2.2195929772644525,4.883672913179441,4.6547701915354995,13.568686808209076
1570179000915435.0,3.428439628954898,1.8405971926368814,1.566428658855273,1.419023461422912,2.215106343492242,4.913096750297971,4.647717376190572,13.558956299104352
1570179000936493.0,3.442587775897784,1.8598364896429513,1.5676237775450725,1.4201648587425484,2.2070565421176984,4.94777220183431,4.634901922934682,13.506169076279074
1570179000936493.0,3.4502167122011342,1.8759829790457292,1.5643760796515471,1.4212863652516725,2.1991276289291664,4.973686899969602,4.627736238214007,13.403622876460053
1570179000937678.0,3.4644129136294253,1.8891258502131318,1.5596334591570458,1.4181879355305063,2.189178670883792,4.976157785863441,4.617626490536182,13.245888466738526
1570179000937678.0,3.4844556303841854,1.8988712902366802,1.5543196086825115,1.4109151835161926,2.1752374352891364,4.954324834002264,4.608633259663006,13.108065414653906
1570179000951431.0,3.5119117188202438,1.9073851494808618,1.5483523556265273,1.4029638780080311,2.1621465670319315,4.938568424134335,4.596313118279728,12.967997657841764
1570179000951431.0,3.540476522981608,1.916270472116649,1.5418507320487533,1.3967259455754555,2.152721569091306,4.929037723489044,4.594143099508162,12.857168800251557
1570179000952338.0,3.5673110770686898,1.9202630232815519,1.5307692458871889,1.390967929075302,2.1468957399476345,4.928606224138708,4.593951749228401,12.724561383301591
1570179000952338.0,3.5866479501939255,1.9186659642515307,1.5139670445006952,1.3841144706996427,2.1456176182522833,4.936719691952514,4.595288089505599,12.601648754614303
1570179000974343.0,3.6097671000508584,1.916509434377155,1.496842336602193,1.373688404147215,2.1488567188081005,4.956501627421051,4.593945561957819,12.462823607492119
1570179000974343.0,3.6321448162697894,1.9154484404046503,1.4817840902984458,1.359822784864378,2.1556170916607535,4.97829772589671,4.598022620976115,12.34181895212778
1570179000975276.0,3.6545081270472863,1.9143699302181973,1.464597488469323,1.3448123925708269,2.164940305541003,5.009901062219469,4.577446890286341,12.181357869973485
1570179000975276.0,3.6813770153358707,1.9165360244265042,1.4442504565883132,1.3311645648582406,2.1758938136559203,5.044345710966361,4.538949518267866,12.019101405048557
1570179000997217.0,3.7198172951945523,1.9231412694620296,1.4221405269181382,1.3174776533449635,2.1836620947455807,5.0805747377869634,4.483571897855276,11.83478883535608
1570179000997217.0,3.7616408274796775,1.9310623373256648,1.4004273406074053,1.3040511459291506,2.1873374310387996,5.121979614587367,4.421842833472591,11.663653166602545
1570179000997352.0,3.8122663352847312,1.9375116982380063,1.3807680867806005,1.2924310533131986,2.1928415150811347,5.177334491137266,4.3501108399437305,11.470943624157595
1570179000997352.0,3.867253427675373,1.9442828376986414,1.3645801173833048,1.2831162824216076,2.2013184610729337,5.2243821046735714,4.282072069120154,11.299478919174684
1570179001012177.0,3.930108186429223,1.9561531794407836,1.350673075862029,1.2757286708136921,2.207126439036283,5.234606467323579,4.21011161928995,11.09999001284768
1570179001012177.0,3.9985254883921533,1.974651074108074,1.33922990033229,1.2716288827320334,2.2044597876478913,5.204143202595834,4.148917594854005,10.91853545071945
1570179001012177.0,4.075319690139683,1.9982045028750435,1.3320845262860166,1.2696121155487363,2.1930171137471937,5.1598517722126465,4.089350318069355,10.723485948042862
1570179001012177.0,4.14946686887883,2.0247303021437735,1.3304975673139663,1.2688583015657884,2.1783173362928645,5.121808511521835,4.041203170479299,10.55024683223513
1570179001034233.0,4.218482027532573,2.0502867458271044,1.3344002153719399,1.270170807714334,2.1644591013835766,5.090388083555741,3.9932683426054263,10.359413257534548
1570179001034233.0,4.285179693948252,2.0747445775314213,1.3428190627804133,1.2727128601050308,2.146749008809814,5.057032683097775,3.952098624907557,10.191799066226146
1570179001035117.0,4.364842455475983,2.100989535745448,1.3536784451330304,1.274368608517941,2.1215419110809823,5.021487375095674,3.901879326982581,10.006029977041939
1570179001035117.0,4.456195380622355,2.126849773969366,1.3649358836522334,1.2771701095757861,2.0940562309242696,4.98766346770849,3.85676568604713,9.844927321337508
1570179001049078.0,4.556346358336947,2.1469141206810383,1.3746573283950076,1.2821018014040058,2.068412465195751,4.952875478567478,3.809589896707353,9.67068471822944
1570179001049078.0,4.656598096071765,2.164143443783493,1.3818700002321471,1.289162474906606,2.042848135726189,4.922375773033467,3.7664942383578226,9.526530285487816
1570179001057058.0,4.763615587120467,2.184265172713733,1.3886592078215587,1.297378327215704,2.015033584033201,4.89935990988875,3.714836867294116,9.38005325391695
1570179001057058.0,4.882700312531914,2.2089837115904105,1.398946028091348,1.3037540629904285,1.9864516331196507,4.881855364194567,3.670572945408639,9.27425229849269
1570179001072018.0,5.000963003951561,2.2342015194644476,1.4137338501168872,1.3093859105498498,1.9600171814000114,4.866677799810596,3.6273112013650173,9.166201278765312
1570179001072018.0,5.086890119351496,2.251763450425579,1.428084206011747,1.3152079563302845,1.9368476237258854,4.861780385378864,3.5951974739064547,9.090493786979355
1570179001073015.0,5.133703128072347,2.258492334303959,1.434373954527994,1.3203173483151043,1.918040400203856,4.863569296602774,3.5574104622956653,9.009850970524939
1570179001073015.0,5.160333114447501,2.2604419643500573,1.4307195458537276,1.3246815361689845,1.9038662809431648,4.865397892031744,3.5240556727717745,8.967273877025791
1570179001094005.0,5.178349550008679,2.261461423971052,1.423774038314975,1.3283740302855782,1.8924631409741386,4.858808083977527,3.4902342160662156,8.933512314526068
1570179001094005.0,5.1892293466020485,2.2587208988600476,1.4194514368846842,1.3303791682617847,1.8817589640631391,4.849538280307743,3.4704461748547843,8.95377263761613
1570179001095108.0,5.185727199652851,2.2503979251144695,1.418712548342465,1.3307542499630554,1.8704608562269862,4.843787975191901,3.4526790667762244,9.008193913327721
1570179001095108.0,5.164921387131642,2.2334265663251873,1.4197750842333812,1.3314455435180088,1.861294109192763,4.852359088087733,3.4433871391037156,9.12029007799117
1570179001117895.0,5.108876392711076,2.2070116502094392,1.4195681948348429,1.3334686901071768,1.857485883704831,4.873450497110401,3.424134306223228,9.18366518807849
1570179001117895.0,5.036298462762644,2.179066176276018,1.419183049252512,1.33778485829262,1.858291417992003,4.901505271668464,3.4052049831477316,9.207937249988237
1570179001117895.0,4.9620331156188024,2.152121639046999,1.4175873986967191,1.3434429775088588,1.8627319927913515,4.927126840896578,3.384967722406608,9.20047409702241
1570179001117895.0,4.896506380417513,2.121766114701768,1.412892764256628,1.3494455355120385,1.870877849561382,4.94622405264376,3.3787746439134048,9.212174180284139
1570179001131970.0,4.831415220016955,2.0903675584667933,1.4068005949748206,1.3568396328428314,1.8809003052301563,4.9412463718939685,3.3652944725931135,9.175893905150142
1570179001131970.0,4.777133251787359,2.0597981641489214,1.3985817472239563,1.3646415118746875,1.8888310885341018,4.916802862417187,3.345882017720543,9.129024058494496
1570179001132855.0,4.723455425655604,2.0302109768306016,1.3877472070528147,1.3719343411431668,1.8934300066834193,4.889777378170478,3.312294092510337,9.063827205427112
1570179001132855.0,4.6788355968884465,2.0017503604936215,1.3774833761596736,1.3787882306123753,1.8985572319728046,4.876653683644877,3.2846865236636082,9.030720077358728
1570179001153799.0,4.627525166527879,1.9698264046227538,1.366708375063668,1.3842737111185892,1.9055806355030498,4.8630390627030184,3.251591007842735,8.979034951859509
1570179001153799.0,4.571875563662676,1.9314411427331257,1.3525948786807682,1.3856025777166556,1.909737016644818,4.844079648976335,3.213694790737042,8.923817136927559
1570179001154889.0,4.504098491684394,1.8936409133998289,1.3363570871220123,1.3816321295476766,1.9098718617739232,4.815266801675574,3.158193371105764,8.825988177880165
1570179001154889.0,4.44216356060403,1.8603339288866976,1.3213629515981153,1.3733948464545231,1.9050809472805206,4.776224989112075,3.1031983655206092,8.735581727358749
1570179001168760.0,4.374610277121368,1.8283833536561662,1.3064047401035292,1.3624124012976426,1.8919528327325723,4.71491656728796,3.038816966323612,8.606505868395876
1570179001168760.0,4.312290539097358,1.7957185714060175,1.290751282947634,1.3528153069937932,1.8745790245733709,4.654973410682161,2.9806778512972465,8.481571684094726
1570179001176737.0,4.248872771562067,1.765184051480016,1.2739004734479065,1.3444758590158101,1.8599566340165465,4.6017764932758345,2.91829256433353,8.336413325833455
1570179001176737.0,4.199057852096005,1.738140842966927,1.2561158688226521,1.334716505141948,1.84871234892469,4.556484865653519,2.861808957150318,8.216473724813376
1570179001191697.0,4.149215996014153,1.7132427235122267,1.2368345774345433,1.322986631647394,1.8370526480200369,4.502006981374608,2.7999875961083083,8.072219192390822
1570179001191697.0,4.114315998410581,1.6891154376612887,1.2182175571279656,1.3115026193952732,1.8226626742501733,4.448345721258909,2.746219665687921,7.943168062479948
1570179001192695.0,4.081821275935551,1.6651032592743629,1.2020343069040036,1.300924108688433,1.8060560212100214,4.386635381388739,2.685135810973979,7.793728256012
1570179001192695.0,4.0490908247241535,1.6386838077249923,1.188741751380706,1.2916386293669027,1.790939571863424,4.328134028744097,2.6302884581263317,7.665401506863766
1570179001214638.0,3.98384184730686,1.60918453143953,1.178110323401298,1.2823251103881008,1.780673245522588,4.270601783432818,2.571238396519742,7.51152726871994
1570179001214638.0,3.90875127028171,1.5787435726595347,1.1704205631477653,1.2721997256549646,1.7747496532880007,4.223156254678667,2.518096354730492,7.371800065331603
1570179001214638.0,3.8267479964138778,1.549016585620275,1.1654995301583406,1.2627895702572387,1.7705721062466675,4.170935064749806,2.4585631499140512,7.206212965069472
1570179001214638.0,3.7557248044185427,1.5186401041841515,1.162507794616538,1.2564860868886016,1.7621942944332156,4.114392293884428,2.4077955715589465,7.058276926944821
1570179001236611.0,3.680693885092447,1.4884949901449271,1.1612691312595242,1.2521189550828755,1.7467795137864448,4.044300050876747,2.3535426532081196,6.886975303437874
1570179001236611.0,3.6145448748577778,1.4593942957592019,1.1618589423027654,1.248896915468157,1.7276622294809523,3.97486149276704,2.30583919579593,6.737022462041883
1570179001237574.0,3.539542029343528,1.431725471609623,1.163201454262214,1.247573130859872,1.7076991386809999,3.9061744306359736,2.2538471958230732,6.570277807842411
1570179001237574.0,3.473186558229233,1.4053319487194627,1.1672774170668134,1.2493586489348987,1.6889020478032277,3.8524701132729198,2.2107804092892382,6.429452276174982
1570179001251539.0,3.3999654799896275,1.3795504033204886,1.1730584761092708,1.2541455426341637,1.6723828941307892,3.803582091692491,2.164384616311945,6.270621830139243
1570179001251539.0,3.331493767647444,1.3537579139025542,1.1775227934253538,1.262049194058614,1.659263539527079,3.767607958748909,2.1255415664010315,6.135753946276303
1570179001252535.0,3.2538753293414815,1.3293401729085594,1.1827281457946999,1.2720171871786345,1.649822930306894,3.736054727987234,2.0815249061001477,5.9828284520459984
1570179001252535.0,3.1855109315105365,1.3043797287816645,1.188536794161918,1.282143820561009,1.6422272039786099,3.708142237794501,2.0454121336484596,5.849749375274688
1570179001274536.0,3.1081179141069475,1.2764719409025456,1.1910855829979146,1.290437311861381,1.6343257944934935,3.6725995213563642,2.007248951140722,5.688791550146241
1570179001274536.0,3.034870347840708,1.2465535568560475,1.1894226187474761,1.296991545676145,1.626808720610887,3.6399372551065228,1.9784425952732867,5.541705298220292
1570179001275473.0,2.952511240660291,1.2169367268607332,1.1866016742791499,1.3018026718487157,1.6227371674068403,3.608514426784972,1.9464088454257957,5.372961346935081
1570179001275473.0,2.8802260848622705,1.187390473000904,1.182500376189237,1.3020515328754323,1.6225976803224844,3.5804688432425094,1.9175428429189527,5.228263081477651
1570179001296913.0,2.8006434112233194,1.1600262234832883,1.1752311782585552,1.2974709431381999,1.6208226758860327,3.549611810743127,1.8803326430773457,5.067003729967439
1570179001296913.0,2.7319698752674157,1.136213859162924,1.1677405370423786,1.292033404464702,1.60999785763129,3.526833772380709,1.8463541771156387,4.929615819883739
1570179001297415.0,2.659231757164976,1.1143548042169216,1.1640064873261948,1.2885424374984176,1.591048171143422,3.51133438124604,1.803770053778903,4.7737057074022715
1570179001297415.0,2.5959262586294267,1.0940080081167414,1.162830732308502,1.2872976598154569,1.5705072412797452,3.508468678846167,1.7643345628271032,4.639384806205446
1570179001311378.0,2.521473907906857,1.0773908970425463,1.162283769064579,1.28615192736217,1.5525912866047074,3.512352536759951,1.7210677418236278,4.485242509049072
1570179001311378.0,2.4519504186633343,1.0656864343253618,1.1602237518221998,1.2852755139812078,1.5386141138977596,3.524376314253724,1.686793429071291,4.351888489443382
1570179001312375.0,2.3740679421141437,1.0581744196035567,1.153881905548949,1.2845113938576418,1.528825311842209,3.546698607604317,1.6522779884991547,4.202000148929029
1570179001312375.0,2.3038742577450626,1.0516474075033213,1.1442445413100313,1.2821210371234928,1.521489325088892,3.5817770944218497,1.6268605705795889,4.074797891695166
1570179001334316.0,2.2244120438746715,1.0448937045477633,1.1334380628640257,1.277728039206616,1.5115570263282099,3.6248586466941877,1.6009572838058261,3.9294356185572115
1570179001334316.0,2.15442087859203,1.0387999556535752,1.123367704095678,1.2735398691272999,1.4974972941089861,3.6730014734990566,1.5817636933670296,3.8035244801034023
1570179001335314.0,2.080365794285223,1.032353044309384,1.1171464019886217,1.2693773732158529,1.4840557137348676,3.729514561529313,1.5596229855016204,3.660721892846182
1570179001335314.0,2.0187981212272175,1.0265905308755143,1.1144290826338885,1.2635667174761154,1.474452411961227,3.796601621267888,1.5432084990909618,3.542225007090057
1570179001357256.0,1.9527267655016356,1.0234910911478285,1.1143873361175491,1.2556299592706222,1.4688653343972553,3.8761433961870244,1.5227452044443235,3.4134147651581266
1570179001357256.0,1.8965739861717934,1.0220104885564472,1.116659285300521,1.2468752627529993,1.4663700415011767,3.962567165553032,1.5071292318161187,3.309643410913813
1570179001357256.0,1.8363586618918435,1.0211200424806648,1.1203794437389585,1.2359208699978361,1.4649481984821486,4.04563107912431,1.4914209294183074,3.195662155293007
1570179001357256.0,1.7872133666758478,1.021994364389089,1.1232136538968143,1.222924816666664,1.46353022424521,4.116954872122856,1.4838615363687904,3.1071372911985056
1570179001372216.0,1.735214846795876,1.0253783904255775,1.1247199423884102,1.2093281800359734,1.461087544224863,4.180423481149276,1.4786945901271409,3.012837992598501
1570179001372216.0,1.6943881680744857,1.0302047386351918,1.125691356802032,1.1965609121799554,1.45557062791818,4.236684630026644,1.4794617734607851,2.945638411307475
1570179001372216.0,1.65279219831262,1.0354466872631312,1.1275158641378005,1.1842309063989025,1.447893713357106,4.280874851403484,1.470431356389712,2.8763675135896483
1570179001372216.0,1.62410005022815,1.0424767946870837,1.1307641325329225,1.1727228969071726,1.4410394495947156,4.314401008489987,1.4545942345303464,2.832971248582338
1570179001394158.0,1.5924574397061098,1.0528604834334687,1.1365752702213723,1.1616317315368385,1.4360299277435395,4.346034907089132,1.4323905231998713,2.789463396549865
1570179001394158.0,1.5670188839721408,1.065946743993528,1.1421737569617885,1.1513100641892335,1.431871077646792,4.3711080958459485,1.414919912259707,2.7710915688962756
1570179001395317.0,1.5368124579119986,1.0771160317781854,1.1452456082055784,1.1413836306115985,1.4285694626137841,4.36641490768158,1.3979217738556937,2.755826065713288
1570179001395317.0,1.5122712730676484,1.0846840169448435,1.1448395133287756,1.1321679288242117,1.4271142144443967,4.325322462165686,1.3871327684236223,2.76558287095129
1570179001417134.0,1.483703857636645,1.0922765582493208,1.1439542505218652,1.1233483954111534,1.4274973890291847,4.25305196394472,1.3773607343520273,2.78324471586309
1570179001417134.0,1.4619590520710597,1.10248342287208,1.1460345227116269,1.11422244300672,1.4306660895904375,4.163002863157574,1.3728867442587265,2.823234568353422
1570179001418092.0,1.4381740285755584,1.1134605914402325,1.153024477510133,1.103413655821852,1.4354909041131396,4.059702833891577,1.3703388424906693,2.868476057991164
1570179001418092.0,1.4216531964568688,1.124582222447312,1.162734053617501,1.0920589282445257,1.4399585422017445,3.956978657499707,1.3702298996981923,2.9247334140876884
1570179001432056.0,1.4072433879314072,1.1356074606376267,1.172565747516928,1.0809328015096618,1.4431051007090145,3.855805719993599,1.3679265559824283,2.977372724231678
1570179001432056.0,1.4020883959665091,1.146663193177124,1.180312394939023,1.071222788547184,1.4450181277796827,3.7646287053552285,1.368857755431663,3.036443551075434
1570179001433052.0,1.3958801218057868,1.156338525329608,1.186881032875514,1.0648525432980955,1.4466076180323384,3.6811232810197443,1.3734168388874792,3.100953906189162
1570179001433052.0,1.3923104089542044,1.1643180024904236,1.1918756502984234,1.061956024058192,1.444851360726864,3.611707588948654,1.3835771286227718,3.1771502989394222
1570179001454419.0,1.3871837216996317,1.1705999866604904,1.1970940670224728,1.060478369247997,1.4390734847388296,3.5489201260227423,1.3983553835056473,3.262245318111571
1570179001454419.0,1.3846951664271454,1.1758302953250104,1.2027671343204673,1.0593560125294998,1.432342147522744,3.492276918706002,1.418454451143458,3.3587778412307103
1570179001454994.0,1.3821592000717828,1.1809218044002612,1.2092873595246714,1.0586555703889262,1.4256019772931365,3.4416120319600023,1.4426749755305157,3.466991658247111
1570179001454994.0,1.3837138615219995,1.186909340448242,1.2139870571555629,1.058262462232077,1.419839466347252,3.4039707540473794,1.4696949761140827,3.5863781808059394
1570179001476935.0,1.386189066858998,1.193082873547065,1.2173600501451587,1.0593537047541404,1.4149394397551383,3.3803045410948687,1.5013190873959057,3.721900495969077
1570179001476935.0,1.3891101519012488,1.1985287754642515,1.2230851585966775,1.0616297049014507,1.4099972416337434,3.3719218514177696,1.5373769940788702,3.8710637813206086
1570179001477933.0,1.3914438967842062,1.201443684308237,1.2339804326232837,1.0643596994326578,1.4061210033784795,3.378035097140207,1.580244956939723,4.038531071215197
1570179001477933.0,1.3957028652844565,1.2034868393038065,1.2474866103957516,1.06722282183241,1.403293570958209,3.397762992108603,1.6265342466040176,4.215551660843697
1570179001491962.0,1.4034621658804827,1.2076261935390278,1.2610535545393298,1.0696221944905242,1.4018348989358698,3.4328250934020517,1.675515424867747,4.408953943760991
1570179001491962.0,1.4149212413513386,1.215185565535117,1.2715335508004306,1.072314070301122,1.4049177480556474,3.4791852946735133,1.726008468234723,4.609483977846917
1570179001492894.0,1.4339207151831406,1.224136275650038,1.2804382583085758,1.076607220044309,1.4141636883871727,3.5382370017982137,1.781344074473911,4.822400045374129
1570179001492894.0,1.4576216089297342,1.2343541999170493,1.289285717500976,1.0810659326426721,1.4290910140571174,3.605719964570521,1.8356259838466953,5.038800179362032
1570179001513837.0,1.486945965330175,1.2467199623676726,1.3003267406236294,1.0873062085802614,1.4481172219266845,3.688685003573316,1.892824559229913,5.268796959173902
1570179001513837.0,1.5171177035958794,1.2620692352674574,1.3102690055967003,1.095586156685541,1.4680019122907593,3.782924817021101,1.95373580660279,5.506852119334076
1570179001514884.0,1.5536875364249014,1.2795235616746385,1.3177367373051654,1.1052594017629753,1.4872658725550438,3.8950932097839845,2.0219114952125805,5.761755860024709
1570179001514884.0,1.5922302315802752,1.2986901321050854,1.325620493800605,1.1137956384416436,1.5073680930451432,4.01747380107388,2.091706921937988,6.020761057430154
1570179001537221.0,1.6369437350551375,1.3159956024232524,1.335974231934262,1.1221016202676104,1.5301440925388938,4.156677293148965,2.1659168857288655,6.26911366488631
1570179001537221.0,1.6819371661151359,1.3324807987688365,1.3469179949162153,1.1295459588510035,1.554918398439887,4.304136302912995,2.242232573858195,6.464120031440226
1570179001537772.0,1.7341166434219182,1.352578344954801,1.359225482973691,1.1371477024367775,1.5787667227627962,4.4658167972075455,2.324744994499976,6.596041911657439
1570179001537772.0,1.7853431826506392,1.3778703833275718,1.3721423094175165,1.1462681908025365,1.6025745445272321,4.632025627405365,2.40876846815699,6.681914164370128
1570179001551736.0,1.8426587032492043,1.406605307871047,1.3863705093168401,1.1585194632342615,1.6300125932525347,4.806786813210181,2.4953470704409493,6.761517215501143
1570179001551736.0,1.8990198154571403,1.4382992703957638,1.401238485019685,1.173986261913337,1.6592734983286455,4.961164403215887,2.5734516551356803,6.85609943354768
1570179001552733.0,1.95810407620847,1.470423339824516,1.4184163246485206,1.1940440295358816,1.6802173613604552,5.063145737182421,2.628689834151527,6.963310995781652
1570179001552733.0,2.0113448599660866,1.5015088916998773,1.4375857678625314,1.2163086083242844,1.689318476516522,5.10506071984327,2.656509692284878,7.066800115855596
1570179001574688.0,2.066806763363579,1.5302155157496673,1.4558847678338602,1.239499601070365,1.6974359972960045,5.137526439700458,2.6774063219086273,7.157324705777856
1570179001574688.0,2.114002846388775,1.5550011841140274,1.468304198278676,1.2607295051808496,1.71086093032134,5.179219088229371,2.699916472664984,7.244022860296342
1570179001574688.0,2.149116938456374,1.5736861939901183,1.4735108635059742,1.2771997319354393,1.727352385382264,5.2240618010005315,2.7197046906104783,7.334670092061873
1570179001574688.0,2.1581831417783386,1.5867801659442173,1.470889011438862,1.2863977055114455,1.7446375834679255,5.262004861221455,2.7313054297024584,7.43182708521212
1570179001596650.0,2.1558844121362606,1.5960847975454429,1.4635427315943492,1.2939650027633964,1.7608159002417503,5.303764887551122,2.7335625330284983,7.5187128745951375
1570179001596650.0,2.1482777937701236,1.6059309897350302,1.4558373167714345,1.3035374431032116,1.7750063490148893,5.348109963092271,2.722206039026557,7.566009622216347
1570179001597612.0,2.147206501213847,1.6179006980254562,1.4502600917067043,1.314983448574712,1.7843440332619245,5.380989762810622,2.702627244745291,7.55735349864836
1570179001597612.0,2.1428805928061334,1.6321226745220023,1.441001787571279,1.3224145148449686,1.7869535128725282,5.3871295476495105,2.6842635795634213,7.52403584410908
1570179001611716.0,2.137366392121774,1.6466607939826043,1.4253356458562478,1.3225982332088153,1.7857603889764495,5.386009504569023,2.6684453977863756,7.4831303597113115
1570179001611716.0,2.1299073517392917,1.6615800118802349,1.4091722574806083,1.31882938388226,1.78487218696141,5.396637270684525,2.6556747848243654,7.448300865631544
1570179001613154.0,2.1298871991931443,1.6773069063216326,1.3960346330797284,1.3174331466851747,1.7877486680427888,5.417483226595493,2.641406098009958,7.403947516398859
1570179001613154.0,2.131751514459841,1.6966088933899333,1.3823059604579355,1.3191475843099167,1.7944748182394368,5.436680869052632,2.6211377821663095,7.355586428948156
1570179001634602.0,2.143378394860785,1.719444562282105,1.3674617203428194,1.3232336372744338,1.8025024059128847,5.443530432747221,2.5972320317587436,7.286081928867804
1570179001634602.0,2.156906819270162,1.7443581214893435,1.3521492382454352,1.328041173106985,1.8078602260824763,5.429891728970494,2.577406361586409,7.213429685759202
1570179001635514.0,2.1757067831527492,1.7702430308665373,1.336597160449117,1.333119998432755,1.8085631956746548,5.407483417684017,2.563851869320081,7.137675048588518
1570179001635514.0,2.1903594119994896,1.797736677889492,1.3214663395190178,1.3370309230301212,1.808320858364728,5.397592589970529,2.5568716368187263,7.0686888667982
1570179001656461.0,2.2092356267326845,1.8263220637913051,1.3068612140238962,1.3403775667085942,1.8097485091145702,5.403045411094066,2.5525151512074573,6.993956062260195
1570179001656461.0,2.226140663325012,1.8564355993500152,1.291539517252551,1.3416413125934061,1.8126694722783405,5.4141020904620065,2.553589313166705,6.925550689107334
1570179001657685.0,2.2503188132411953,1.8874868832049034,1.276870669460293,1.3405272324096908,1.8180217073804652,5.431660358929452,2.5604587754201953,6.839119602343877
1570179001657685.0,2.2756151681018504,1.9196340749309029,1.2634526005927935,1.33667973976759,1.8255055491738124,5.4598661670993955,2.5710359858365432,6.749583357946542
1570179001672420.0,2.3107405162947243,1.9511012386191382,1.2515533923101605,1.3307075991481694,1.8342581626530339,5.498784225153714,2.5864529202914106,6.651941456831087
1570179001672420.0,2.346555033472598,1.9812502813127784,1.240876625693645,1.3242545627011082,1.8455048264163454,5.552536860457805,2.6097020714444255,6.561785901170727
1570179001672420.0,2.390481534867784,2.0105222817675554,1.232911428952938,1.3195366630068082,1.8610549462055974,5.618372453225544,2.6384089316997272,6.463842671090743
1570179001672420.0,2.432127679589781,2.042579267659868,1.2290987522690358,1.3159995510582507,1.8812721197795526,5.692548615715217,2.667725024614219,6.3781898452409855
1570179001694539.0,2.4830616189387236,2.0786229746063247,1.2294008342713287,1.3149516715459177,1.9036806416703014,5.778398295552489,2.6890212591802394,6.295325383064135
1570179001694539.0,2.536220451918762,2.117525090205631,1.2311597955567168,1.3146959546115906,1.9265286640836656,5.872604078495852,2.703892249308349,6.23128704976491
1570179001695370.0,2.601017116957574,2.1572204334437353,1.2340267398814642,1.3137907393325425,1.9497675013305824,5.953239721938022,2.711481660571109,6.170214574231702
1570179001695370.0,2.6655368553721046,2.1995613353904413,1.2375473166992914,1.31186691924611,1.9702638791159965,6.004517959520741,2.710306200625576,6.126361433814615
1570179001717293.0,2.737866391095743,2.2453427615785317,1.2423955183987252,1.3084642855384074,1.984913310448149,6.036943982771783,2.7074460905366458,6.078915669431697
1570179001717293.0,2.8065327660392527,2.2933574557526133,1.2489761223407851,1.3043658878385112,1.994732122882323,6.064002835952462,2.7095352720179537,6.037234347905005
1570179001717960.0,2.8825865162474225,2.3438399286553886,1.2575714650123404,1.3018613340526644,2.003101020462483,6.096794860604408,2.713443924750092,5.987499222278863
1570179001717960.0,2.9587746412913623,2.4003315134722802,1.2665894238621092,1.2993862049572291,2.012556670622092,6.146439503256571,2.723349633310124,5.9427837738840825
1570179001732258.0,3.0482324553713656,2.4619529657875616,1.27670762843156,1.2976150380609535,2.0207746325569467,6.206954969231763,2.7413598613948906,5.892448391383506
1570179001732258.0,3.1412624484785785,2.5262389931967872,1.286338360069404,1.2980519181769243,2.027360596070334,6.279597097878724,2.7684125471507377,5.860282795964025
1570179001732258.0,3.248184933774662,2.592419837861906,1.2967287213532308,1.3019276244260758,2.035228413181214,6.362103075988979,2.8007039704118792,5.837625825421274
1570179001732258.0,3.3564359602340987,2.663652374993562,1.3093380515043942,1.307488288779246,2.043075204749628,6.455446711549926,2.8373431609304154,5.836576498686859
1570179001754232.0,3.476265355899204,2.7397152911068616,1.326434410930641,1.3142676467527183,2.050326435779635,6.554772152694562,2.866871960635904,5.8394443837155885
1570179001754232.0,3.5980732380049836,2.8190036374287546,1.3464352854535593,1.320641424730711,2.0601478707544074,6.647016152226315,2.881761747021293,5.857857796516539
1570179001755196.0,3.732782412943652,2.8997328253563404,1.3679095618962196,1.3254005171381924,2.0749989923595025,6.725918242789579,2.890760916403461,5.878528033135884
1570179001755196.0,3.8692589422910055,2.983582591254897,1.38938608464485,1.3284676229478958,2.0923405216104545,6.813554588945696,2.9018008763615226,5.912368209349104
1570179001777253.0,4.017452048514652,3.0714997518111318,1.4118106921029856,1.3336133593502038,2.109610953101293,6.913679130248502,2.90921110519301,5.952777291005305
1570179001777253.0,4.1657512998995525,3.1626171220958867,1.4344141558375187,1.3418113779817973,2.12992597165732,7.012645324978795,2.915266647970933,6.0191502477600425
1570179001777253.0,4.323370923616035,3.254496948547256,1.4580114867199354,1.3524005719198755,2.1516049688579466,7.083265953861377,2.9159425707220974,6.098737752478054
1570179001777253.0,4.478586189573414,3.34662870386965,1.481668422743025,1.3637901329937663,2.1671648824846437,7.125487156869813,2.9097711114614424,6.1876813998074045
1570179001792095.0,4.639619413722006,3.4398552923119716,1.5051882324128378,1.3767061355528336,2.1767903835147617,7.145310045686449,2.8902822783236535,6.246920753159208
1570179001792095.0,4.799784779536207,3.535789875818037,1.5279559788034098,1.3904486391924615,2.1864060904608467,7.157071334067266,2.8661857231173156,6.279163863283096
1570179001793092.0,4.969143118457122,3.6310369036651267,1.549374517972727,1.4056975523599111,2.192582152117948,7.1451173990850405,2.841620141615182,6.28594277673104
1570179001793092.0,5.137484944115537,3.7239188714080824,1.5662617344887664,1.4216024608355509,2.1880839642829963,7.125692290232124,2.8204089837751987,6.300406685649662
1570179001815254.0,5.306650239361269,3.8118730282903406,1.5788370848164037,1.4367779915500565,2.177375476115201,7.106235154022721,2.8000933729696404,6.317144139453759
1570179001815254.0,5.455234158220858,3.886964509782745,1.5840788685429907,1.4491244780825194,2.1670311245787155,7.091254736382474,2.7863553970705577,6.33790494677626
1570179001822059.0,5.571358267648354,3.929682208441717,1.5838793325482468,1.4617002250280562,2.1596755732764414,7.072563499569782,2.7778122542863426,6.318453700986423
1570179001822059.0,5.619672664666444,3.918036977904099,1.5806035581406743,1.4744976871483613,2.156044282193297,7.069013772464467,2.7755880309923238,6.263216040907159
1570179001836975.0,5.606272551034514,3.8678084892150557,1.5748741403407658,1.486335595106099,2.154072511287384,7.0616244295797514,2.7702404143979362,6.16620485723003
1570179001836975.0,5.577240257745524,3.819184081079244,1.5692839188628913,1.4980653997871596,2.1527802908831677,7.0448593908404575,2.761397877884842,6.057611750699128
1570179001838009.0,5.556212271340912,3.779826409101267,1.5657225533896832,1.5130569654462827,2.1511970040257564,7.021473744302063,2.7442516452989474,5.934405753415548
1570179001838009.0,5.5292263807223865,3.742390919563826,1.5635350066691167,1.5292842165255445,2.1503188763394276,7.013590174658214,2.7280966158317805,5.818817533910998
1570179001851198.0,5.501786518368583,3.709146200826469,1.563920641927648,1.5466860941010452,2.150124625948754,7.002409827237991,2.7160336899636714,5.6891916969852305
1570179001851198.0,5.482128756635018,3.684604803363493,1.5652615731047554,1.5665851674843614,2.1486576744069,7.002385925796268,2.713597378313964,5.569667353154745
1570179001859965.0,5.474863121737778,3.6672211197136315,1.569155824535772,1.5891394027919197,2.146888774430462,7.007095710818058,2.7124333561319736,5.445879671874374
1570179001859965.0,5.47541079338355,3.6549116751689468,1.5755581984832687,1.6106158220171307,2.145769288214539,7.021120516856572,2.7106202972572704,5.332428495041858
1570179001875006.0,5.483266311207804,3.6511822654483272,1.5817569563124292,1.6271032336900604,2.147238020539637,7.028689050080328,2.7004110169281006,5.2111813990087965
1570179001875006.0,5.501205656792081,3.6543244356270708,1.5857726961703693,1.637096093920842,2.153323980880062,7.042566065828243,2.686323412873376,5.108587211107804
1570179001875281.0,5.522815321177046,3.6557170926689584,1.5884784181370664,1.6444674920351616,2.162189162168526,7.049035206026218,2.6691948492404975,5.005704560359733
1570179001875281.0,5.538356697025622,3.654254794125349,1.5917037080775183,1.6516478320840182,2.171939206906905,7.05706511336031,2.6558300830789574,4.916634376981613
1570179001897811.0,5.55088638892833,3.653954267103494,1.5984818850222655,1.6607630491061278,2.1846634854806783,7.028892742398948,2.6317153149666743,4.819435337995266
1570179001897811.0,5.56142667574895,3.652022210610895,1.6068352458163169,1.6701955858020143,2.2008695480351794,6.9713322857958335,2.597939888731913,4.729262388220498
1570179001907786.0,5.563673105658378,3.646774315492138,1.6144261695615032,1.6765161322660929,2.2123798632670586,6.887228236234394,2.555952898008675,4.620877950660477
1570179001907786.0,5.573224774953302,3.6442835713946256,1.6223258912729646,1.6808353399864155,2.2121484731070167,6.800877229708973,2.5159386208478107,4.515916218491387
1570179001910778.0,5.590516885971058,3.641465856924613,1.633520984988549,1.6881228044806784,2.204520793041476,6.703322867697662,2.473969666963744,4.402579036217756
1570179001910778.0,5.607336641748777,3.629341280418453,1.6441799307928746,1.693021849151642,2.1915711251220236,6.618585425287415,2.4323672772263794,4.302916592227821
1570179001919753.0,5.610488409921584,3.6018103464191613,1.6513796304231874,1.6902395962856698,2.1716734302615373,6.527168360545643,2.382635427595078,4.196137290534257
1570179001919753.0,5.575624827637586,3.546974761036866,1.6581273618706587,1.6866340436544647,2.150232518520738,6.443258703838282,2.3355492465701104,4.09878314594349
1570179001934713.0,5.487364530833089,3.4690682557859063,1.6643305859405872,1.6879294401326417,2.126980967652843,6.352047479763074,2.286565873837776,3.9897483068627495
1570179001934713.0,5.3830569463356,3.3867756567050766,1.6660734481201804,1.6910252728105022,2.097082245144554,6.271954480174038,2.2375385493263567,3.888535847024124
1570179001934713.0,5.2833833183255345,3.3081186482568885,1.6649901485439633,1.6930633325213955,2.0652119322349107,6.188312851266284,2.1842766102735043,3.779561584182919
1570179001934713.0,5.193447938182833,3.2360077398965457,1.6618074181329956,1.697011026845873,2.035095732560476,6.124364596679452,2.1369379854239092,3.680517367425044
1570179001956738.0,5.094265719069515,3.17165195552339,1.6577762569545489,1.7039151461150626,2.0030320718720196,6.059966496520959,2.089341003523491,3.575873324075573
1570179001956738.0,4.993814337282499,3.110517347787152,1.6555425754614388,1.7100883786371646,1.9678606749886292,6.003106736716057,2.0441104786296895,3.484332405560967
1570179001957760.0,4.892511877638526,3.0488424921867274,1.656003755084043,1.713560828535759,1.9331385895079725,5.933389464324038,1.9951360293077167,3.3903570404136327
1570179001957760.0,4.798359120504708,2.9870799290588574,1.6559596520708564,1.7156283510838704,1.8995884871641513,5.866164232029625,1.9517613854071254,3.3100074589864072
1570179001971640.0,4.702460930765265,2.928034464375287,1.6498496283331325,1.712502147823014,1.8640374357900422,5.7753386525730965,1.9091380641060958,3.2299504632980556
1570179001971640.0,4.614838436343821,2.872657266952571,1.637813877168178,1.699112050300376,1.8262390173974177,5.684429672756395,1.8733394466884496,3.1645420155086987
1570179001979593.0,4.527538552610136,2.8213684482324015,1.6256600990783048,1.6799983878472509,1.7897844321489154,5.582255011620412,1.8358705065787646,3.0984769475830984
1570179001979593.0,4.449271214085388,2.773013538181647,1.6161279722801274,1.662379453356929,1.7564565379462078,5.490667485553548,1.800971905290055,3.0455010250874
1570179001994553.0,4.371848405476265,2.727174841307909,1.6071912456986996,1.6452441161223597,1.7245491107247037,5.391214370389705,1.7649673360961946,2.9984421356272124
1570179001994553.0,4.303035514971032,2.686130470540648,1.5978327920507873,1.6268851063680938,1.6936094849687338,5.304980583367179,1.7321611700160453,2.967810837550645
1570179001995550.0,4.232188829600598,2.6543119354586104,1.5899407593447752,1.6075621326710894,1.6646572717828931,5.211713381406334,1.6954654250043053,2.942835158193101
1570179001995550.0,4.168926345520598,2.6304247282697077,1.583609979446188,1.5868135288596539,1.637858593098149,5.126800288271878,1.662858818320693,2.934074302205319
1570179002016498.0,4.101547798203068,2.604268533694052,1.5778537126592023,1.5633314753734502,1.6135830161205873,5.0318674376010595,1.6307782420021995,2.93931453090468
1570179002016498.0,4.035561449060321,2.5696278102983103,1.5710082429793255,1.5423214378838463,1.589376088043932,4.951069338042147,1.6051708650701244,2.9619429570023232
1570179002017491.0,3.9624834646630203,2.5341551100172546,1.5570931965386678,1.5250351631661048,1.5612328569833107,4.8602264963514745,1.5807447435237287,2.995011540555967
1570179002017491.0,3.8952808735710818,2.5053775675573844,1.53557744613251,1.5085273174491411,1.530657883339743,4.776850754635131,1.5605935405179114,3.0361339434703956
1570179002031453.0,3.8233113193777695,2.477815961060237,1.513653684787607,1.4897441809954544,1.5018343488900987,4.682914277340817,1.5382673122492592,3.080548475476103
1570179002031453.0,3.751887770899591,2.4415550327920705,1.4947912078945962,1.4688831602621284,1.47477105695122,4.599156934026518,1.5185655051857418,3.1290641526848972
1570179002039670.0,3.6652656915109363,2.3993749561343023,1.4770994377044122,1.4457364289353682,1.44611893376029,4.504784803007107,1.498944613498729,3.1837197494398994
1570179002039670.0,3.580413662427,2.3551193505715053,1.456987250680415,1.4227420724201039,1.4167689704344686,4.422389867841428,1.4853312971716321,3.2467851635987133
1570179002054401.0,3.4920737087028013,2.310235921498878,1.431555954792709,1.4002082737732624,1.3899490737970919,4.334548857487861,1.4733116553170789,3.3256964840109022
1570179002054401.0,3.408640575927785,2.2643354365817387,1.4044981715374105,1.3799356273398868,1.3661602617324067,4.26077942876213,1.4657151635926466,3.41352858840285
1570179002055391.0,3.3164494274030747,2.2135142580090488,1.3767067089083607,1.3606125762894548,1.3455710164897252,4.181659707153855,1.458883803821664,3.5090875352038755
1570179002055391.0,3.2274353874235135,2.1585586009422406,1.346254850392401,1.3404961945425753,1.3284200199918812,4.118888288570326,1.4555146021443295,3.6021244421866068
1570179002077413.0,3.13343610195588,2.104672181624181,1.3141442051060543,1.3212128278983892,1.3139254127533126,4.049476203337126,1.4500816794642615,3.698318015395184
1570179002077413.0,3.04938728230922,2.053966048241458,1.2826735929170237,1.3068537979168189,1.3008225742835826,3.99345785848268,1.4448404441086076,3.7965437027902493
1570179002077776.0,2.9626655907806567,2.005817708585727,1.252450709912797,1.297345153494628,1.2909361596450775,3.9288398728012512,1.4394750873137077,3.9024690248007015
1570179002077776.0,2.8825492833653326,1.9581502595450169,1.224133651905168,1.2926944721264586,1.2848504804048626,3.868601083439759,1.4392756408394143,4.006356747897077
1570179002091491.0,2.798371715932982,1.9126625219632782,1.1952499131258016,1.2904466117129672,1.2795565613030262,3.7900602545453794,1.4421812505355092,4.115544728568395
1570179002091491.0,2.722723583392055,1.8707479351775484,1.1667002682797698,1.290002604721466,1.2746856586295354,3.7184976305625126,1.4500069163222582,4.222921119814015
1570179002099283.0,2.643552697063091,1.8327366627498223,1.1402175934723144,1.2907965716075946,1.2702643961577667,3.6389115206711713,1.4576068264883737,4.337580844432299
1570179002099283.0,2.574165671969357,1.7964661521531697,1.1155021605930697,1.2924749129736925,1.2651775197247275,3.573184233852274,1.465514918456044,4.450819642822395
1570179002114336.0,2.5027101992629808,1.7616008544950454,1.0901196706420384,1.2923846268715022,1.2592254107263428,3.497747821464564,1.4737006472743683,4.556996882134184
1570179002114336.0,2.4381973911676855,1.7279832866550051,1.0630049288220749,1.2914954667310938,1.2532620706149498,3.4320898939459448,1.4834487783481396,4.634469556159061
1570179002115239.0,2.368384639379725,1.69459773037269,1.0353364212912595,1.2934486233335567,1.248428734947382,3.3578344983615835,1.488967592575236,4.69174963488184
1570179002115239.0,2.305739497777935,1.6611932087623742,1.0106131950336918,1.297686247494512,1.2428095024517236,3.294626219620019,1.4902536190957159,4.729596924672763
1570179002137182.0,2.2390976697994183,1.6300551546909892,0.9879494695570318,1.2976753107172878,1.2360911565687522,3.222105749594845,1.4892410653336625,4.7510729559098515
1570179002137182.0,2.179486173070584,1.6019752538659888,0.965441086708056,1.2930742523980183,1.2302993095681987,3.161939754250914,1.4900151940686372,4.753431411165821
1570179002138169.0,2.1134468668287565,1.575805684523314,0.9446603232809552,1.2860267790272881,1.2245641699981746,3.094408921786437,1.488256778421161,4.750660006613141
1570179002138169.0,2.052578758924206,1.5500153935450642,0.9270625638702631,1.2781698917863578,1.217761436362425,3.038745828262983,1.4841450399770064,4.748416577155439
1570179002151209.0,1.9872692695715557,1.5237832796992807,0.910519581484522,1.2689372171101119,1.2107438348878758,2.976453540641493,1.476995799756112,4.753228732720079
1570179002151209.0,1.9275806731979679,1.4952115352037383,0.8940290288425725,1.2588525195789007,1.205546010950882,2.9276221383670493,1.46911000428715,4.752361830839924
1570179002160148.0,1.862846881631959,1.4634822456689986,0.8784673824857107,1.2471672150406812,1.2023019138942959,2.872412764102386,1.4610757502867888,4.742418800691229
1570179002160148.0,1.8067139523215558,1.4289455114456304,0.8649526496481565,1.235280898907397,1.2000117454171808,2.831785856680017,1.4553886861855434,4.721492203055949
1570179002174076.0,1.7496454594551403,1.3946574419855082,0.8535572352378418,1.223702776792349,1.198641987117235,2.7852791110428865,1.4519345064642981,4.699040739842932
1570179002174076.0,1.7032460260728326,1.3622225597906412,0.8452742865158963,1.212255193962075,1.1981833434204812,2.7490705095988686,1.4522898289418353,4.677678886976986
1570179002175392.0,1.657618874844438,1.3316957557895939,0.8401375809186091,1.1990049736291313,1.1986213102659722,2.704537099468115,1.4486504094416128,4.646426748864525
1570179002175392.0,1.6215250329669642,1.301731855887796,0.8369227012859761,1.1862154442548374,1.1999483479004613,2.6716953575313362,1.4363128697531622,4.583231283310679
1570179002197012.0,1.583689622580355,1.2723675476451493,0.8358481346618538,1.1746498001890322,1.2011565155103527,2.630737815813148,1.4195292406301703,4.506716813212858
1570179002197012.0,1.5531987283598854,1.2431929642242399,0.8366379126134866,1.1630453495829025,1.2022252816951189,2.600616015323769,1.4054704130641846,4.4351750409545305
1570179002198068.0,1.5207977259760015,1.214353599107052,0.840582073269855,1.1503527134965372,1.2051377462229624,2.563536515260946,1.3936461615870142,4.3764308807103
1570179002198068.0,1.4944508127584843,1.1851662691485871,0.8468236413217485,1.139026535075383,1.2098725576107447,2.535274239154148,1.3838741993900459,4.323509091408792
1570179002220164.0,1.4642899046146811,1.1574507796046547,0.8537236750840741,1.1298346640798318,1.2144219553349176,2.4968517657118214,1.3755908759630546,4.275178254585351
1570179002220164.0,1.4409969414816923,1.1328982929761056,0.8612110882945468,1.121701960017556,1.2168153918785312,2.46594814874671,1.3672859223995666,4.230747091421785
1570179002221029.0,1.4191365677098906,1.1102228708443937,0.8716690469588433,1.1116853942733347,1.2160997295669616,2.4235255103341187,1.3585767025630742,4.192243139338089
1570179002221029.0,1.4051210574515858,1.0886355727878922,0.8837474648277408,1.1017961339406233,1.2132800910514172,2.3892375140240216,1.3537195368594996,4.154049899619119
1570179002234072.0,1.3912481164958193,1.06943818517571,0.8958843836788809,1.0946265523655914,1.2093302482338664,2.347386151800032,1.3537882043960183,4.130113692572957
1570179002234072.0,1.385978954708876,1.052652502004555,0.9067585075500552,1.0922053214202745,1.2042292187001375,2.3166111868249106,1.356536246209648,4.1154736817539845
1570179002235061.0,1.3808873530643726,1.038695242682185,0.9173901103547066,1.0925769084109123,1.1969675295306765,2.281939282419767,1.3623289935586076,4.114876522319736
1570179002235061.0,1.3780703255837572,1.0265855766191412,0.9280146012891405,1.092264670613927,1.1865420966342932,2.2619322597043223,1.3714057867593763,4.1224717537051685
1570179002256958.0,1.3717467594063337,1.0152887994691822,0.9379107683004068,1.0883735751649517,1.17490542043802,2.241020447785564,1.3812215263341514,4.141384133763535
1570179002256958.0,1.3674117100928413,1.0043206347042712,0.94542951497059,1.081944128301035,1.1640050260278303,2.2344599764469892,1.3880926594565293,4.160360673623729
1570179002257946.0,1.3584363131748485,0.9947147346953086,0.9550482634920885,1.0734280236859275,1.1548107719667768,2.2257371717689995,1.3951634447867112,4.193133266041095
1570179002257946.0,1.3500488624292006,0.986638477530399,0.9668496067652428,1.063098233798152,1.1482644288027837,2.2321303905413283,1.4021191358166787,4.232692589264877
1570179002280839.0,1.339579911622494,0.9781736510130447,0.9802682787929061,1.0522325105609125,1.1432859657214418,2.239034447041577,1.408029341381302,4.292586777826002
1570179002280839.0,1.331853744867987,0.9687555548630065,0.9942948799858694,1.0434903746926008,1.1378296421534033,2.2617493236925634,1.4107560762241285,4.361518631209311
1570179002281017.0,1.3216775388039714,0.9594313276218209,1.0085054530977473,1.0356683527970367,1.1299185634157387,2.29028510551321,1.410574715087376,4.447524944838998
1570179002281017.0,1.3135219758920202,0.9501187853517852,1.0216018774570783,1.0290562681452222,1.1196321671316676,2.33614108779258,1.4034438519851264,4.537039655137237
1570179002295058.0,1.3060618810918856,0.9408731703515929,1.0356041900196922,1.0243701039992674,1.1099665740327493,2.366725215804313,1.3924951467630449,4.6476335020571575
1570179002295058.0,1.3038985784461485,0.931553973203243,1.0489926854122444,1.0211278278852574,1.1027349038148166,2.384145294885997,1.3803205633264874,4.765863791269812
1570179002295751.0,1.3035976193148424,0.9231830869284923,1.0610210484813858,1.017883075580147,1.0947559048292266,2.3787387045675983,1.368575508286128,4.903286919553391
1570179002295751.0,1.3064932136114051,0.9168533127248326,1.0718782573486632,1.0158466481322852,1.0821720281694398,2.3743617068687097,1.3581263135078467,5.037739037220426
1570179002316886.0,1.3104617722401832,0.9106795650380561,1.0844720296866728,1.0158384509304532,1.0662059852361703,2.3597814183062744,1.3547598766842734,5.179866000766915
1570179002316886.0,1.3181870718070057,0.903443105006101,1.098218352251308,1.017316758719974,1.0499044533839634,2.348620765503688,1.3557250087556219,5.317805488130562
1570179002318173.0,1.3274479056613373,0.8981732905467193,1.1135719819419738,1.0180696242514349,1.035291245920807,2.3278059097721395,1.3613627950239278,5.46915348095434
1570179002318173.0,1.3351065030583809,0.8959455062861504,1.1291336008352553,1.0163218240103844,1.024339796700004,2.3141067591980495,1.3695196403771845,5.6151422426105615
1570179002340787.0,1.3411370430002856,0.8946940445788286,1.1441831399024118,1.0106393646201828,1.017821187309778,2.2903895743284215,1.384938217261133,5.772035726085692
1570179002340787.0,1.3511107033144247,0.893367148496019,1.155080909875813,1.00109124660489,1.01435566598242,2.266760414193035,1.4037946050085943,5.9238010916367045
1570179002340787.0,1.3628011440235162,0.8919180154494621,1.162586436497165,0.9880850127169469,1.010749536649351,2.2284240784088696,1.4284074317220994,6.077451290559657
1570179002340787.0,1.3701477670152844,0.8903748013917016,1.1694490863994613,0.9747206505548548,1.005379117003306,2.1938975615312395,1.4558458640845962,6.209704871435713
1570179002354756.0,1.3743240784924204,0.8887069294054987,1.1759003173226366,0.9628848955992309,1.0006064549228204,2.150202786088077,1.4878562020895547,6.349024532896195
1570179002354756.0,1.3759929557312918,0.8870086930395236,1.1776565453272136,0.9520684602486751,0.9981396241738942,2.1130426040097743,1.5178831450838228,6.493364306064761
1570179002355589.0,1.3737857533112339,0.8853234961820176,1.1774797623435171,0.9399930704150713,0.9966761650341416,2.0676300249482127,1.5510091148016756,6.662935581678588
1570179002355589.0,1.3702786465385919,0.8849362153339038,1.1775874135862903,0.9257226595351999,0.9953879488679528,2.028977170675468,1.5839876594222402,6.839683807375484
1570179002377580.0,1.369448136762174,0.8876870663762527,1.1799966746814599,0.9098248615162413,0.9954145669471852,1.982473040140727,1.6212171536322737,7.037896697317549
1570179002377580.0,1.3712323350383695,0.8933020325999964,1.1827763649557486,0.8945024293680071,0.9973003509912086,1.945727997002703,1.658472621960991,7.240358972141413
1570179002378526.0,1.3779694311887518,0.9005436221557056,1.184774252498889,0.8807028757295312,0.9985706489542902,1.9050490730967256,1.7017360336448375,7.463176251688656
1570179002378526.0,1.3867560524156899,0.90945763665748,1.1848159183484688,0.8686719486631356,0.9968622727960421,1.8711224476962722,1.7475762821500336,7.689590554350567
1570179002400466.0,1.3986183374076062,0.9196454798393334,1.1845136973277015,0.8594188106892834,0.9943726605685516,1.82771405186327,1.7996971766635783,7.932245719455781
1570179002400466.0,1.4112485084689808,0.9299246631262018,1.1853408282768494,0.8540963783465833,0.9951024423903083,1.7906818665367217,1.851740528862106,8.170691032487966
1570179002400466.0,1.4271718994263887,0.9383437925497268,1.1890692658695656,0.8527527673295923,0.999163505500738,1.746568348566136,1.9066152053375693,8.424183025694228
1570179002400466.0,1.4433461632855724,0.9456337292597079,1.1929177622785063,0.8542145603967504,1.0054656353262028,1.7121337171849889,1.9591100654347968,8.677367406918314
1570179002414435.0,1.460682971656753,0.9526761741661885,1.1960407165854183,0.8576319310986587,1.0149964933814173,1.6744397698432516,2.0181058222991246,8.945905854736903
1570179002414435.0,1.4745849449567248,0.9597343644226134,1.1975471481525788,0.8638054950853551,1.0277763159144897,1.6429016958479583,2.0789475731546747,9.218613341630528
1570179002415427.0,1.4913583545029583,0.9678790864230103,1.2001192372438163,0.8737548220835035,1.0408722191739213,1.6026408374310792,2.145522639217553,9.51764963179798
1570179002415427.0,1.5103041750478017,0.9788307903438664,1.2048378391255936,0.8847980836270746,1.0518935658731303,1.5682339917517933,2.2135984719811344,9.825219244341397
1570179002436375.0,1.5370183767796155,0.9914046637925924,1.2137230185682268,0.8954858399612123,1.0616713451251194,1.5278742778128482,2.287256028650977,10.152444462429397
1570179002436375.0,1.567611782457509,1.0032875639386687,1.2245177337514057,0.9065224941945524,1.0703243686926438,1.4955134883588899,2.3605090004781535,10.486153894898376
1570179002444358.0,1.6057652196150494,1.0115134503076428,1.236151733219719,0.9181867634221216,1.078727245275862,1.4596053600524432,2.437789166841998,10.841384432360174
1570179002444358.0,1.645203375422856,1.0156246950609555,1.2484635158192632,0.9291305007173426,1.0896359278542767,1.4330996891702923,2.511085515689231,11.197215416827005
1570179002460354.0,1.6894721019302974,1.0183774559538001,1.2635505176741924,0.9410309730757607,1.101480122082567,1.4060958158176393,2.5843554738158216,11.542996021290103
1570179002460354.0,1.7333513644591483,1.0225684550816567,1.2780072279799266,0.9540617025132985,1.1118393000208817,1.388721947364628,2.6572019204490327,11.840619545030197
1570179002461304.0,1.7805493823382523,1.0276304048332392,1.2901251200929302,0.9674097851849286,1.1226300811229533,1.3711957447850684,2.7352518401915242,12.106226735044183
1570179002461304.0,1.818186720714916,1.0292305937150135,1.2980085421838643,0.9775693693092967,1.133942861308513,1.3634344787187909,2.8035346918644275,12.344438951885833
1570179002474445.0,1.8444336531011705,1.0261100235292149,1.3030124230290034,0.9840132276689038,1.144132172903271,1.3554025819932125,2.861433476521946,12.571596562324915
1570179002474445.0,1.8611414736800447,1.0222449639354563,1.306183943885535,0.9898594545271322,1.1551650935275248,1.352240705024267,2.916342254259909,12.794447657069618
1570179002475273.0,1.8812992034346705,1.018051730582388,1.3105490635598058,0.9991535637327545,1.1679048225226318,1.3488180426431844,2.9779572653931368,13.015694822568234
1570179002475273.0,1.8997868204376132,1.0149463933984997,1.3161053600410009,1.0094512003515073,1.179814656303941,1.3542057598643706,3.0379539898044956,13.157227046058756
1570179002497255.0,1.911658052644859,1.013028162375825,1.3217077079320063,1.0186634931124114,1.19119362701163,1.3577762931463286,3.068667336021836,13.209997903469525
1570179002497255.0,1.9109160123400206,1.011499848003315,1.32511474616892,1.0276197783397774,1.2038872786851773,1.3608034497164745,3.048729614079338,13.249625848528613
1570179002497255.0,1.9097303589196697,1.0103743669201959,1.3278517873157645,1.037517645163114,1.2169861730716331,1.358420939906322,3.0141108385243944,13.300994945122564
1570179002497255.0,1.9066988535873082,1.010199474878138,1.3293726594898447,1.0456666966671,1.2293262647472998,1.357751833895066,2.9879193966318445,13.335935052470312
1570179002520152.0,1.903149861870363,1.0119684154472353,1.3317210212703923,1.0521184421006793,1.2391305841416924,1.3586054621595778,2.9665083518609836,13.380832197603123
1570179002520152.0,1.893890214030829,1.0167030478889323,1.333474596974414,1.056660926651469,1.2465834268124496,1.3637224769251437,2.939937105197188,13.434807872474737
1570179002521144.0,1.8851414549513996,1.0246589643771602,1.3352336874059008,1.0622040705286782,1.2562183360051442,1.3696100912513909,2.9090178868345906,13.457120878786492
1570179002521144.0,1.8729258337989874,1.035201979229197,1.3377457780694746,1.0695823490059835,1.270633917904735,1.3792410002393185,2.873043822299492,13.424202343487375
1570179002534266.0,1.8629075242636022,1.0470063609918328,1.343434505960366,1.0780389183266925,1.288923075655736,1.390604737494335,2.830974653247551,13.355005481265762
1570179002534266.0,1.854962137410727,1.0601993512221886,1.3502078788599998,1.0859547463556498,1.3089203016013178,1.4042711817728073,2.786589772865649,13.2621063799611
1570179002535171.0,1.8544803102894736,1.0735195021435664,1.3577205844253695,1.0930263698653686,1.3286778039595075,1.4216273993009079,2.742703093356304,13.122002578035264
1570179002535171.0,1.8573458515924237,1.0879570580004854,1.3672820234541745,1.0979974096881977,1.3481147185466773,1.4428937374429025,2.695354815344429,12.916175242233486
1570179002557055.0,1.8651280578708047,1.1038698420169715,1.3820886433876924,1.102819207231784,1.368345979548956,1.469509204043152,2.644748490904168,12.650938256882876
1570179002557055.0,1.871778922646737,1.121183422033595,1.400416918479446,1.1076685788509983,1.38823172872229,1.4970474469724033,2.59213550566952,12.37118380748611
1570179002558147.0,1.8829181194703444,1.1393884226809758,1.4213968480699635,1.113066564664368,1.4055234409617845,1.5265176693617053,2.541344365819536,12.095034441696976
1570179002558147.0,1.89219891174986,1.1583761681940137,1.4430866051602862,1.118213379190943,1.4223489212462765,1.5550216924065996,2.493738928963384,11.816745229379531
1570179002579991.0,1.9021905266636425,1.1766100283722623,1.4662249164759584,1.1225811286556646,1.4410231840237668,1.588867268539873,2.447286754551287,11.524662341145461
1570179002579991.0,1.9103156765700904,1.1943260818805437,1.4884534646677818,1.1237603678285102,1.460228567680863,1.6233724974968324,2.4016536912360893,11.243692546883867
1570179002580985.0,1.9253705083219952,1.2123415102619217,1.5099806309701953,1.12202475929105,1.4789278813314348,1.6632018830793953,2.358886602710676,10.970928569707008
1570179002580985.0,1.9416534330901547,1.2302686559793636,1.528088465843387,1.1183472243000219,1.4960345725112865,1.704476775705759,2.3206191972035173,10.702732441278755
1570179002593986.0,1.9611810252562152,1.2471424490376808,1.5442131533957675,1.1165154931100414,1.5105690349339804,1.7567790891463217,2.2860034777848313,10.420809929790641
1570179002593986.0,1.978478018453456,1.2634638462162728,1.5614757693724355,1.1172650707318046,1.52398113302785,1.8143534182512886,2.252771132196268,10.13863982263575
1570179002594946.0,2.000187688482163,1.2780258286043547,1.5816967804740583,1.1199845259970385,1.5374274963429593,1.8827942910976434,2.2255089521716034,9.861074443325759
1570179002594946.0,2.020763943669254,1.2917412802642763,1.6005628308643558,1.124222514716679,1.5515561031886005,1.9532036079172337,2.2064737091635584,9.601694680866212
1570179002617932.0,2.0470755367071263,1.306788027793648,1.6176195771164121,1.1315350290815933,1.5689399409755724,2.0338785734112372,2.1941960520485537,9.346526081003972
1570179002617932.0,2.073621891697674,1.3230540971775102,1.6338716756602274,1.1409713048691947,1.5911911501436418,2.1159805849487383,2.1878308143241423,9.102894887587247
1570179002617932.0,2.104900769039914,1.3389915652278768,1.6535260362587418,1.1531837004495213,1.6170593172935999,2.208488592963342,2.188016816599809,8.871285302862653
1570179002617932.0,2.134367686050266,1.3576058197528806,1.6758423177877257,1.1672589230802233,1.6432802396079393,2.302129534237171,2.1904047785242926,8.668249241726437
1570179002640344.0,2.169361487531168,1.3804989400397012,1.7002277113974986,1.1837692263936648,1.6678284193481145,2.4074708725030343,2.1935357404528477,8.481601064256223
1570179002640344.0,2.203829438761123,1.4073695201480396,1.7262514194640517,1.2007334220542727,1.691137888401972,2.5147491958864263,2.197733164085336,8.320751700722738
1570179002641202.0,2.2414788675042523,1.4369560009908866,1.7557946546348246,1.218393008147648,1.7141458395041151,2.632145260093176,2.2085908510167713,8.180704974755239
1570179002641202.0,2.2750303466458703,1.4686970196064542,1.7851508028332268,1.2372925442539886,1.7385464919924831,2.748020202833727,2.2251230208416866,8.069667709411442
1570179002654787.0,2.3116083070309723,1.500471322842803,1.8128395173696106,1.2596249963161605,1.7656669550188073,2.873486288203659,2.2491234134969695,7.9819201545718546
1570179002654787.0,2.3463850335824983,1.5311845603778782,1.8371166469724622,1.2815675404064693,1.7944185588095858,2.9989785908261797,2.2804102946945175,7.925218192236049
1570179002655785.0,2.3863757784796373,1.5609205556984922,1.8595772350756667,1.3010216932244345,1.8243121021777213,3.133714224946758,2.3200659137087687,7.889465701260665
1570179002655785.0,2.4256240625308383,1.5913500030369532,1.8812987118699689,1.3194742342740364,1.8563362085290211,3.2681941889300568,2.3616025811207995,7.880502486495238
1570179002677811.0,2.4730057512151036,1.6214720241300353,1.9050526238281489,1.340621216539152,1.8896913371924726,3.4130026876288064,2.406302571480477,7.896328342928442
1570179002677811.0,2.5199258752545237,1.651732684749654,1.9299811427778235,1.3638722930943252,1.923693376301599,3.5557309313443732,2.455254206503337,7.9393376078962135
1570179002678731.0,2.568399638480899,1.6838362166691807,1.956641190347219,1.3887382273570306,1.9586547127396017,3.7049631779361887,2.512395394630071,8.000253076816046
1570179002678731.0,2.614212338932923,1.717129203565087,1.9834197109242229,1.413635532973784,1.9946178945480102,3.853007434712838,2.5757386056137035,8.085284437756679
1570179002700752.0,2.665988409218132,1.7491145097278513,2.009280979040849,1.4395924236421616,2.0317036802938606,4.013172021293392,2.6470360444249965,8.190028753676915
1570179002700752.0,2.7157463764764183,1.780259318538341,2.0335776978038678,1.4659565108916717,2.0699632911736474,4.178007693111135,2.7214695740477084,8.314238706472752
1570179002700752.0,2.7696053026572978,1.811195237674032,2.0583134050962313,1.4945001632690578,2.10968897840658,4.355664702514158,2.800930942759163,8.452433170049648
1570179002700752.0,2.824022339499688,1.840741733097793,2.0824229513142742,1.5239134822199336,2.151879187754404,4.535544815175558,2.883878762876042,8.61061692567165
1570179002714632.0,2.8822819670747046,1.8653806224872267,2.106589427217826,1.5529598815901775,2.196565120112243,4.727402954770776,2.971928043451028,8.790959018337016
1570179002714632.0,2.9361281252004923,1.887762937882698,2.1290108421057004,1.5794941751842262,2.2421804210934457,4.923731998797556,3.056594656192343,8.99046736440948
1570179002715625.0,2.989983236789623,1.911100561041578,2.150631649153369,1.6048492157428267,2.288419750466546,5.131755906110922,3.135955063406698,9.199806772288175
1570179002715625.0,3.032654879471058,1.9300246702585908,2.168125278064602,1.6281652485368203,2.3361983327083182,5.342752320871354,3.2062817839223463,9.433185898686204
1570179002736780.0,3.065734991018851,1.9387390596576104,2.1803916650021313,1.6465945035441039,2.3846829096560342,5.565561791802927,3.2650875433799285,9.693235432534872
1570179002736780.0,3.0889990655801487,1.9427714721992622,2.1904448022575442,1.6598764644654822,2.432587768944542,5.795467304818975,3.3067517079293642,9.980247435953777
1570179002737573.0,3.1095713847252027,1.947043558091974,2.20104136243428,1.6718232627990803,2.477604826636531,6.0360212458906535,3.3299372704885837,10.260193124397063
1570179002737573.0,3.1204865985953316,1.9507842110385947,2.2100374865422037,1.6836639682231547,2.5172430182580774,6.277276722211866,3.339860614454686,10.447883376402881
1570179002760558.0,3.128492017834454,1.952972632638643,2.2196980697038566,1.6965546047090538,2.5546850565636388,6.508713405993271,3.3516026362114704,10.515947400745537
1570179002760558.0,3.134870180656171,1.9551616890464603,2.2301679583245244,1.7087226417261603,2.5854604298160484,6.678165700065848,3.3677591902897577,10.548260595472714
1570179002760558.0,3.1395509121158867,1.952796001046824,2.2324017576622457,1.71196721384643,2.5868629687802085,6.740295588154306,3.3818885510784025,10.588762877761011
1570179002760558.0,3.132604230869428,1.9406061294750536,2.2186623923454083,1.7007444957269784,2.557193870469912,6.7164621415546195,3.3891530404673773,10.637183927824667
1570179002773711.0,3.1227573191054137,1.9222944984463997,2.199243757818615,1.6853595991001105,2.5242823579700615,6.6811119550962035,3.3968601948334647,10.699117989604735
1570179002773711.0,3.1095723167099574,1.9019419421518242,2.1831789005978894,1.6706123273095377,2.4975893826173854,6.651519621286352,3.402089278261922,10.777300740506822
1570179002782495.0,3.0896593036595377,1.8805009510361959,2.1721032297609617,1.652380546638999,2.46832702731628,6.595628581880282,3.3904584517195344,10.817696826516089
1570179002782495.0,3.0585187619827385,1.8618922544054126,2.1666814531605536,1.6323712551305767,2.4346397036081875,6.51739946139915,3.3653947218274127,10.81637026658482
1570179002797415.0,3.019055229908974,1.8460057076242649,2.1681749069155987,1.6142083905664824,2.399714087059973,6.438246272550956,3.337301653223406,10.783840907207626
1570179002797415.0,2.9764397061461922,1.832620378281219,2.1749781711429765,1.5996578695547221,2.3668576902271914,6.366499029175434,3.312427126296177,10.739154461854952
1570179002797415.0,2.940969338248026,1.8218755333537822,2.186502425221597,1.5896425633914304,2.3378045823679234,6.292673417861447,3.29042886055611,10.686580490366678
1570179002797415.0,2.9075082715141307,1.8081944764363678,2.1970066327784745,1.5804841322754906,2.310463148600235,6.214656864354118,3.2654702038748984,10.634089118549902
1570179002820450.0,2.8714970962641755,1.7868135715145874,2.2003374611094624,1.5642891318774161,2.2819418176102975,6.130685557510793,3.2368490305916304,10.568661145409127
1570179002820450.0,2.8258053685092532,1.7621182631185892,2.196866401534882,1.5395994192148912,2.2536306055252675,6.04675375316937,3.203423820319084,10.486551116595372
1570179002820450.0,2.77048445798891,1.7397541862671133,2.193763525960467,1.5134645726033107,2.226945891163582,5.954562213254833,3.1549841264618115,10.354486096674089
1570179002820450.0,2.717225102063472,1.7207688521489612,2.1920188455198164,1.4910250142894095,2.1997263771141764,5.863344502625208,3.1029989673998113,10.206229365569564
1570179002833320.0,2.6746773199769316,1.7018723353633376,2.188812784330368,1.4722299020561844,2.1735144205650023,5.775380375396536,3.0566176191675813,10.067425839459341
1570179002833320.0,2.6349640441157414,1.6819709134917633,2.1834458819536082,1.4564744647055636,2.151930215897428,5.701808135029513,3.016020721221761,9.950712615275785
1570179002842483.0,2.5902000047359808,1.6615515686904703,2.1776169776784746,1.4405970977725995,2.135376287021842,5.638081543811447,2.974831835017367,9.826602908512621
1570179002842483.0,2.537944957110196,1.6423747722750395,2.1720542406487073,1.4235598092213984,2.124610487539154,5.58946528701749,2.9289699107993163,9.704365574851797
1570179002857249.0,2.4861984638323382,1.6260805104344935,2.1690664492476905,1.4059256858699896,2.1209607471968135,5.5456097778268,2.878083914003432,9.574587055312804
1570179002857249.0,2.440585802623598,1.6134051094824893,2.1688839975036616,1.3878294923988028,2.122452861022638,5.507564575432768,2.8308902467712604,9.45339453911563
1570179002858243.0,2.4025246433531007,1.6048517792230956,2.1726871313176686,1.3697448358986761,2.12484394331591,5.462006116744229,2.7881256483404844,9.339365422258869
1570179002858243.0,2.366660823084515,1.600684770840901,2.1795963809515664,1.3538481353532734,2.1254490471614442,5.419898531248141,2.750718764615902,9.253440663821856
1570179002880183.0,2.3325032415210294,1.5991920711433623,2.1892540888179646,1.3419834160100987,2.1217059502368008,5.379117303699083,2.7151259116846522,9.17522167934638
1570179002880183.0,2.3039398265027806,1.6008956660406573,2.2033950696450124,1.3349325810183985,2.1126285615151765,5.340929255774628,2.684751808203519,9.091889768841224
1570179002881182.0,2.285732375686282,1.6059367605794566,2.223687801332885,1.3278720202998913,2.102861353685023,5.298631803140765,2.655697092453878,8.972939600699263
1570179002881182.0,2.272400229750659,1.6137177783942236,2.2479802535230835,1.315754964965914,2.096686341865029,5.266332168039436,2.628533089067833,8.849653572133915
1570179002894147.0,2.259636279445724,1.622298227372434,2.2736592645346567,1.2985618204309797,2.092315202127123,5.237125251896543,2.603317558388683,8.728577749161976
1570179002894147.0,2.2452485585936564,1.6302321830041917,2.299205781990193,1.2782537423339566,2.0868605056084535,5.2180575864055365,2.585940430813725,8.62752338298158
1570179002902125.0,2.2352481134054485,1.637203631686613,2.3283859526924755,1.2560926221475217,2.080658908720833,5.200585998977643,2.5754218369263193,8.528703513351486
1570179002902125.0,2.2276282714320765,1.644291780615387,2.3607663812486623,1.2353870683073604,2.0754805147413515,5.193442900206012,2.572752081193122,8.449250058750868
1570179002917287.0,2.2190742183990344,1.652815571634543,2.391024007462328,1.21602711708062,2.0687922115621613,5.196001802543251,2.568371899982037,8.361501688051755
1570179002917287.0,2.2022221276302116,1.664793349378717,2.419495034163276,1.1982205873611986,2.054034681472426,5.212592974506044,2.55124207338877,8.248684268179149
1570179002918082.0,2.183251260735644,1.6805402271337364,2.452634290043008,1.1836808144513857,2.0303426689989705,5.222478826171501,2.5166588794618012,8.101557711482648
1570179002918082.0,2.1678860601409227,1.6982980696653205,2.4922396644507856,1.1730710236211381,2.0039540541599137,5.2399719314144155,2.4780754763007673,7.957889118954394
1570179002940353.0,2.1617759291733347,1.7142107647752343,2.537079191115274,1.1641606979187664,1.9792957838604237,5.263309463194897,2.438060352816844,7.807592041518148
1570179002940353.0,2.160132311163052,1.7271421285809039,2.5800872215680033,1.1570483836137755,1.9569298159274966,5.287074347613478,2.3995481004364265,7.673484561011478
1570179002941108.0,2.1637999711318887,1.7383356577973368,2.605889090654528,1.1525324890862068,1.9375990142997006,5.293137156191632,2.3606740816493703,7.5402611379135305
1570179002941108.0,2.1688148118678447,1.7489077693511912,2.6031250355832145,1.1499952897414236,1.920908016200058,5.2911951989647195,2.3259118177482434,7.411924586714463
1570179002954039.0,2.1806054201892113,1.7578229309730051,2.5779538395251422,1.147155167305822,1.903791922396938,5.276337371952365,2.2962020090927733,7.27318515762248
1570179002954039.0,2.1943567546224827,1.7666380083097908,2.542861243124188,1.1440037382723658,1.8864418474802604,5.265116586288112,2.2750148562473043,7.14619341369124
1570179002962116.0,2.2099419507868587,1.7769747940565257,2.5044691518903885,1.142299607783111,1.8697063555357698,5.2558692604092165,2.2563553743524913,7.009843786885469
1570179002962116.0,2.223614428962921,1.7892060646665526,2.463239895440225,1.1424011085793495,1.8526324293052885,5.261985975167651,2.240574226880169,6.874789633126509
1570179002977105.0,2.2421567326225094,1.802383827129885,2.416644472774476,1.1421515478124231,1.8373326178073084,5.276325144896472,2.223684057992524,6.729473227915369
1570179002977105.0,2.264052972110319,1.8155939967847294,2.363047776329164,1.1415946124398728,1.8266118173059003,5.302735213389942,2.2078917233589688,6.595929202692022
1570179002978030.0,2.293496657404462,1.828493752527139,2.3029930675539414,1.1416078659260684,1.822006370987728,5.320728536581274,2.190440497919234,6.459175436225445
1570179002978030.0,2.3237998174547476,1.84283189699872,2.2395168635920717,1.1404601850779086,1.820969899005551,5.3309248004594805,2.173595101455448,6.333240080072016
1570179002999864.0,2.3610950791036034,1.8588719235673667,2.174545168855523,1.136791353575699,1.8195114519192206,5.326960536469291,2.155678706523293,6.204711055912987
1570179002999864.0,2.4013537264812626,1.8772264218968218,2.109663345438581,1.1326353667997486,1.8158005043170968,5.325100337682712,2.1384581570912267,6.092068526207445
1570179003001109.0,2.446207575833577,1.8960622632488302,2.0469844615923463,1.1288337417688294,1.808117439888873,5.309960031223991,2.1197687804649066,5.978563822039967
1570179003001109.0,2.4874139836365043,1.9128403949757813,1.9891282773734034,1.126564401439514,1.797686473543608,5.287394716015599,2.1031163631636653,5.876875456565562
1570179003013887.0,2.5316808032274465,1.9273976422341463,1.9342141006881346,1.1268286703916746,1.7843390779235746,5.253443852110454,2.081824314462998,5.768323373639903
1570179003013887.0,2.5766229317488514,1.9426230961054918,1.880191567678071,1.1271113306635219,1.765296193237376,5.227555752590065,2.056577427414917,5.673916733096334
1570179003021805.0,2.6264942667031015,1.9607788450417338,1.826982924954877,1.1231348703528925,1.7428333102773035,5.200367121459437,2.0294667341983317,5.582985671433622
1570179003021805.0,2.6763458699129132,1.9814332103809245,1.7768161379465173,1.115740397918908,1.7197473520932505,5.1834640774992335,2.006957318720037,5.499168843184993
1570179003037765.0,2.731843594562655,2.0035785456426907,1.7297108180126635,1.106635437135103,1.696988946995172,5.168717759715854,1.9831709092397451,5.40089427865077
1570179003037765.0,2.781409436061677,2.0292291227402584,1.6839634089704785,1.0960394189952816,1.6783376806776469,5.161957660213399,1.9578948023294924,5.30847300939742
1570179003038762.0,2.826350612262847,2.056632539532069,1.6394062519026487,1.0836570666404328,1.6622609864533575,5.142902172307125,1.928757362808736,5.213088853430492
1570179003038762.0,2.868176830148612,2.082512957565947,1.5995568834735863,1.068621720152572,1.6449602315774725,5.123938489975941,1.9032595507405818,5.131098360348044
1570179003059790.0,2.915970220935381,2.1059759428805,1.5639627550349402,1.0512039226524885,1.6296546473012283,5.100095129778898,1.881337353404917,5.049834077462112
1570179003059790.0,2.9616862115000364,2.1270618765666813,1.5289669818196159,1.035544347486492,1.6179837479829142,5.085652815903782,1.8635843995170056,4.986134399392797
1570179003060858.0,2.997329437736857,2.142035278408304,1.4930745873791202,1.0228100018361537,1.6088216860512292,5.069099557960178,1.846315619454123,4.927541730380127
1570179003060858.0,3.0125117058528303,2.152638917757765,1.4603373910175792,1.0105496029832122,1.603019132700096,5.065272679377731,1.8297566709302542,4.886881387356381
1570179003073889.0,3.0216875069364377,2.165288522410923,1.432147338474129,0.9952881002258956,1.5991546580254752,5.051165051759267,1.8067555842092526,4.845644387166472
1570179003073889.0,3.0277070224627707,2.1829400531730463,1.4072076491896972,0.976789833555892,1.5942762843120228,5.020193469165331,1.7820131485904018,4.816164677798676
1570179003081651.0,3.0363128569681486,2.2046790776261305,1.3830923336373655,0.9574535795006371,1.5885430203617918,4.965071385106359,1.7572990872557452,4.792333482011894
1570179003081651.0,3.042530532398626,2.2276442879351603,1.3586155903599306,0.9406657787320991,1.5807959757437813,4.9141144806269565,1.7349736645910019,4.7883540890007135
1570179003096785.0,3.04853454957554,2.248708371449119,1.335087502136171,0.9264932704753833,1.5684432717929258,4.856135978595482,1.7130034429656877,4.794486449512441
1570179003096785.0,3.0538056874195956,2.267669773467846,1.314096507576374,0.9141680721330638,1.5541766327505668,4.800148860027971,1.6957701612202831,4.817603744398452
1570179003097612.0,3.0612976812159602,2.282861271205036,1.2933702887049696,0.9045088463603058,1.542855026749001,4.733525526516283,1.67911974432521,4.8223869138158895
1570179003097612.0,3.062397535707513,2.2917579015193787,1.2737465149128495,0.8977722637165062,1.5349775973051765,4.6736495546311305,1.66528379697647,4.807289556956909
1570179003119564.0,3.057334916584121,2.291698128869979,1.257133788669454,0.8928241580573595,1.5304231989801287,4.61092500128404,1.6521605999458187,4.778074639726192
1570179003119564.0,3.042263290352275,2.283628145341321,1.2439018004434936,0.8897055814382947,1.529754189972957,4.558058962069235,1.6403829906348726,4.758955547210697
1570179003120562.0,3.023557103365213,2.2706144761923177,1.2339733832658994,0.8873316080229507,1.5304521160994897,4.498300097574991,1.626062449397637,4.7443778046839675
1570179003120562.0,2.9964331238742905,2.249017915254027,1.2255387554501134,0.8856810430729506,1.5296541999907516,4.444640223818267,1.611105327644268,4.750046422639715
1570179003142927.0,2.9577655642321505,2.213677938836392,1.2171990567233288,0.8857400702804482,1.526838443072552,4.382640947201526,1.5936500876740334,4.755440204927524
1570179003142927.0,2.9105427738349086,2.1698906076514213,1.21098452993879,0.8874183375277338,1.5232921513729967,4.325485497384038,1.5769725102117782,4.754386890721591
1570179003143502.0,2.8634152597705818,2.1250064452551185,1.2068605646194202,0.8897132253406654,1.5200193947366734,4.261978481469453,1.5595408542263491,4.7435748086398
1570179003143502.0,2.816186626285826,2.08466403362854,1.2048470250287258,0.8915309778248486,1.5179370767082638,4.20876991505417,1.5460745574525645,4.745971853772065
1570179003156757.0,2.7702549636332185,2.043626284414765,1.204874696843944,0.8929639854067847,1.516665612200865,4.151639779841551,1.5334336182866508,4.755803112956221
1570179003156757.0,2.7206502336369898,1.9951527432281027,1.2049217728013515,0.8929228619911785,1.51439149317019,4.1019618669590105,1.5196890066749567,4.776629947998538
1570179003157575.0,2.673511550897435,1.9457705620640138,1.2048957530990552,0.8926613285542574,1.5126429844457103,4.043745166848336,1.5005454103163185,4.792506778847982
1570179003157575.0,2.6342265673244194,1.902476068969591,1.2057640477135052,0.8939170584288165,1.5131503088923954,3.9900525131465754,1.479033346588094,4.8144895745485
1570179003180584.0,2.606723865046808,1.8653041465382687,1.206500115488176,0.8957141879566799,1.5156242510436626,3.928715047264204,1.4567414380774901,4.835464728519543
1570179003180584.0,2.585866106985451,1.8347783999707072,1.2060871039691086,0.8968692325940101,1.51985573535294,3.8762820557109645,1.4374898837003312,4.866435400223408
1570179003181406.0,2.5740896858808124,1.8105315620880507,1.2065110729426711,0.8965387662000638,1.5246751354864367,3.8205480911763976,1.4193373625628032,4.902852926648491
