timestamp,emg1,emg2,emg3,emg4,emg5,emg6,emg7,emg8
1573325098351755,0,7,-5,7,13,-10,-2,-3
1573325098351755,2,7,5,7,42,3,2,4
1573325098366310,6,-24,4,2,-56,-6,-4,-8
1573325098366310,8,9,-7,0,-10,1,-2,0
1573325098373146,13,1,6,5,-8,2,1,-1
1573325098373146,2,-6,-2,3,35,6,-2,-5
1573325098389737,4,13,-8,-8,-19,-8,-1,1
1573325098389737,6,-2,1,4,-10,-3,-1,-1
1573325098391082,1,-2,-1,-2,-8,1,1,6
1573325098391082,0,-10,-9,-2,-10,-1,-2,0
1573325098403071,2,17,5,-1,18,5,-2,-1
1573325098403071,-7,-9,-2,0,1,-5,-2,-7
1573325098412112,5,5,2,-3,15,1,1,3
1573325098412112,-3,-4,-5,-3,-18,-4,-1,2
1573325098426801,5,1,1,-3,9,1,0,-1
1573325098426801,-6,-1,1,0,-7,-4,-1,-4
1573325098440130,0,12,2,0,3,2,-3,-3
1573325098440130,-5,-18,-6,-7,-18,0,1,0
1573325098449198,0,9,-2,3,5,2,0,4
1573325098449198,0,7,5,-1,4,-3,-5,-6
1573325098451200,0,-9,0,1,-4,1,-2,0
1573325098451200,-6,-8,-7,-5,-12,-3,-1,-5
1573325098471707,-11,18,-2,-3,13,0,-1,-7
1573325098471707,-2,-12,-5,-4,-3,-3,1,1
1573325098473595,1,8,6,6,0,0,1,1
1573325098473595,2,5,2,1,-8,-1,-1,3
1573325098486730,-6,-16,-12,-1,6,1,1,1
1573325098486730,5,16,5,2,-1,-1,-1,5
1573325098493299,0,-2,-3,-7,-1,1,-1,-3
1573325098493299,0,-6,-1,4,1,3,0,0
1573325098511851,6,0,-2,1,22,6,-1,1
1573325098511851,-1,-6,-6,-8,-37,-14,1,2
1573325098511851,3,0,0,0,-16,1,-4,-5
1573325098511851,-4,3,5,4,21,-4,-2,-2
1573325098531390,0,-5,-1,-4,-23,-2,0,3
1573325098531390,2,1,0,2,23,17,3,2
1573325098533400,-2,-4,-10,-8,22,-9,-1,1
1573325098533400,-10,-1,3,1,-13,-8,-5,-15
1573325098546477,6,3,0,-3,-1,-17,-12,6
1573325098546477,-12,-4,-1,3,-15,30,10,-14
1573325098552994,-2,-2,1,1,28,-6,9,5
1573325098552994,3,3,0,0,-12,11,3,3
1573325098569745,6,3,3,4,106,12,4,3
1573325098569745,11,5,2,4,-75,-15,-6,8
1573325098570564,-2,8,-3,-4,23,-27,1,-3
1573325098570564,-8,-9,-3,-2,-28,7,-3,-6
1573325098592305,-1,-9,4,-3,-16,-32,-1,-3
1573325098592305,5,8,2,-6,-78,-9,0,11
1573325098593013,-3,-3,1,4,5,29,-1,-3
1573325098593013,-1,5,-3,-1,-33,-57,2,2
1573325098606679,-11,0,-2,5,6,31,-17,-16
1573325098606679,1,-12,-6,4,118,18,8,13
1573325098613610,-11,-3,-3,-2,28,-3,-18,-21
1573325098613610,8,10,5,-1,-27,13,-6,-5
1573325098629241,-3,-7,-4,-7,-34,-3,12,3
1573325098629241,-2,1,-1,0,15,-3,7,7
1573325098631075,-7,3,4,5,-12,-40,-51,-19
1573325098631075,21,4,0,15,115,77,24,23
1573325098651574,-11,-13,-10,-23,-100,-10,61,-5
1573325098651574,-3,1,0,-6,9,-64,-94,-4
1573325098658570,14,-1,-5,-2,-9,16,40,19
1573325098658570,-6,-1,5,10,102,4,-11,-3
1573325098666248,-7,6,-2,-2,-17,106,4,-1
1573325098666248,6,-3,-6,-8,-2,-84,18,-4
1573325098673340,-11,-8,-5,-9,-100,-5,-2,4
1573325098673340,-1,2,3,2,1,4,-10,-4
1573325098689350,-10,-7,-4,12,106,39,4,1
1573325098689350,-5,-1,4,4,115,43,6,-3
1573325098691372,-9,1,4,0,77,1,-14,-11
1573325098691372,-2,1,-4,-9,-70,40,15,0
1573325098711847,14,-2,-5,-3,-33,-118,-19,8
1573325098711847,-6,-3,-5,2,34,47,4,-8
1573325098713800,6,3,-2,-4,-80,10,16,1
1573325098713800,1,-4,-4,-10,-31,-79,-50,-6
1573325098725165,4,2,3,-6,-16,-22,-18,3
1573325098725165,1,3,4,5,4,40,10,-3
1573325098734924,10,-2,-3,2,-15,-4,4,15
1573325098734924,-14,-1,2,-1,23,-11,20,-10
1573325098749449,4,5,3,4,-11,13,-26,-11
1573325098749449,15,2,-3,3,31,-7,11,15
1573325098751616,1,-1,0,2,-12,44,18,10
1573325098751616,-4,-4,-2,1,37,-23,5,-7
1573325098771891,-8,6,7,-2,-76,-38,-32,-2
1573325098771891,-20,-5,-4,-9,15,2,1,-22
1573325098773845,8,3,4,5,20,-31,6,7
1573325098773845,-1,-6,-3,2,5,37,8,4
1573325098785556,0,-2,-3,4,73,60,26,-1
1573325098785556,-7,-3,-5,-5,-42,-53,-44,-11
1573325098794339,0,1,3,1,14,4,-7,1
1573325098794339,3,7,9,0,-38,-17,3,-10
1573325098812692,-8,-5,-3,3,19,33,13,5
1573325098812692,-2,-6,-4,-5,-13,20,22,3
1573325098814584,-1,-3,-1,13,72,36,2,-1
1573325098814584,4,1,-5,-11,-97,-76,-1,5
1573325098832340,6,4,3,4,93,26,9,3
1573325098832340,0,-1,-4,-11,-100,-52,18,1
1573325098833129,1,1,-2,-5,-6,-23,-54,-1
1573325098833129,-5,-3,-4,-5,37,-40,-11,-2
1573325098845683,7,-6,-10,-7,5,68,22,0
1573325098845683,-2,-1,4,3,-30,-7,-7,-3
1573325098854506,8,4,5,7,-12,4,17,4
1573325098854506,-1,-2,-3,-13,-34,-31,5,1
1573325098877141,5,4,9,21,41,-36,-14,8
1573325098877141,-16,0,-2,-9,-67,20,-2,-11
1573325098878849,-8,-8,-10,-28,-47,-38,-4,-15
1573325098878849,5,-7,-11,-12,22,51,6,9
1573325098891427,-1,1,1,-2,-61,-47,-7,-2
1573325098891427,10,-2,-11,-18,59,28,10,14
1573325098893335,-18,0,11,16,-6,1,7,-17
1573325098893335,11,2,3,21,-15,56,28,18
1573325098906589,-5,-5,-7,-9,67,-18,9,-12
1573325098906589,-14,-6,-1,15,-19,-75,-9,-27
1573325098914964,-7,-3,-10,-21,-18,47,1,-22
1573325098914964,-3,-4,-12,-28,6,-11,1,-27
1573325098937410,-12,3,12,17,-40,-9,-7,7
1573325098937410,45,11,12,8,27,-3,3,19
1573325098938899,-27,-7,-10,3,-1,-15,0,15
1573325098938899,9,2,3,18,-2,29,-21,-1
1573325098952390,8,4,4,-11,-15,-19,-8,10
1573325098952390,43,7,9,68,12,20,14,-40
1573325098953364,-36,-7,-17,-29,4,3,2,6
1573325098953364,16,0,7,-4,33,11,-7,4
1573325098965262,-21,-4,-4,7,-3,-12,-8,-7
1573325098965262,-8,-7,-14,-42,-75,-27,31,-12
1573325098974906,68,21,18,15,26,17,12,46
1573325098974906,-35,-4,-1,15,17,2,1,-16
1573325098989552,27,1,-7,3,-29,-1,-19,24
1573325098989552,-44,-16,-23,-81,21,1,-17,-76
1573325098990519,0,3,13,46,22,18,11,16
1573325098990519,-2,-1,-5,-58,-12,-55,-5,109
1573325099012243,37,27,26,66,10,-8,24,-22
1573325099012243,-44,-39,-24,-9,18,51,-23,48
1573325099013944,-16,-5,0,-1,-31,-7,8,-76
1573325099013944,-27,2,4,22,38,57,-18,-52
1573325099025658,23,-10,-18,-41,11,-35,10,21
1573325099025658,-15,8,14,9,-64,-2,24,-1
1573325099034436,17,11,7,3,4,-5,-40,-9
1573325099034436,-7,-8,-6,3,-10,24,20,-15
1573325099049079,-15,-4,-4,-20,-43,-71,8,-42
1573325099049079,11,8,12,25,41,26,-7,17
1573325099051031,12,11,0,-2,16,54,12,16
1573325099051031,3,-14,-16,5,69,12,-5,-18
1573325099071524,-13,-20,4,-10,92,74,7,25
1573325099071524,37,30,15,14,-3,-47,-5,42
1573325099073539,-9,-13,-10,-13,0,-35,-13,-21
1573325099073539,6,4,-3,3,-17,0,7,0
1573325099085188,-27,-3,-5,-7,7,0,-9,-6
1573325099085188,36,29,19,9,28,-10,9,84
1573325099093974,-7,-6,-11,-8,11,38,-2,-54
1573325099093974,9,2,2,6,-15,7,-1,-10
1573325099109926,-6,-11,-10,-5,-42,-11,-12,17
1573325099109926,-8,3,3,4,26,8,-8,4
1573325099111540,-2,-2,2,-1,-29,-23,18,36
1573325099111540,-3,-10,-6,-5,-26,-12,-33,-8
1573325099138989,-5,16,5,-6,-20,1,-13,24
1573325099138989,8,-4,-4,5,19,47,24,37
1573325099140821,-5,-14,-5,0,76,-10,-12,18
1573325099140821,-3,2,12,5,-64,-16,63,5
1573325099145701,-7,-3,-8,-11,-41,-59,1,-45
1573325099145701,12,6,-1,2,-2,38,-5,-12
1573325099154484,-4,-4,6,-3,11,-41,-5,-46
1573325099154484,13,5,14,11,-13,-2,-14,-2
1573325099169128,12,13,1,-4,5,28,4,-19
1573325099169128,21,11,2,-6,1,-4,26,62
1573325099171077,-9,-12,-5,4,8,4,-10,-12
1573325099171077,-10,-3,-12,-6,4,-9,-7,-14
1573325099199659,11,5,9,4,-5,11,-1,19
1573325099199659,-27,-20,-7,0,8,5,-14,-31
1573325099201404,-2,15,-3,-7,-17,-10,7,37
1573325099201404,11,6,-1,-5,4,-16,-4,16
1573325099214407,-25,-17,-10,-3,-10,5,-17,-34
1573325099214407,-8,0,8,4,7,-54,-26,-28
1573325099216136,17,2,0,0,-5,33,27,36
1573325099216136,2,-1,-3,-3,-4,1,8,15
1573325099229934,-1,5,-3,-6,0,15,-13,-8
1573325099229934,-32,-15,-4,2,-3,40,25,-47
1573325099230687,2,-5,-1,2,-8,-39,-29,10
1573325099230687,-2,4,4,-2,10,12,-19,4
1573325099259984,15,-1,-1,3,12,18,-10,20
1573325099259984,-4,-7,-5,0,-1,8,24,-21
1573325099260941,-3,-7,-6,-7,79,14,25,-13
1573325099260941,2,5,8,7,3,11,1,2
1573325099265869,3,-4,-4,-7,-28,-30,-4,-1
1573325099265869,-3,0,2,2,-11,-4,-15,-16
1573325099274605,2,9,4,12,43,67,13,20
1573325099274605,-5,-2,1,-3,-53,-70,-14,-13
1573325099288693,-11,-6,-1,1,30,5,6,-6
1573325099288693,13,-1,-3,-1,28,-7,-10,12
1573325099295584,-12,-6,-3,-4,-70,-26,-16,-22
1573325099295584,-7,-4,-2,-2,25,28,40,-4
1573325099312163,9,-1,2,7,-2,-7,-35,20
1573325099312163,-9,3,-2,-2,30,15,-1,-58
1573325099313939,26,0,3,5,15,-27,-28,44
1573325099313939,-8,-5,-6,-4,-4,0,17,13
1573325099334441,25,15,9,5,-25,35,33,21
1573325099334441,-12,-8,-6,-3,18,-85,-36,-29
1573325099336388,12,8,6,1,-52,-12,0,50
1573325099336388,0,4,3,9,84,-43,-39,-12
1573325099349075,-3,2,2,0,-2,21,23,-1
1573325099349075,0,-1,-3,2,-25,113,9,27
1573325099355908,-9,-4,-2,-13,-32,-99,19,-29
1573325099355908,4,-3,-5,-4,-5,-31,-26,10
1573325099371673,-18,-2,0,1,23,-14,1,-12
1573325099371673,-10,6,10,1,-11,1,3,-40
1573325099373476,13,0,-1,12,42,36,-20,49
1573325099373476,-9,1,1,-2,-53,-13,28,-12
1573325099385842,-4,-9,-6,1,10,-21,-21,12
1573325099385842,-5,-5,-5,-4,-81,-5,-6,22
1573325099394629,-19,-14,-13,-14,-35,8,33,-47
1573325099394629,11,3,-3,-12,24,17,-16,9
1573325099409272,-2,-1,4,16,0,17,5,-11
1573325099409272,-15,-5,-2,-5,17,-28,-20,1
1573325099423263,12,3,2,-7,-8,-46,-35,54
1573325099423263,1,-13,-20,-4,-15,51,2,-20
1573325099431976,-17,2,-4,-14,0,-62,-5,-90
1573325099431976,-11,-1,5,11,10,77,36,-42
1573325099433663,11,7,9,9,-4,-52,-27,15
1573325099433663,13,4,6,-2,23,111,-18,29
1573325099454338,-8,-4,-9,-31,-7,20,16,13
1573325099454338,14,4,2,9,12,-50,22,58
1573325099460992,2,-2,-7,10,0,38,-6,-3
1573325099460992,6,11,4,7,25,-18,-9,10
1573325099468943,23,-8,1,15,85,-9,-15,-29
1573325099468943,10,-7,1,-20,-65,-44,4,31
1573325099475743,-93,-13,-14,-37,17,2,44,-113
1573325099475743,25,1,7,8,-15,-27,-19,104
1573325099492011,-8,6,-2,9,3,32,29,7
1573325099492011,8,-1,-6,2,39,17,-53,-14
1573325099493802,7,2,-3,6,-20,-10,9,0
1573325099493802,16,1,0,-5,-8,-10,39,-6
1573325099514304,-7,-3,-2,-6,-35,-19,-25,3
1573325099514304,-13,1,2,-10,6,28,47,-2
1573325099516249,1,10,15,23,11,28,-7,1
1573325099516249,-4,0,-1,-5,6,-12,12,-28
1573325099528939,-5,-5,-5,-23,-7,59,37,15
1573325099528939,24,3,3,16,15,-15,-69,12
1573325099535768,5,1,1,-7,1,-23,-2,-18
1573325099535768,-31,-5,3,22,7,-9,2,-37
1573325099552359,16,4,2,2,-16,-12,-17,20
1573325099552359,-12,-4,-7,-8,10,24,-1,-12
1573325099553335,12,-6,-7,-11,-11,4,21,-2
1573325099553335,-3,-4,-1,-1,-11,-14,-28,-16
1573325099574811,0,10,2,-1,2,-14,-1,9
1573325099574811,-1,9,10,4,-26,-11,7,-1
1573325099575782,10,-10,0,12,7,17,-3,15
1573325099575782,-3,-11,-5,-7,7,7,9,-14
1573325099588653,2,9,7,7,-11,-4,-10,0
1573325099588653,-1,-6,-9,-7,-2,8,43,7
1573325099595479,0,-3,-4,-1,25,58,-45,-14
1573325099595479,-3,-2,-4,-2,-59,-64,6,-21
1573325099612072,11,0,0,-1,10,2,0,14
1573325099612072,1,6,3,2,-3,-19,2,0
1573325099613520,0,-1,2,0,-15,-46,-13,4
1573325099613520,-14,5,2,1,23,83,11,-11
1573325099634576,15,0,-1,4,9,-6,-35,13
1573325099634576,-6,-3,-2,2,4,-17,44,0
1573325099636471,7,1,-2,-4,8,26,26,4
1573325099636471,0,4,2,-1,3,-21,-23,-3
1573325099648183,-2,5,2,3,-15,-11,24,17
1573325099648183,-19,-24,-10,-8,6,1,-24,-21
1573325099664775,9,3,2,2,-4,2,7,-8
1573325099664775,10,3,0,1,4,-4,0,9
1573325099679415,-8,-4,-4,-2,-11,11,12,12
1573325099679415,5,3,-1,0,17,-7,-18,19
1573325099681368,6,-2,-1,-2,-10,7,15,19
1573325099681368,-40,-10,0,0,2,0,-17,-50
1573325099694055,-11,-7,-2,3,7,-10,6,-20
1573325099694055,6,3,-2,3,62,18,-18,26
1573325099696345,-5,-1,-2,-9,-92,-18,-13,54
1573325099696345,11,7,8,9,-3,-7,-2,8
1573325099707770,0,0,-3,-7,17,16,-17,5
1573325099707770,-9,-1,2,9,25,-17,-6,-13
1573325099716534,-26,-17,-12,-14,-45,-7,1,-56
1573325099716534,9,0,-8,-7,21,27,8,5
1573325099738950,-28,-13,-5,-4,-31,-32,3,-16
1573325099738950,12,16,9,2,-20,-8,-4,-13
1573325099740901,15,15,7,2,56,23,22,15
1573325099740901,-10,-15,-10,-2,1,-30,-2,-3
1573325099754598,5,-3,-6,-8,-51,0,-2,2
1573325099754598,-5,13,11,10,-5,12,8,9
1573325099756693,-7,9,7,2,-5,-2,8,-53
1573325099756693,4,-8,-2,-3,-35,-6,2,53
1573325099768229,10,2,1,3,44,26,-2,4
1573325099768229,5,-7,-8,-9,-17,-13,-2,-2
1573325099777013,0,2,3,4,8,-6,-7,-53
1573325099777013,10,7,-1,-4,20,6,-1,-13
1573325099791653,-24,-17,-2,3,0,-7,-11,-32
1573325099791653,8,-4,-5,-1,3,-29,-13,-2
1573325099793605,-4,-2,-3,-1,73,38,0,12
1573325099793605,7,2,-3,-7,-22,-4,-8,7
1573325099815077,3,-1,0,2,9,30,31,5
1573325099815077,-5,-3,-3,1,15,31,-64,-10
1573325099816053,10,6,9,11,5,-32,9,25
1573325099816053,-4,5,2,-3,20,38,-5,-8
1573325099828005,9,9,3,-2,-14,-19,6,7
1573325099828005,-4,-6,-2,3,24,26,16,-5
1573325099837528,7,1,-1,-1,-44,-26,-12,19
1573325099837528,0,5,4,4,5,9,1,-13
1573325099852225,-2,-1,4,9,21,19,3,-8
1573325099852225,4,-3,-5,-1,-29,-20,11,8
1573325099853143,4,-2,-7,-4,50,27,-6,1
1573325099853143,0,0,1,1,28,-1,16,1
1573325099874638,3,3,3,4,-17,-16,-13,-6
1573325099874638,1,5,1,-3,-14,-15,6,-8
1573325099876659,1,-5,-1,3,-22,3,-4,16
1573325099876659,-7,-5,-4,-3,19,-10,-4,-20
1573325099887896,0,-6,-7,-4,2,-26,2,-13
1573325099887896,2,2,0,-3,-9,15,-5,7
1573325099897571,4,-4,-3,2,60,22,-2,-2
1573325099897571,4,1,0,0,-11,15,3,17
1573325099912290,-6,4,3,-7,-47,-24,-39,-14
1573325099912290,-1,0,0,-1,-31,-12,25,-3
1573325099913746,-9,-3,-1,-10,-11,2,-4,-8
1573325099913746,0,-2,-1,5,-18,-33,-6,3
1573325099941493,0,-2,-3,-3,9,26,13,-11
1573325099941493,-8,-5,-1,0,15,-4,-1,-19
1573325099943442,-2,0,-1,9,16,8,15,-16
1573325099943442,6,-1,0,-2,4,13,8,16
1573325099948323,-7,-1,-2,-4,-31,14,10,-8
1573325099948323,-5,-4,-7,-4,1,-48,-10,-16
1573325099957117,-6,-2,-5,-8,-3,-7,3,-18
1573325099957117,-7,0,1,-5,-26,-14,7,-13
1573325099971745,-6,0,3,7,73,-6,1,20
1573325099971745,11,1,-3,-2,-37,-8,-2,30
1573325099973774,3,1,-2,-1,-17,8,-14,-12
1573325099973774,-11,-3,-1,-5,-39,-1,14,-22
1573325099994517,16,3,4,9,77,40,-21,45
1573325099994517,-11,-7,-8,-23,-16,-68,3,7
1573325099996009,12,3,-2,5,-48,-21,-11,10
1573325099996009,-5,-3,0,3,18,8,12,-13
1573325100008631,-12,2,0,8,-21,0,-7,-19
1573325100008631,8,7,11,14,7,0,-16,3
1573325100017416,-1,-6,-5,-6,21,25,41,9
1573325100017416,13,0,-3,-2,-26,-4,-35,24
1573325100032055,-15,-10,-12,-5,-24,-12,-12,-17
1573325100032055,3,-8,-10,-11,0,7,4,13
1573325100034007,20,6,6,-7,-3,4,4,37
1573325100034007,-21,-4,-4,-20,22,11,-1,-18
1573325100062309,19,2,4,15,19,-14,1,19
1573325100062309,-2,3,-1,-18,-41,12,5,-23
1573325100063285,-11,-1,3,10,3,-4,-19,-12
1573325100063285,29,5,-2,-5,15,-15,20,17
1573325100076992,-7,0,0,1,3,2,-8,-12
1573325100076992,-31,-7,-10,-40,-6,2,-12,-36
1573325100078903,28,11,11,18,7,6,68,37
1573325100078903,-64,-6,1,1,11,31,-60,-60
1573325100091588,24,6,2,-2,-31,31,17,12
1573325100091588,0,-4,-4,6,10,-2,0,9
1573325100093541,-4,-6,-9,-18,-10,47,-16,-14
1573325100093541,16,7,10,29,12,-85,13,9
1573325100114036,3,-6,-3,-3,2,36,53,15
1573325100114036,24,-3,-5,-2,13,0,-77,-4
1573325100116083,-12,-7,-6,-3,-13,-20,-11,4
1573325100116083,-3,1,1,-1,-7,13,11,4
1573325100127700,4,4,1,-7,-6,-12,-14,15
1573325100127700,-8,0,7,24,36,22,31,-19
1573325100136485,-10,-1,2,-2,2,-22,-9,-25
1573325100136485,3,-4,-5,-5,-2,5,-10,-3
1573325100152100,-6,-3,-4,-10,-19,-30,1,-10
1573325100152100,-3,-4,-3,11,17,25,15,25
1573325100153527,-10,1,2,2,19,-2,-15,-14
1573325100153527,-8,-2,5,5,22,13,9,-4
1573325100174549,-14,-3,-1,-2,-30,-32,-17,-15
1573325100174549,31,12,4,8,15,2,31,36
1573325100176041,-8,-10,-8,-4,-16,-22,-23,-23
1573325100176041,10,2,-1,-5,5,28,-2,10
1573325100188167,-14,-7,-2,0,15,-21,11,-19
1573325100188167,-6,9,9,8,20,33,-19,6
1573325100197587,-4,0,-4,-4,21,-36,5,7
1573325100197587,13,-8,-12,-7,-17,10,-7,13
1573325100211255,7,6,0,-4,-14,-26,-3,-9
1573325100211255,-15,-10,-5,3,11,24,50,-4
1573325100218083,23,11,7,7,-1,5,-16,63
1573325100218083,1,6,6,5,-1,4,9,20
1573325100234675,-2,-10,-7,-7,-4,-19,-25,-32
1573325100234675,8,14,5,4,-2,14,23,-2
1573325100235683,-36,-26,-17,-7,-12,2,-6,-37
1573325100235683,-4,-1,-2,-2,-7,-14,3,-2
1573325100248339,5,3,7,3,6,17,12,29
1573325100248339,1,3,3,1,-9,-11,-12,5
1573325100257124,0,2,5,4,0,9,-8,-27
1573325100257124,10,9,-2,-1,-3,-9,1,12
1573325100270794,-3,-2,-3,-1,-1,7,-3,-1
1573325100270794,2,0,0,1,-4,-10,-25,-9
1573325100277726,5,1,0,-4,10,26,40,0
1573325100277726,7,1,3,0,6,12,18,-1
1573325100294217,-8,3,0,-4,-24,-4,4,4
1573325100294217,3,-1,-5,-3,-20,6,-42,7
1573325100296165,9,6,3,1,-10,-39,-3,15
1573325100296165,4,-2,-3,1,25,-3,0,-4
1573325100308920,11,-2,-1,0,8,17,0,4
1573325100308920,-8,-7,-6,-6,11,-22,9,3
1573325100323525,-5,3,4,0,-12,19,-4,9
1573325100323525,-22,-8,-4,-4,-7,-3,-16,-43
1573325100331305,3,5,0,-1,8,-18,7,-21
1573325100331305,-1,-2,2,1,-6,14,16,16
1573325100338311,-16,-9,-4,1,2,0,-15,-36
1573325100338311,6,0,3,0,-18,-4,5,34
1573325100354921,13,7,2,2,10,15,8,7
1573325100354921,-1,4,4,5,0,-8,-6,-10
1573325100355748,-7,-1,-1,-2,27,19,29,-2
1573325100355748,0,0,0,0,-21,-33,-27,-14
1573325100384692,2,-1,0,-1,-6,-7,-5,8
1573325100384692,-7,-4,-4,-1,-11,-7,-4,-6
1573325100386209,-4,1,0,0,3,-13,-9,5
1573325100386209,7,3,2,2,2,30,7,-1
1573325100391546,-2,0,1,0,11,-6,-24,15
1573325100391546,-8,-2,0,3,60,25,25,-12
1573325100398367,11,3,-1,-2,-51,-22,3,19
1573325100398367,-10,-6,-4,-3,-7,0,15,-12
1573325100413984,-7,-7,-3,-2,-13,5,7,-1
1573325100413984,-6,-4,0,1,16,7,-26,-13
1573325100415936,5,5,1,1,8,-16,-7,9
1573325100415936,6,3,2,0,-7,7,-1,4
1573325100436586,1,-4,-9,-3,8,16,10,9
1573325100436586,-3,-1,2,-1,-19,15,6,-12
1573325100443308,8,3,2,3,1,-51,0,5
1573325100443308,8,3,3,3,-1,-6,-14,30
1573325100451071,-14,-5,-2,-1,4,8,-5,-30
1573325100451071,14,1,-4,-2,4,0,9,47
1573325100458311,-13,-6,-7,-6,-25,-4,-15,-20
1573325100458311,-15,0,0,1,13,-4,1,-61
1573325100474493,7,-2,-1,-2,23,-7,-8,17
1573325100474493,-9,-5,-4,-6,-37,-35,-16,-18
1573325100475467,0,2,0,0,12,36,9,19
1573325100475467,0,-4,-2,-4,-10,-10,-7,38
1573325100496942,-4,0,0,0,2,4,11,-38
1573325100496942,6,-1,4,5,4,-9,-6,54
1573325100498893,-1,-1,1,0,1,33,-4,-4
1573325100498893,-3,-4,-2,-3,4,7,15,-12
1573325100511798,-2,2,0,0,-8,-22,-27,-5
1573325100511798,3,-1,1,0,-10,2,13,-27
1573325100518619,-7,-5,-2,-1,-5,-19,-24,-11
1573325100518619,4,1,-2,-1,-4,4,10,35
1573325100535039,-4,1,0,-2,-7,-19,0,-9
1573325100535039,7,1,1,1,-5,20,7,45
1573325100535983,2,4,0,1,7,8,0,29
1573325100535983,2,-2,-1,4,12,-5,-7,-34
1573325100557590,2,-1,2,3,7,12,-3,41
1573325100557590,-7,-1,-3,-5,-15,-13,1,-43
1573325100558431,-5,-3,-1,-2,3,30,6,-18
1573325100558431,-1,-4,-3,-4,-10,-54,7,36
1573325100570141,-2,1,-1,-1,-1,12,-1,-5
1573325100570141,-3,1,0,-1,-2,-4,4,-26
1573325100579900,4,0,-2,-2,-1,-4,-3,5
1573325100579900,-8,-3,-1,-2,-2,11,4,-25
1573325100594160,1,-1,1,0,-5,0,-3,9
1573325100594160,-2,-3,-1,0,-3,-10,-7,-3
1573325100600943,-10,-1,0,-3,-6,1,9,-27
1573325100600943,-5,-5,-5,0,2,3,1,-21
1573325100616769,-17,-8,-4,-4,-11,-11,1,-36
1573325100616769,18,2,1,1,0,6,-17,88
1573325100618510,-16,-3,-2,-5,-5,-10,12,-82
1573325100618510,18,6,4,7,2,9,-18,62
1573325100630616,2,2,1,1,-2,-3,-8,-9
1573325100630616,-17,-2,-3,-3,-3,-6,4,-68
1573325100639009,-1,-1,-5,-3,-1,-1,2,-14
1573325100639009,-9,-6,-3,-5,-5,1,2,-14
1573325100654623,4,0,0,-1,-3,5,6,-2
1573325100654623,-3,0,1,0,-2,0,-2,-13
1573325100655598,4,1,2,1,0,-3,-9,33
1573325100655598,-7,-5,-4,-3,-4,2,-4,-28
1573325100677070,-2,1,-9,-4,-2,4,-4,2
1573325100677070,15,5,0,6,0,4,23,91
1573325100678047,5,13,28,12,7,-6,-10,-7
1573325100678047,10,5,4,3,5,19,-1,16
1573325100690735,0,-2,-1,0,-2,2,11,33
1573325100690735,-6,-2,-8,-5,-4,-17,-22,-34
1573325100699560,-4,-4,-11,-9,-4,12,-7,36
1573325100699560,8,-5,2,7,0,-10,8,52
1573325100714164,1,1,-1,-2,-4,-35,-4,5
1573325100714164,3,-6,1,1,1,36,-6,11
1573325100716110,3,1,-5,0,1,-6,-7,-13
1573325100716110,-19,-6,-2,-8,-3,-2,-7,-88
1573325100738561,3,-7,-4,0,-1,6,0,28
1573325100738561,-8,0,0,-3,-2,-23,7,-49
1573325100739534,-2,-3,0,1,1,-4,-5,-37
1573325100739534,11,14,-2,-3,-1,0,-1,36
1573325100750690,4,7,5,4,-2,-2,-3,-20
1573325100750690,-1,0,2,-5,-2,2,2,-9
1573325100759142,-8,-13,-5,1,1,4,-3,18
1573325100759142,-10,2,-3,-2,-1,-1,5,8
1573325100774676,13,14,2,2,3,8,-10,52
1573325100774676,2,-17,-1,1,0,-3,-7,43
1573325100775647,18,10,-7,-3,0,-4,-18,15
1573325100775647,1,-10,-4,-3,-2,-6,0,-27
1573325100796730,1,-6,2,-3,1,4,6,9
1573325100796730,-14,5,2,-1,-2,1,9,-54
1573325100798679,-19,-12,-4,-1,-5,-4,7,2
1573325100798679,-12,2,4,2,1,1,-6,9
1573325100810405,13,3,2,3,-2,2,-10,-89
1573325100810405,22,4,-3,2,0,-2,4,-27
1573325100819422,14,7,4,3,-1,-4,7,24
1573325100819422,-5,4,4,-2,1,3,-11,33
1573325100834792,1,-18,-9,-4,-2,6,11,-37
1573325100834792,-11,1,-1,-3,-1,-5,-10,94
1573325100835767,-9,2,0,-1,0,1,4,-9
1573325100835767,-12,-9,-8,-3,-4,-4,-5,-50
1573325100857236,-8,-12,-1,-2,-3,1,15,21
1573325100857236,-6,1,-2,-6,-3,-1,3,-37
1573325100858213,-15,1,2,3,1,-2,-3,6
1573325100858213,27,10,5,4,1,-1,4,11
1573325100870911,8,6,-7,-3,1,0,1,16
1573325100870911,-40,-3,-5,-5,-2,-1,5,-45
1573325100879685,-31,-19,-5,-2,-5,-3,-6,-21
1573325100879685,33,8,5,4,2,3,11,43
1573325100894461,24,5,4,-11,-1,-1,-5,14
1573325100894461,-2,8,1,4,3,3,8,-12
1573325100896408,13,5,2,4,4,0,-8,11
1573325100896408,-8,1,5,4,2,5,8,19
1573325100916979,-75,-4,0,5,1,2,-17,100
1573325100916979,26,7,-4,-5,-4,-4,-2,-5
1573325100918855,-16,-9,-5,-2,0,2,8,35
1573325100918855,10,-21,-1,-3,-3,2,2,-29
1573325100930654,16,0,-3,0,-1,-2,1,-2
1573325100930654,-7,-1,5,3,0,-2,-6,-1
1573325100939434,26,13,0,1,1,-1,-1,3
1573325100939434,1,10,1,0,-3,-1,-5,-3
1573325100954974,6,-1,0,0,-4,-1,-6,17
1573325100954974,6,0,1,-1,-2,1,5,15
1573325100955943,16,0,-2,-2,2,0,2,5
1573325100955943,25,-1,-3,-4,-3,-2,0,-19
1573325100977412,-26,3,4,4,1,5,1,48
1573325100977412,7,-5,-9,-3,-3,-4,-9,-21
1573325100978391,2,-11,3,2,0,-1,1,3
1573325100978391,10,12,-1,0,-2,-1,-1,-57
1573325100990428,-44,-4,3,4,4,1,7,-42
1573325100990428,47,-3,-4,-2,-1,-1,-10,51
1573325100999191,-23,-11,-5,-1,0,-1,-2,-5
1573325100999191,-40,-9,-10,-3,1,-1,-3,-25
1573325101021588,-17,-10,5,0,0,-1,5,-27
1573325101021588,5,12,6,6,4,4,14,14
1573325101023895,85,14,0,-4,-1,1,6,-29
1573325101023895,-73,-19,-6,-3,-1,-2,-10,123
1573325101037161,2,9,8,0,-2,-3,1,3
1573325101037161,-20,1,7,4,-1,-1,0,-42
1573325101038131,5,-12,-5,0,-3,0,4,-20
1573325101038131,1,-7,-9,-4,-3,0,9,-30
1573325101051009,19,4,-4,-4,-4,-3,2,-35
1573325101051009,-4,3,3,0,-2,-4,-8,-18
1573325101059708,26,14,5,0,2,4,8,54
1573325101059708,-13,4,2,1,1,0,-2,-26
1573325101073658,103,-8,-7,-2,-3,-3,2,35
1573325101073658,-4,7,3,1,4,5,3,34
1573325101082202,-109,-26,-11,-6,-5,-6,-2,-70
1573325101082202,-3,-7,-4,0,-3,-1,-4,30
1573325101097301,17,8,-1,0,0,-2,-5,-40
1573325101097301,-12,-5,0,-3,-3,-2,6,-60
1573325101099252,5,26,10,3,1,4,8,-28
1573325101099252,58,-1,-10,-10,-6,-9,-12,-19
1573325101110968,-55,-9,-5,-2,-4,-6,-12,-23
1573325101110968,16,3,-1,-1,-1,-4,-1,-22
1573325101119746,26,-10,1,-1,-2,-3,-7,0
1573325101119746,58,11,11,9,6,9,13,46
1573325101133408,36,4,1,0,4,1,-2,-8
1573325101133408,-20,-9,-5,-7,-5,-3,-5,15
1573325101142282,18,8,2,4,3,-1,-4,-10
1573325101142282,-10,4,0,-5,-2,-3,-7,-28
1573325101157819,-19,-7,1,3,6,3,9,70
1573325101157819,12,5,6,4,1,4,4,33
1573325101158846,-22,1,0,0,0,0,-6,37
1573325101158846,-71,-34,-15,-11,-8,-8,-10,-22
1573325101170777,4,13,-1,-3,-6,0,0,-33
1573325101170777,-49,-16,-3,-1,0,-1,-1,-15
1573325101179313,30,11,3,1,4,2,4,31
1573325101179313,6,7,6,4,2,0,4,-20
1573325101193287,-7,-3,-2,-3,-1,0,3,-24
1573325101193287,8,-4,-6,-4,-2,-2,3,-56
1573325101201101,-1,1,-1,0,-1,-1,-3,44
1573325101201101,-12,-1,2,0,1,2,3,-19
1573325101218665,2,4,0,0,-2,-8,-11,-20
1573325101218665,25,-9,1,1,1,13,5,42
1573325101219638,-14,-7,-1,-1,-5,5,8,34
1573325101219638,-30,14,1,-2,-5,-19,-36,-73
1573325101230375,38,11,-2,1,2,0,-12,-28
1573325101230375,-11,-9,-2,1,-2,-26,-30,22
1573325101239276,-23,4,-1,-2,-2,-2,4,-11
1573325101239276,-26,-14,0,4,1,20,12,69
1573325101254085,19,4,0,0,3,7,1,46
1573325101254085,-55,-2,-1,0,5,14,-27,-106
1573325101260764,36,-5,-4,-3,-3,-11,17,50
1573325101260764,20,-3,1,0,1,49,33,-10
1573325101277422,-59,-1,2,-1,-2,44,-6,-35
1573325101277422,72,26,-2,-2,-2,-62,-45,45
1573325101278203,-17,-6,-6,-6,-6,-11,-16,4
1573325101278203,-50,-6,2,3,4,-1,9,68
1573325101291108,32,-12,-5,-3,-4,6,12,-46
1573325101291108,-4,-1,6,3,0,24,24,82
1573325101299684,-9,5,1,1,2,4,-12,-48
1573325101299684,30,7,-1,-2,-3,-12,-9,-75
1573325101314444,-8,-6,-1,-1,-2,-17,5,-5
1573325101314444,-22,-6,-3,0,-1,0,8,30
1573325101320546,12,-6,-4,-3,-3,0,12,30
1573325101320546,17,1,-1,1,1,-7,1,2
1573325101336993,-17,-3,1,0,-5,-10,1,57
1573325101336993,80,9,0,1,6,10,9,2
1573325101338930,-86,-37,-8,-2,0,5,-26,48
1573325101338930,22,7,-1,-2,-2,-13,-2,-31
1573325101360289,-9,-2,-1,0,0,-10,3,15
1573325101360289,14,-4,-2,-3,-5,7,5,19
