timestamp,emg1,emg2,emg3,emg4,emg5,emg6,emg7,emg8
1570181543053013,0,-1,0,1,0,1,-1,0
1570181543053013,-1,-1,-2,0,-1,1,0,-1
1570181543054812,0,-1,0,-1,0,0,-1,-1
1570181543054812,1,0,-1,-1,-1,-1,-2,1
1570181543055809,-4,-1,-1,-1,-2,-2,-4,-17
1570181543055809,1,-1,-1,-1,1,-3,-3,2
1570181543057804,-1,-1,-2,0,0,0,0,1
1570181543057804,-1,-1,-1,0,0,0,0,-3
1570181543059798,3,-2,-1,-1,-2,-1,1,5
1570181543059798,0,0,1,0,1,0,-2,-3
1570181543071766,-1,-1,0,-1,1,0,0,-2
1570181543071766,-1,-3,-2,-2,0,-1,-1,-2
1570181543082740,-2,0,-2,-1,2,1,1,2
1570181543082740,-2,0,1,-2,-1,-1,0,-5
1570181543086765,2,-1,-2,1,-1,-1,-8,17
1570181543086765,6,2,2,0,-2,-1,-7,9
1570181543103152,-1,0,1,1,0,-2,1,5
1570181543103152,0,0,-3,1,-1,-2,-4,5
1570181543117682,-2,-1,-2,0,-2,-1,0,-7
1570181543117682,-4,-2,-1,-1,-1,0,-1,-9
1570181543125629,3,-1,1,1,0,-2,1,5
1570181543125629,-1,-1,0,-1,-1,0,1,-2
1570181543164378,2,1,1,1,0,-2,-5,2
1570181543164378,-1,-1,-1,-1,-2,-1,0,0
1570181543165519,-1,-1,-2,1,-1,-1,-1,0
1570181543165519,-1,-1,-1,-2,-1,1,1,-1
1570181543166663,0,-2,0,-2,0,2,0,0
1570181543166663,0,0,-1,-1,-1,-1,-2,-3
1570181543168518,-1,0,1,0,0,0,-1,1
1570181543168518,-1,-2,-3,0,-1,1,5,2
1570181543176488,-2,1,0,1,-2,-2,-1,-3
1570181543176488,-5,-2,-2,-2,-1,1,12,-16
1570181543183648,0,-1,-3,-1,-1,-2,-5,3
1570181543183648,-2,0,-1,-1,-2,-2,-3,-3
1570181543191548,1,0,-1,0,-1,-3,1,0
1570181543191548,-2,-1,-1,0,0,0,-2,-7
1570181543214496,0,1,1,-2,0,0,2,-1
1570181543214496,-1,-1,-3,-1,-1,1,5,11
1570181543215386,-2,0,0,1,0,-5,-5,-2
1570181543215386,-2,-1,0,0,2,-1,-4,1
1570181543237566,1,-3,-2,0,-1,1,1,-1
1570181543237566,0,-1,1,1,0,-1,-6,-1
1570181543239013,-1,0,-1,-3,0,3,1,1
1570181543239013,0,1,-1,0,-1,0,-1,4
1570181543252298,0,-1,-1,-1,-1,-3,0,-2
1570181543252298,0,-3,-2,-3,1,0,3,-2
1570181543253286,-2,0,-2,-1,-1,0,-1,-3
1570181543253286,2,1,2,-1,1,-2,-2,2
1570181543274233,-2,1,0,-1,1,1,0,-2
1570181543274233,1,0,2,-1,-2,-2,-3,-2
1570181543275236,-1,0,0,-1,1,0,0,3
1570181543275236,3,-1,-1,-1,-1,1,-3,11
1570181543297574,-2,-2,-2,-1,-1,1,0,0
1570181543297574,-4,-2,0,-2,0,2,1,-10
1570181543298170,1,-1,-3,0,0,-1,-2,3
1570181543298170,0,1,0,0,0,-1,-1,-1
1570181543312304,1,-2,-2,-1,0,-1,1,3
1570181543312304,-1,0,-1,1,0,-1,-1,-5
1570181543313123,-3,-3,-3,-2,-1,0,4,-4
1570181543313123,0,-1,1,-2,-1,-3,-2,-2
1570181543334290,-2,0,-1,-2,-3,1,-2,-4
1570181543334290,4,2,2,2,0,0,-9,11
1570181543335068,-1,1,3,-1,-1,0,-1,-3
1570181543335068,-1,-1,-2,-1,-2,-1,2,0
1570181543358056,0,1,0,0,0,0,-3,3
1570181543358056,-1,-1,-2,0,-1,0,2,-1
1570181543358056,0,-1,-2,-1,0,0,-1,1
1570181543358056,-2,-1,-2,0,0,1,-2,0
1570181543372177,-3,-1,0,0,0,0,2,-4
1570181543372177,2,-1,-1,-1,0,1,1,23
1570181543372966,0,0,-2,0,-2,-1,-1,-1
1570181543372966,0,-1,0,-1,-1,-1,0,0
1570181543395041,-1,1,0,0,0,-2,-5,2
1570181543395041,-3,-2,0,-1,-1,-2,-3,-12
1570181543395041,-2,-2,-1,-1,0,1,1,-1
1570181543395041,-1,-1,-2,0,-2,-1,1,2
1570181543418031,-1,-1,-1,0,-2,-1,2,-5
1570181543418031,0,1,-3,-1,0,-1,-2,-7
1570181543418843,0,-1,0,-1,0,0,1,-1
1570181543418843,0,-2,0,-2,0,0,-1,-5
1570181543432007,2,0,1,1,-2,-2,-6,-1
1570181543432007,-1,-1,-1,-2,-1,-1,-1,-2
1570181543432813,0,0,-1,1,-1,-1,0,3
1570181543432813,0,0,-2,-1,-1,0,-4,1
1570181543454749,0,0,1,-1,0,-4,-3,0
1570181543454749,-3,0,-2,-3,-1,0,1,-5
1570181543454749,-1,0,2,0,-1,-1,-1,-1
1570181543454749,-5,-2,-1,-1,-2,-1,-4,-18
1570181543478040,1,0,0,-1,-1,1,2,1
1570181543478040,-1,-1,0,0,-1,-2,-1,-6
1570181543478684,-5,-1,-1,-2,-1,0,9,-16
1570181543478684,2,1,0,1,0,-3,-7,5
1570181543492657,-3,-2,-3,-1,-1,0,1,-2
1570181543492657,0,1,-1,-2,1,0,3,3
1570181543493642,0,-1,0,-1,-1,0,1,-3
1570181543493642,0,0,1,-1,0,0,0,2
1570181543514604,0,1,1,0,0,-1,-2,-3
1570181543514604,0,-1,1,0,0,-1,-1,-1
1570181543515583,1,0,-2,-2,0,-3,-4,2
1570181543515583,1,0,-1,-1,0,1,3,4
1570181543537757,-1,-1,0,-2,-1,0,1,2
1570181543537757,-1,-1,-1,2,-1,-1,0,-3
1570181543538524,0,1,1,0,-1,0,-3,3
1570181543538524,-1,-2,-1,-1,0,-1,1,-4
1570181543552535,0,-2,0,2,0,2,2,5
1570181543552535,0,0,-1,0,1,-3,-2,-2
1570181543552535,3,0,0,1,0,-1,-7,6
1570181543552535,-1,-1,0,-1,-1,0,-1,-1
1570181543574676,1,-1,-1,-1,0,0,1,1
1570181543574676,6,3,1,1,-1,-3,-19,17
1570181543575423,-1,-1,-3,-1,0,0,0,5
1570181543575423,-1,0,0,0,-1,-3,1,-1
1570181543597623,-2,-1,-2,-2,-3,-2,-5,-9
1570181543597623,-1,-2,-2,-2,-2,0,6,1
1570181543598371,-2,-1,-2,-1,-1,1,0,-2
1570181543598371,-1,1,-1,-2,0,-1,-2,3
1570181543611506,-2,1,-1,-2,-2,-1,2,-5
1570181543611506,-1,-2,-1,0,-2,0,0,-5
1570181543619472,0,-1,0,0,-1,-2,-1,-3
1570181543619472,1,0,0,2,0,1,6,14
1570181543634486,-1,-2,-1,1,0,0,-1,2
1570181543634486,-3,-1,0,-1,1,0,2,-4
1570181543635270,0,-1,-1,-1,1,0,-1,2
1570181543635270,-1,-2,-2,0,-1,-1,0,-5
1570181543658202,1,1,-1,-1,-1,0,-2,1
1570181543658202,2,1,0,0,-1,0,-6,3
1570181543658202,6,1,1,2,0,-2,-15,14
1570181543658202,-1,0,-2,-1,0,1,0,-3
1570181543671216,1,-1,0,1,1,0,-2,4
1570181543671216,-1,1,1,-1,0,-3,2,-11
1570181543679157,1,1,1,0,-2,-2,0,6
1570181543679157,0,0,1,-1,-1,-1,-2,-2
1570181543694303,-1,-1,-1,-3,-1,-1,0,0
1570181543694303,-2,0,1,1,0,-1,1,-5
1570181543695175,-3,-1,-2,-1,-1,0,3,-7
1570181543695175,-2,-1,0,-3,0,-1,-1,-1
1570181543718045,-1,-1,1,-1,0,0,6,10
1570181543718045,-1,-2,-2,-1,-2,-1,0,-1
1570181543718045,-2,-2,1,-2,-2,1,1,-6
1570181543718045,1,-1,-1,1,0,1,-1,0
1570181543731429,-2,1,-1,1,1,-3,-2,-6
1570181543731429,-2,-2,-2,0,-3,0,1,1
1570181543739039,-2,-1,-2,0,1,0,-1,-2
1570181543739039,2,0,-3,-1,-1,-1,0,4
1570181543754134,1,1,-1,-1,1,-1,0,-4
1570181543754134,8,2,2,0,0,-2,-20,21
1570181543755437,-5,-1,-2,-1,-1,1,4,-10
1570181543755437,1,2,1,1,0,-2,-1,4
1570181543778066,0,0,0,-1,-2,1,-3,0
1570181543778066,-4,-1,-1,-1,-1,1,6,-8
1570181543778881,-1,-1,1,-1,0,0,2,-4
1570181543778881,0,0,3,0,0,0,2,10
1570181543791932,-2,-1,-1,-2,-1,-1,2,-6
1570181543791932,-2,0,-2,0,-1,2,7,-6
1570181543799913,0,0,-2,-2,-1,0,0,2
1570181543799913,-4,-1,-1,0,0,-1,-1,-8
1570181543814789,-2,-2,-1,-1,-1,-1,-1,-2
1570181543814789,-3,0,-1,-1,-1,-2,2,-2
1570181543815535,-1,1,0,0,-1,-2,-4,-1
1570181543815535,0,0,-2,-2,-2,0,-2,-1
1570181543837724,-2,-1,0,-2,-1,1,2,-8
1570181543837724,3,1,-1,-1,0,-3,-11,9
1570181543838804,-2,-1,1,-2,-3,-1,1,0
1570181543838804,-1,-1,-1,-1,0,-2,-2,-5
1570181543851684,1,-2,0,1,0,0,0,-1
1570181543851684,-3,-4,0,0,1,-1,8,-4
1570181543859713,-1,0,-2,-2,-1,-1,1,-2
1570181543859713,1,1,0,0,0,1,-4,11
1570181543874688,2,3,1,1,-1,-3,-7,2
1570181543874688,0,1,-1,-2,0,0,1,-8
1570181543875622,0,-3,-3,0,-1,-1,1,5
1570181543875622,-3,-2,-2,-1,-2,2,5,-10
1570181543897624,-1,-2,-2,-1,0,1,0,1
1570181543897624,1,-1,0,0,-1,0,1,0
1570181543898560,-2,-2,-1,0,0,-2,-6,-10
1570181543898560,-3,-3,-3,-1,0,1,11,-12
1570181543911524,-1,0,-1,-1,0,-1,-3,0
1570181543911524,-2,-1,0,-1,-1,-1,1,-2
1570181543919878,0,1,0,-1,-1,-1,1,2
1570181543919878,0,-2,0,0,-2,-1,-2,-2
1570181543934462,-2,-1,-1,0,0,0,-2,0
1570181543934462,-6,-2,-1,-1,0,-3,-4,-24
1570181543935460,-1,1,-1,-1,0,0,4,0
1570181543935460,-2,-1,-1,-1,0,-2,-5,0
1570181543957410,3,0,1,-2,1,-1,-4,6
1570181543957410,-1,0,-1,-2,-1,1,-1,0
1570181543958397,0,1,0,0,0,-1,0,-2
1570181543958397,0,2,1,0,-1,-1,-3,0
1570181543971500,-1,-2,-2,-1,-1,-2,1,-2
1570181543971500,0,-1,-1,-1,0,1,3,1
1570181543979343,2,-2,-2,1,-1,-2,-2,4
1570181543979343,-5,-3,-3,-1,0,0,9,-17
1570181543994308,1,1,-1,0,-3,-2,-3,-1
1570181543994308,-1,-3,-2,-3,-1,0,1,3
1570181543995407,0,0,-1,-1,-1,-2,0,-3
1570181543995407,1,-2,-3,-1,-3,-2,-1,2
1570181544017637,2,-1,-2,1,0,2,5,12
1570181544017637,-1,1,0,-1,-2,-4,-5,-3
1570181544018241,-1,0,1,0,-1,-1,-2,-2
1570181544018241,1,1,0,0,0,-1,-4,6
1570181544040236,-1,-1,0,-2,-2,0,-1,-3
1570181544040236,0,1,1,2,0,-1,0,4
1570181544041181,-2,-2,1,-2,-1,1,2,-1
1570181544041181,-1,0,0,-1,1,-1,-5,0
1570181544054145,-7,-4,-4,-2,-1,0,10,-15
1570181544054145,1,0,1,2,0,-1,1,-1
1570181544055276,1,0,-1,-2,0,1,0,-1
1570181544055276,-2,0,-1,0,-1,-2,-4,1
1570181544078147,-2,1,-1,-2,-2,0,-2,-3
1570181544078147,1,-1,-2,-2,-2,0,2,8
1570181544078147,4,1,0,0,0,-1,-11,19
1570181544078147,-2,-2,0,-1,-2,-1,-6,-12
1570181544100249,-1,-1,1,-1,1,-2,2,4
1570181544100249,0,-1,-1,0,-2,-1,-2,-2
1570181544101027,0,1,-1,0,-2,-1,0,-8
1570181544101027,1,-2,-1,-2,-2,1,-1,-1
1570181544114094,3,1,0,0,0,2,-1,12
1570181544114094,-1,0,0,1,1,0,1,-2
1570181544114993,-1,-1,-2,-2,0,-3,-2,-4
1570181544114993,1,1,1,0,-1,-1,0,4
1570181544136162,-2,-1,-1,-1,0,1,-1,-7
1570181544136162,-3,-3,-3,-2,-1,0,8,1
1570181544145177,3,2,2,1,1,0,-2,6
1570181544145177,1,-2,-2,0,1,-2,-1,3
1570181544160051,-1,-2,0,1,0,-3,-3,-4
1570181544160051,-2,-2,-1,-2,-1,1,5,-16
1570181544161856,1,0,2,-1,-1,-1,-5,10
1570181544161856,0,0,0,-1,0,0,-3,3
1570181544182999,2,0,0,-1,-1,-1,-3,0
1570181544182999,0,0,-2,-2,-1,0,-1,-2
1570181544183797,-2,-3,-4,0,-2,-2,7,-6
1570181544183797,-1,-1,-1,-1,0,0,-1,1
1570181544196792,-1,0,0,-2,-1,-2,-3,0
1570181544196792,1,2,1,1,-1,-1,-4,6
1570181544204754,-2,0,1,-1,-1,0,1,-9
1570181544204754,-2,0,0,-1,0,-1,0,1
1570181544219901,-1,-1,-1,-1,-1,-1,-1,-3
1570181544219901,-3,-1,0,-1,0,1,0,0
1570181544222001,0,-1,-1,-1,-2,-2,0,-3
1570181544222001,-5,-3,1,0,-1,2,3,-8
1570181544242823,5,3,1,1,2,-1,3,19
1570181544242823,4,1,2,-1,1,0,-9,12
1570181544244718,-3,-1,-2,-3,-1,0,1,-2
1570181544244718,1,0,1,-2,-2,-3,1,1
1570181544256759,-2,0,-1,-2,-1,-1,0,-7
1570181544256759,3,1,-1,2,0,-3,-13,13
1570181544265577,0,-2,-1,1,-1,0,1,-4
1570181544265577,1,-2,-2,-1,-1,-3,-3,2
1570181544280752,-4,-3,-3,0,-1,0,-1,-14
1570181544280752,-2,-1,-2,-2,0,0,3,-4
1570181544281537,-2,-2,0,1,-1,0,0,-2
1570181544281537,1,-1,0,0,-1,-2,-2,3
1570181544302477,-3,-2,1,-1,-1,-2,-2,-4
1570181544302477,-3,-2,-1,0,-1,-1,2,-2
1570181544304477,0,0,-1,0,-1,0,1,-2
1570181544304477,1,1,-1,-1,-1,2,-1,-2
1570181544316494,0,-1,-2,0,0,0,-1,2
1570181544316494,-1,-3,-1,0,-1,0,0,-5
1570181544325416,-1,0,1,0,1,-1,0,-2
1570181544325416,-4,-2,0,-1,-2,-1,-5,-16
1570181544339384,-1,1,3,0,-2,-2,-2,-3
1570181544339384,-1,-1,-2,-2,0,0,1,-4
1570181544346361,-4,0,-2,0,-3,0,10,-16
1570181544346361,-1,0,-1,0,1,1,1,3
1570181544362431,1,-2,-2,-2,-1,0,1,2
1570181544362431,4,1,-1,1,0,-1,-3,7
1570181544364398,-1,0,0,-3,0,-1,0,-3
1570181544364398,-2,0,-2,-2,-1,-1,1,3
1570181544376285,3,2,1,2,-1,0,2,8
1570181544376285,-1,0,1,-1,-1,0,1,-5
1570181544385264,1,0,-1,0,0,0,-7,1
1570181544385264,2,0,-1,-2,1,-1,-1,7
1570181544400406,-2,-1,-3,-2,0,0,-3,-1
1570181544400406,0,-1,0,0,0,-1,-1,-3
1570181544401336,-1,0,-1,-2,-2,1,-3,2
1570181544401336,-4,-2,-1,0,0,-1,-3,-17
1570181544422162,2,1,-1,-1,-2,-2,1,3
1570181544422162,-3,-2,-3,-1,-4,-1,3,-2
1570181544424155,-2,-1,-1,0,-1,-2,-4,0
1570181544424155,-1,-1,0,-1,0,-1,1,-1
1570181544436348,-4,-3,-2,-1,-1,0,2,-4
1570181544436348,0,1,0,0,0,-3,-12,4
1570181544445097,2,-1,-1,-2,0,0,0,5
1570181544445097,-1,0,-1,-2,-1,0,0,2
1570181544460226,-2,-2,1,-1,0,-1,0,-4
1570181544460226,1,-1,-2,-2,-1,3,8,8
1570181544462053,-2,-2,-2,0,-2,0,2,-2
1570181544462053,1,1,1,0,-1,-4,-4,6
1570181544483160,1,-1,-1,1,-2,0,-3,1
1570181544483160,-2,-1,-1,0,0,-1,1,-8
1570181544484547,-1,0,-1,0,1,0,-3,0
1570181544484547,4,1,-2,1,-1,1,6,18
1570181544495973,-3,-2,-1,-3,-2,-2,-4,-9
1570181544495973,-1,0,-1,-1,-2,-1,3,-4
1570181544505378,-2,0,-1,-1,0,-2,0,-1
1570181544505378,-2,-1,-2,-1,-1,-1,-1,-1
1570181544520896,0,0,-1,0,1,-1,-2,-2
1570181544520896,-1,-2,1,0,-1,-1,0,1
1570181544521891,1,-1,0,1,0,0,-1,4
1570181544521891,-1,0,0,0,-1,-1,2,-3
1570181544543000,1,0,0,0,0,-2,-7,0
1570181544543000,-2,0,-1,-2,0,-3,-1,-5
1570181544544832,0,-1,0,-2,1,1,5,3
1570181544544832,-6,-1,0,-1,-3,-2,-7,-20
1570181544564859,-2,-1,-2,-2,1,-1,3,1
1570181544564859,-3,-2,0,2,1,1,3,-7
1570181544566990,1,-1,-1,-1,-2,-3,-6,1
1570181544566990,0,-1,-1,-2,-1,0,0,2
1570181544580735,0,2,0,-1,0,2,-1,1
1570181544580735,-1,1,-1,-1,-1,1,1,-2
1570181544581740,-4,0,0,-1,-1,-1,1,-8
1570181544581740,-2,-3,-2,-1,-2,1,11,-7
1570181544602674,-3,-2,-1,-1,-2,-1,-1,-5
1570181544602674,-1,-1,0,1,-1,-2,-1,0
1570181544603673,1,-1,-2,0,-2,-1,-3,1
1570181544603673,-1,1,-1,0,-1,0,-2,3
1570181544625693,-2,0,-1,-2,-1,-1,-4,-9
1570181544625693,-1,1,1,0,0,-1,-4,-2
1570181544626937,0,-2,-2,0,0,0,-2,1
1570181544626937,-1,0,-1,0,0,-2,-4,1
1570181544640788,-2,-1,-1,0,-1,-1,1,-3
1570181544640788,-2,-4,-2,-2,-1,0,5,0
1570181544641577,-1,0,1,1,-1,-1,0,3
1570181544641577,0,0,-1,0,0,-1,-3,1
1570181544662659,-1,-1,-2,-1,0,0,-3,0
1570181544662659,0,0,0,-1,-1,-1,2,-1
1570181544664511,0,0,1,0,-2,-1,-3,-3
1570181544664511,5,1,0,1,0,-2,-18,17
1570181544685457,0,-1,0,0,0,1,2,3
1570181544685457,-1,-1,-1,-2,-1,-1,-3,1
1570181544686451,-1,-2,-1,-2,0,-2,-1,-2
1570181544686451,1,-1,-1,0,1,0,1,-1
1570181544699519,2,1,-1,-1,-2,0,4,18
1570181544699519,2,0,-1,0,-1,0,-5,0
1570181544706405,-1,-3,-4,-3,-1,1,3,1
1570181544706405,-3,-3,0,-1,0,1,4,-3
1570181544722356,-1,-1,-1,1,-1,1,-2,-4
1570181544722356,-3,-2,0,-3,0,-1,5,-4
1570181544724384,-4,-1,-1,0,0,1,1,-1
1570181544724384,1,-1,-1,-1,0,-1,1,1
1570181544745297,-2,-1,-1,-1,1,-3,-2,-1
1570181544745297,0,0,-1,-1,1,1,0,1
1570181544746513,2,0,3,1,0,1,-4,1
1570181544746513,0,0,0,-1,0,0,-4,5
1570181544759256,-1,-2,-1,0,-1,-1,0,-7
1570181544759256,2,0,-1,-1,-2,-1,2,7
1570181544766275,1,0,0,0,0,-2,-1,5
1570181544766275,-1,0,-1,-1,-2,-2,1,-4
1570181544782304,1,-1,1,0,-1,0,-2,-3
1570181544782304,0,1,0,-1,-1,-2,-4,-3
1570181544784314,-2,-1,0,-1,-2,-1,2,-3
1570181544784314,-2,-1,-1,1,1,-1,1,-1
1570181544805374,-2,0,-3,-1,1,-1,1,-3
1570181544805374,0,0,-2,0,0,0,-1,1
1570181544807129,-1,-2,1,1,-2,-2,0,-4
1570181544807129,-2,-1,-1,-2,0,-1,0,-5
1570181544819105,-2,-1,-1,-1,-2,-1,-2,0
1570181544819105,-1,-1,0,-2,1,0,-1,-1
1570181544826078,-1,1,-2,-2,0,-2,-2,-3
1570181544826078,-4,-2,0,-1,-1,-3,-6,-14
1570181544843032,0,0,-2,-2,-1,0,0,-2
1570181544843032,-1,-1,0,1,-2,-1,-2,-3
1570181544844120,0,-1,-1,-1,0,-1,-2,5
1570181544844120,-2,-2,-5,-1,-3,1,5,-1
1570181544865071,-4,-2,0,-1,-2,0,-4,-9
1570181544865071,0,-1,2,1,1,-3,-3,-1
1570181544866970,-2,0,-3,-1,0,0,2,-7
1570181544866970,-1,0,1,0,-1,0,3,0
1570181544878935,3,-1,-3,-1,-1,-2,-4,3
1570181544878935,-1,1,0,1,-2,-2,-3,-3
1570181544885919,0,-1,0,-1,-1,0,-2,-6
1570181544885919,-1,0,-3,-3,-1,-1,2,5
1570181544902928,2,-1,0,0,0,-2,-2,4
1570181544902928,-2,0,0,-1,-1,0,-1,-3
1570181544904126,1,-2,0,0,-1,0,1,2
1570181544904126,-2,-1,-2,0,0,0,-2,1
1570181544925057,-3,-1,-1,-2,0,-2,0,-14
1570181544925057,-4,-2,-2,-2,-1,0,12,-11
1570181544926811,-1,0,-2,-2,1,-1,3,-2
1570181544926811,4,1,0,1,1,-2,-2,5
1570181544939986,0,-2,2,-1,-1,-1,-1,2
1570181544939986,1,-1,-1,0,-1,1,-2,0
1570181544946755,0,1,0,-2,-1,1,4,11
1570181544946755,-2,-1,-1,0,-1,-1,3,-3
1570181544962718,-1,1,1,1,0,2,2,2
1570181544962718,2,0,-2,0,-1,-1,-6,3
1570181544964714,-2,-1,-2,0,1,0,-3,-3
1570181544964714,2,1,2,0,-1,0,-4,0
1570181544984654,0,0,-2,-1,-2,1,1,3
1570181544984654,-2,-1,0,0,0,-1,-2,0
1570181544986655,-2,-1,0,-1,-1,-1,0,-2
1570181544986655,-2,-2,-3,-4,-1,-1,1,-20
1570181544999771,-3,0,-1,0,0,1,13,-12
1570181544999771,1,-1,-2,-2,-1,-1,-4,4
1570181545006640,0,-2,-2,-2,-2,-1,0,-1
1570181545006640,-1,-2,0,0,0,-1,0,-6
1570181545022554,-1,-1,-2,-1,0,-1,2,4
1570181545022554,0,-1,0,2,0,0,-5,-3
1570181545024553,-1,-1,-2,0,-2,-3,-8,-8
1570181545024553,1,-1,-1,-1,-1,-2,-1,3
1570181545045494,3,1,0,1,1,-5,-6,1
1570181545045494,1,0,-1,-1,-1,-1,1,3
1570181545046817,0,0,1,1,-1,-2,-2,1
1570181545046817,-1,0,0,-1,0,-1,-1,3
1570181545058654,-3,-1,-1,-1,0,1,-2,0
1570181545058654,-5,0,-2,-3,-2,-1,-5,-17
1570181545068194,-1,0,1,0,-1,0,1,-2
1570181545068194,1,-1,-3,0,0,2,0,6
1570181545082573,0,0,0,0,0,0,-3,4
1570181545082573,0,-1,-2,-1,-1,1,0,5
1570181545084389,-2,-1,-2,-1,0,-1,-3,-1
1570181545084389,2,0,1,0,0,-2,1,4
1570181545105584,0,-3,-2,0,-1,-1,-4,1
1570181545105584,0,0,2,-1,-2,-1,1,-1
1570181545106805,1,1,0,0,-1,0,3,5
1570181545106805,-4,-1,0,0,0,1,4,-5
1570181545119334,4,0,0,0,-2,0,2,1
1570181545119334,0,-1,0,0,-2,0,1,1
1570181545128275,0,2,0,-1,-1,1,1,-1
1570181545128275,-1,-1,-1,-1,-2,-1,-1,-2
1570181545143282,4,0,1,0,0,0,3,21
1570181545143282,1,0,0,-1,1,0,-1,5
1570181545144230,-1,-2,-2,-2,0,-2,-1,0
1570181545144230,1,1,1,1,-1,0,-4,3
1570181545165385,-3,1,-1,0,-2,0,0,-9
1570181545165385,4,2,0,2,1,-2,-15,18
1570181545167169,2,1,0,-1,1,1,-2,3
1570181545167169,-2,0,1,-1,-1,-1,-1,-5
1570181545179152,2,0,0,0,-1,-4,-6,-1
1570181545179152,0,-1,-1,-1,-2,0,5,-5
1570181545188114,-3,-2,-1,-2,-1,0,0,-4
1570181545188114,2,0,0,-2,-1,-1,-1,9
1570181545203184,-3,-2,0,0,0,1,-1,-4
1570181545203184,-3,-2,-1,0,0,0,5,-1
1570181545204482,-1,0,0,-1,-1,0,6,-5
1570181545204482,0,-1,0,0,0,-1,-3,-4
1570181545225328,-2,0,-1,-2,0,0,1,-3
1570181545225328,1,1,1,0,-1,-1,6,10
1570181545227013,-2,-2,-1,0,-1,-2,0,-1
1570181545227013,-2,0,-2,1,0,0,-1,-4
1570181545239022,0,-1,0,0,0,-1,-2,-2
1570181545239022,-2,-1,-2,-1,-1,0,-2,-4
1570181545247954,-4,-1,0,0,-2,3,7,-12
1570181545247954,1,-1,-2,-1,0,-1,2,3
1570181545262097,2,3,0,-1,-1,-2,-4,1
1570181545262097,-2,-2,-2,-1,0,-1,1,-4
1570181545269899,-1,2,-1,1,0,0,1,5
1570181545269899,-2,0,-1,-2,0,-1,-3,-7
1570181545284855,0,-1,1,-2,0,-3,-5,0
1570181545284855,-1,-3,-1,-2,-1,0,1,-9
1570181545286918,1,-3,-1,0,0,0,-5,1
1570181545286918,-3,-3,0,-1,0,-1,-3,-7
1570181545298951,-3,-2,-2,-1,1,1,11,2
1570181545298951,1,1,1,1,-1,-1,-3,0
1570181545307799,0,-1,0,0,-1,-2,-7,-1
1570181545307799,2,-1,-2,-3,-1,-1,-1,4
1570181545322995,-4,-2,-1,-1,-1,0,0,-9
1570181545322995,-2,-1,0,-2,-1,-2,0,-3
1570181545324776,1,-1,1,0,-2,1,-3,6
1570181545324776,1,1,0,0,-2,-1,4,1
1570181545345696,-1,-2,-2,-2,-1,-1,0,-2
1570181545345696,1,-1,1,2,0,-2,-4,2
1570181545346691,1,0,0,0,0,-4,-3,0
1570181545346691,0,-2,-1,0,-1,-2,-1,2
1570181545358840,1,-1,-1,-1,-2,-3,-3,1
1570181545358840,-5,-1,-2,-3,-1,0,4,-14
1570181545367631,2,1,2,-1,1,-1,1,3
1570181545367631,-2,0,0,0,-1,-1,-1,3
1570181545382796,-3,-1,1,0,-1,-1,-5,-16
1570181545382796,-2,0,0,1,-1,1,2,-4
1570181545384587,0,-2,-4,-3,-2,0,-1,0
1570181545384587,-1,0,1,-1,-1,0,-3,2
1570181545405606,0,1,-1,0,0,0,0,1
1570181545405606,-5,-2,-3,-3,0,0,1,-6
1570181545406848,-1,-2,0,-1,-1,-1,-1,0
1570181545406848,-4,-1,-2,0,1,0,3,-8
1570181545418495,6,2,-1,0,0,-3,-16,22
1570181545418495,0,-1,0,-1,1,0,1,5
1570181545427474,-3,-2,-1,-1,-3,0,-1,-2
1570181545427474,2,-1,0,-1,-1,0,-2,-2
1570181545442609,-2,-1,-3,-2,0,3,7,-3
1570181545442609,2,0,0,0,0,-1,-2,5
1570181545444536,2,0,1,0,-1,-3,-5,0
1570181545444536,-3,-2,-2,-2,0,-1,-3,-16
1570181545465621,-1,0,0,-2,0,0,8,-2
1570181545465621,1,1,-1,-1,-3,-1,-5,1
1570181545466980,-1,-1,0,0,0,-1,0,-2
1570181545466980,0,-1,0,0,-2,1,0,-1
1570181545487364,-1,1,-1,-1,-2,-1,-1,-3
1570181545487364,-1,-3,-3,-1,0,0,0,1
1570181545489305,-2,-1,0,0,-1,-1,0,-3
1570181545489305,1,1,-1,-1,0,-1,0,5
1570181545502288,1,1,-1,0,-1,-2,-5,1
1570181545502288,-1,-2,0,-2,0,0,0,1
1570181545504264,3,2,0,0,1,-1,-10,15
1570181545504264,-1,0,-2,-1,-2,1,5,-1
1570181545525411,0,-3,1,0,-1,1,2,2
1570181545525411,-1,-1,-2,-1,-2,-3,-6,-13
1570181545526218,-2,-2,-1,0,1,2,4,-4
1570181545526218,-1,-3,-1,-2,-1,-3,2,-1
1570181545547396,-1,0,0,0,1,-1,-1,-2
1570181545547396,0,-1,0,-1,0,-2,0,-1
1570181545549147,-2,0,-1,-1,-1,1,-1,-3
1570181545549147,2,1,1,2,1,-2,-6,7
1570181545563233,-2,-2,-1,-1,-3,-1,0,-8
1570181545563233,3,0,1,0,0,-2,-2,4
1570181545564109,-2,-1,-1,0,-1,-2,3,-6
1570181545564109,3,0,-2,-1,-1,1,2,7
1570181545585228,-2,-2,-1,0,1,-1,0,-1
1570181545585228,-5,1,1,2,1,0,6,-16
1570181545587050,1,-1,-2,-1,-1,-1,-5,5
1570181545587050,-1,0,-1,0,-1,-2,1,-3
1570181545608053,0,-1,-2,-1,-1,1,-1,-1
1570181545608053,2,0,-1,1,-1,2,6,17
1570181545608989,1,-1,-1,-1,-1,0,1,-3
1570181545608989,1,1,1,0,-1,-3,-8,-1
1570181545622613,0,0,0,1,-1,-1,2,6
1570181545622613,0,-1,-1,-2,0,-2,-4,-1
1570181545628940,1,1,-1,0,0,-1,-1,3
1570181545628940,-2,-1,-2,-2,2,-1,0,-1
1570181545644890,-4,-1,0,0,0,-2,0,-10
1570181545644890,2,-1,-2,-1,-2,0,-1,2
1570181545646985,-1,1,0,-2,-1,0,3,-1
1570181545646985,-2,-2,1,0,-1,2,1,-2
1570181545667943,-1,0,-1,-2,-1,0,-2,-3
1570181545667943,1,1,-3,-1,0,1,-1,5
1570181545669829,-3,-4,-2,-3,-1,1,9,-11
1570181545669829,2,1,-2,0,0,1,2,18
1570181545681979,0,0,0,1,1,0,-1,0
1570181545681979,0,0,0,0,-1,-1,-5,0
1570181545688999,0,1,1,0,0,-3,2,1
1570181545688999,0,-2,-2,0,-1,-3,-5,-9
1570181545712755,4,0,0,-2,1,-1,-2,6
1570181545712755,-3,0,-2,-1,1,-1,0,-6
1570181545714711,0,-1,-1,0,1,-1,-4,-3
1570181545714711,-3,-2,-2,-2,-2,0,2,-3
1570181545734722,-2,-1,-1,0,-2,0,0,1
1570181545734722,0,0,1,1,0,-3,-3,-1
1570181545736641,5,1,1,1,-1,-3,-18,19
1570181545736641,-1,-1,0,0,1,-1,-1,-2
1570181545741952,0,-2,-2,-1,0,0,2,2
1570181545741952,0,-1,-1,-1,-2,0,-1,3
1570181545748649,-5,-3,-3,-1,-1,-2,6,-4
1570181545748649,0,-2,-2,0,0,0,0,-1
1570181545765609,-4,-1,-3,0,-2,-2,-5,-4
1570181545765609,-1,-1,-1,0,-1,0,3,1
1570181545766999,0,-1,-1,-2,0,1,2,-1
1570181545766999,-4,-3,-3,-3,-1,-1,-2,-5
1570181545787508,-2,-1,-1,-1,0,-2,5,-7
1570181545787508,-1,0,-1,-1,-1,-1,-3,-2
1570181545789504,-1,0,-3,0,-2,-1,1,-2
1570181545789504,-3,0,0,-2,1,0,3,-7
1570181545801585,-5,-4,0,-2,-2,2,9,-25
1570181545801585,-1,0,-1,-1,1,-1,-5,0
1570181545808664,0,-1,-1,-2,-1,0,-2,-5
1570181545808664,2,1,3,0,-1,-1,0,4
1570181545825649,1,0,-1,-1,0,0,1,0
1570181545825649,-1,-1,0,0,-1,0,2,0
1570181545826406,-2,0,0,-1,-1,-1,0,-1
1570181545826406,-1,-1,-1,0,-1,-1,-4,-6
1570181545847716,1,0,2,1,-1,-1,-4,6
1570181545847716,0,-1,-2,-1,1,0,0,1
1570181545849344,-1,-2,-1,-1,-2,0,-3,0
1570181545849344,2,1,-1,-1,-2,0,-1,2
1570181545862512,-2,-1,-2,0,-1,0,-2,6
1570181545862512,0,1,1,-2,0,-1,-1,2
1570181545868494,0,0,0,0,-1,2,3,-4
1570181545868494,-1,-2,-4,-1,-1,-1,6,-1
1570181545885246,3,3,0,0,1,0,-1,15
1570181545885246,-5,-2,0,-1,-1,1,12,-17
1570181545887243,1,0,0,-1,1,-2,-7,5
1570181545887243,0,2,1,0,-3,-1,-3,-3
1570181545908330,-1,0,-3,-1,1,-2,-2,-1
1570181545908330,-2,0,-2,-1,-2,0,0,-2
1570181545909390,-1,0,-1,0,-1,0,3,-1
1570181545909390,1,-1,1,2,1,0,-2,4
1570181545922337,-1,1,1,1,-1,-3,-4,-3
1570181545922337,3,0,0,0,-1,0,-2,8
1570181545929148,-1,-1,-2,-1,-1,-1,1,0
1570181545929148,-2,-1,0,0,-1,1,-5,1
1570181545945326,1,0,1,1,0,-1,-2,-5
1570181545945326,-2,-3,-2,-1,0,0,3,-2
1570181545947080,6,1,2,1,0,-1,-8,13
1570181545947080,-7,-3,-4,-4,-2,0,9,-7
1570181545968030,-3,-3,-2,-1,-4,-1,-2,-2
1570181545968030,1,0,0,0,-1,-3,-4,0
1570181545969023,-3,-1,-1,-2,0,-1,-1,-10
1570181545969023,0,0,-1,-1,0,-1,0,1
1570181545981366,1,0,-2,0,0,0,-3,0
1570181545981366,0,-2,1,-1,-1,0,-4,1
1570181545990016,-3,-1,-1,0,-1,0,6,-3
1570181545990016,2,0,0,0,0,0,-1,2
1570181546005085,1,-1,-1,0,0,-1,6,16
1570181546005085,0,0,-1,2,0,-1,-3,1
1570181546006934,-2,0,-2,0,0,-1,0,-2
1570181546006934,0,0,1,-1,0,0,2,9
1570181546027998,-1,-2,0,-1,-2,-1,-2,-7
1570181546027998,-1,0,0,-3,-1,-3,-3,-2
1570181546028866,2,-1,0,1,0,0,-2,9
1570181546028866,0,1,-1,0,-1,-1,-2,0
1570181546041829,-7,-3,-3,-3,-1,1,5,-11
1570181546041829,1,0,0,-2,0,-1,-4,2
1570181546050054,-1,-1,-3,-2,0,2,1,-4
1570181546050054,2,0,-1,2,-1,-1,-4,-3
1570181546065564,0,1,0,-3,0,1,-1,0
1570181546065564,-1,-2,-3,0,-2,1,4,-3
1570181546066827,-3,-1,0,0,1,-1,1,-5
1570181546066827,0,0,-1,0,-1,-2,-2,0
1570181546087835,0,1,0,2,0,0,-6,2
1570181546087835,0,-1,-2,2,1,0,2,14
1570181546088714,0,1,-1,0,0,-1,-2,-3
1570181546088714,2,-1,0,-1,0,-1,-3,1
1570181546101670,0,-1,1,2,-1,-2,-1,-1
1570181546101670,-1,-2,-1,0,-1,-1,-2,-2
1570181546110646,-3,-1,-1,0,-1,-1,1,-3
1570181546110646,1,0,-1,-1,-1,2,5,9
1570181546125643,0,-2,-1,-3,-1,0,-1,-2
1570181546125643,0,1,1,1,-1,0,-4,-4
1570181546126950,-1,-2,1,-1,-2,-2,0,-3
1570181546126950,-3,-1,-3,-2,-1,0,5,-17
1570181546147693,3,0,-1,0,0,0,-9,8
1570181546147693,0,1,1,0,-1,1,-1,1
1570181546149551,-3,-3,-2,-3,-3,-1,9,-5
1570181546149551,-2,-4,-2,0,-1,-1,1,-3
1570181546161515,-3,-1,1,0,-1,0,5,-3
1570181546161515,-1,-4,-3,-2,1,-1,-2,10
1570181546170483,1,-1,-2,0,-1,0,-3,2
1570181546170483,0,0,1,-2,0,-2,-4,-1
1570181546185485,3,0,0,0,-2,-1,-2,2
1570181546185485,0,-1,-1,0,-1,-1,-1,-6
1570181546186790,1,0,0,0,-2,0,2,1
1570181546186790,-2,-1,-1,0,0,0,-4,-1
1570181546207554,-2,2,-1,-2,-1,-1,-1,-4
1570181546207554,-1,0,-2,0,0,-1,1,-3
1570181546209388,1,-1,-2,0,0,0,-3,2
1570181546209388,0,0,0,-1,0,1,1,7
1570181546221363,-1,0,-1,0,0,-1,-1,-3
1570181546221363,4,2,1,0,0,-1,-15,15
1570181546230324,0,1,1,1,2,-1,-2,2
1570181546230324,-1,0,0,-1,1,0,-1,-1
1570181546245595,-2,-1,1,0,0,-1,2,0
1570181546245595,-3,-2,0,-2,0,-1,5,-2
1570181546246987,3,1,-2,0,-1,2,-6,-1
1570181546246987,1,1,-1,1,-1,-2,0,2
1570181546267231,-1,2,0,0,1,-2,1,4
1570181546267231,-1,-3,0,-1,-2,0,2,-9
1570181546269221,-4,0,0,-1,-1,-1,-1,-3
1570181546269221,-2,-2,1,2,-1,-2,-2,-2
1570181546281410,-1,-2,-1,-1,0,0,-2,-4
1570181546281410,-6,-3,-3,-3,-2,0,9,-25
1570181546290162,1,0,0,-1,-1,-3,-2,1
1570181546290162,-2,0,-1,-2,-2,-1,-2,-2
1570181546305124,0,0,-3,-1,-2,-3,-1,1
1570181546305124,-2,0,-1,0,0,-2,1,-2
1570181546307117,0,-2,0,-1,-1,-1,2,-1
1570181546307117,-1,-3,1,-2,1,0,1,4
1570181546327064,-2,-2,0,-2,0,0,0,-8
1570181546327064,0,0,0,-2,1,0,0,2
1570181546329058,0,0,-2,-1,0,-1,-1,4
1570181546329058,2,-1,1,-1,-1,-1,-2,2
1570181546341189,-2,0,0,1,-1,0,-2,-3
1570181546341189,-1,1,-1,0,-2,0,3,2
1570181546351000,4,1,3,1,0,0,-9,3
1570181546351000,0,0,-3,-1,-2,0,-2,-2
1570181546365192,0,-1,0,1,-1,0,4,-3
1570181546365192,2,-1,-1,-1,0,2,-9,8
1570181546366963,-2,-2,-2,0,-2,-1,2,-5
1570181546366963,-2,0,-1,-2,1,-1,-2,-4
1570181546388111,0,-1,-1,0,2,1,2,-1
1570181546388111,1,0,-2,0,0,-2,-2,2
1570181546389057,0,2,2,0,-2,-2,1,10
1570181546389057,2,-1,-2,0,1,0,-1,8
1570181546400936,0,-2,-2,-3,-2,0,1,0
1570181546400936,-1,0,0,0,-1,1,0,-3
1570181546409846,-3,-2,-2,-1,-2,-1,-1,-2
1570181546409846,-3,-1,-1,-1,-2,-1,4,-8
1570181546424967,0,0,-2,-1,0,0,-1,5
1570181546424967,0,0,-1,-1,1,-1,-1,-1
1570181546431839,-2,-1,0,-2,0,-1,1,-1
1570181546431839,1,-1,0,0,-2,0,-3,-2
1570181546447899,-1,-4,-1,-3,0,-1,1,-3
1570181546447899,-3,0,0,-2,-2,0,4,-5
1570181546448910,-2,-3,0,-2,-1,-1,1,-4
1570181546448910,-6,-3,-1,-2,0,1,10,-14
1570181546470719,1,1,-2,0,-2,-1,-4,5
1570181546470719,-2,0,-1,-1,-1,0,0,-7
1570181546471932,0,-2,-1,0,1,2,1,14
1570181546471932,0,0,2,0,0,0,2,3
1570181546485642,0,-2,1,-2,-1,-2,-3,1
1570181546485642,-2,-1,-1,1,0,-2,-4,2
1570181546486639,-4,-1,-1,-2,-2,-1,-2,-13
1570181546486639,3,-1,-1,-1,-1,0,-4,6
1570181546507803,-2,2,2,1,0,-1,-2,0
1570181546507803,3,1,0,1,-1,-3,-7,1
1570181546509578,0,1,-2,-1,-1,-2,-1,-2
1570181546509578,-1,1,-2,-1,-1,0,-1,-2
1570181546530792,1,0,1,0,-1,0,-3,-2
1570181546530792,3,-2,1,1,0,-1,-1,3
1570181546531877,-6,-1,-2,-1,0,0,11,-13
1570181546531877,1,1,1,1,0,-2,-5,-1
1570181546545483,-2,-2,-2,-1,-1,-1,2,7
1570181546545483,0,-1,-1,-1,0,-1,-3,2
1570181546546653,2,1,0,-1,-2,0,3,8
1570181546546653,0,0,0,1,0,-1,-4,3
1570181546567425,-1,-1,-1,-1,-1,0,0,-1
1570181546567425,-4,-3,-2,-1,-1,1,5,-7
1570181546569421,0,0,-2,0,0,-1,-4,1
1570181546569421,-4,-1,-1,0,-3,-1,-1,-8
1570181546590567,-1,-1,-1,-1,1,-1,-4,-2
1570181546590567,2,0,-2,-1,-2,-1,1,4
1570181546591359,2,0,-1,-3,0,-4,-7,-3
1570181546591359,1,0,0,1,0,-2,-2,3
1570181546604367,1,-1,-1,0,0,-1,3,-6
1570181546604367,0,-1,0,-2,-1,-1,0,3
1570181546611393,-1,-2,1,1,-1,0,-2,-3
1570181546611393,-2,-2,-2,-1,1,-1,1,0
1570181546627361,0,-1,0,-2,-1,-3,-6,-11
1570181546627361,-3,0,-1,-1,1,0,6,-7
1570181546629368,5,1,1,1,1,-2,-16,12
1570181546629368,0,1,-1,-1,-1,0,1,4
1570181546650208,-2,-1,-1,0,0,0,-3,-5
1570181546650208,-2,-1,-1,-1,-2,-1,-1,-3
1570181546652197,-3,-2,-1,0,-1,0,4,-8
1570181546652197,1,1,-1,0,0,-2,-5,2
1570181546664577,1,0,-1,0,0,2,-1,7
1570181546664577,-3,-2,0,0,1,1,-2,1
1570181546671153,-1,-1,-1,-1,-1,1,3,-1
1570181546671153,-1,-2,1,-1,-1,-1,2,-2
1570181546688288,-1,-1,0,-1,-2,0,3,2
1570181546688288,1,0,0,0,-1,-3,-3,-2
1570181546689107,-3,-1,-2,-1,-1,0,1,-6
1570181546689107,-1,-1,-1,-1,-1,-1,-1,-2
1570181546710112,-1,1,0,-1,0,-1,-2,-3
1570181546710112,2,0,0,1,1,-2,1,13
1570181546712040,-1,-1,-1,-2,-2,-1,-2,-3
1570181546712040,0,0,0,-1,-1,1,1,-2
1570181546725066,0,-2,0,-1,0,-3,0,-5
1570181546725066,3,0,0,-2,-1,-2,-14,8
1570181546731162,-3,0,1,1,-1,-1,3,-4
1570181546731162,-1,-1,-1,0,0,-2,-1,3
1570181546747988,1,1,0,-1,1,1,5,9
1570181546747988,5,1,0,-1,-1,-3,-12,5
1570181546748941,1,-1,0,-2,0,0,0,3
1570181546748941,0,0,-1,-2,0,1,-2,0
1570181546769886,-1,2,1,1,-1,-3,-3,1
1570181546769886,-3,-1,0,0,-3,-2,3,-7
1570181546771876,-1,-1,-2,1,0,-1,-1,-1
1570181546771876,-1,-1,-1,-1,-1,0,-1,0
1570181546784896,-1,-1,-1,-1,0,-1,0,9
1570181546784896,-3,-2,0,-1,0,0,5,-4
1570181546790935,-2,-2,-2,0,-1,0,1,-2
1570181546790935,1,-2,0,-2,-2,0,2,-1
1570181546808212,0,-1,0,-1,-1,1,0,0
1570181546808212,-5,-3,-1,-2,-1,1,8,-18
1570181546808783,-1,-1,-1,-1,-2,-1,-9,1
1570181546808783,-2,-2,-1,1,-1,-1,-2,-5
1570181546829958,0,0,-2,0,1,0,-1,1
1570181546829958,0,-2,-2,-2,0,1,2,7
1570181546831713,-1,-1,1,-1,0,0,2,-2
1570181546831713,-1,0,0,0,-1,-1,-2,0
1570181546844912,0,0,-1,-2,-2,0,-2,-1
1570181546844912,3,3,1,1,1,-1,-8,0
1570181546851870,2,1,0,1,-2,-1,0,4
1570181546851870,2,0,0,1,0,0,-2,3
1570181546866835,-1,-2,0,0,-1,-1,3,0
1570181546866835,-1,-2,-1,-3,-3,0,1,-6
1570181546875601,-1,-1,-2,-1,0,-1,1,-2
1570181546875601,-2,-1,0,0,0,-2,0,-4
1570181546890559,-1,0,-1,-1,-1,-2,-1,-3
1570181546890559,-6,-2,-2,-1,-1,1,14,-15
1570181546896840,1,-1,0,-1,-1,-2,-5,0
1570181546896840,-1,-2,-3,-2,0,0,2,4
1570181546904880,2,-1,-1,0,0,0,0,5
1570181546904880,-1,0,1,0,-2,-1,-3,-1
1570181546911548,-1,0,0,0,0,-2,1,-1
1570181546911548,-4,-2,0,-3,-1,1,-2,-17
1570181546927732,1,2,2,-1,1,-1,-5,-2
1570181546927732,0,-3,-1,-1,-2,-1,-2,3
1570181546929455,1,0,-3,-1,-1,1,0,0
1570181546929455,-4,-1,1,1,-1,1,8,-6
1570181546950403,0,-4,-3,1,-2,1,-2,0
1570181546950403,1,-1,-1,0,-1,-1,-1,7
1570181546952066,-3,0,0,-1,0,0,-1,-6
1570181546952066,-1,1,-1,-1,-2,-1,0,-1
1570181546964409,-3,-2,0,-1,0,1,1,-2
1570181546964409,-3,0,0,-1,-2,1,1,0
1570181546972468,3,0,1,1,0,-3,-13,8
1570181546972468,2,-1,-1,0,-2,-1,-2,5
1570181546987307,-1,-1,-2,0,-2,-2,2,-4
1570181546987307,1,-1,-2,1,0,-2,-2,2
1570181546989298,0,0,1,0,1,2,7,6
1570181546989298,-2,-1,0,1,-2,-2,-3,2
1570181547010411,1,-1,-1,1,0,0,-3,0
1570181547010411,-1,0,-1,0,0,0,2,0
1570181547011702,-2,-2,-2,-2,-1,-1,3,-1
1570181547011702,-1,-1,-1,0,0,-2,-1,-1
1570181547024350,-1,0,-1,-1,-1,0,3,-2
1570181547024350,0,-1,-2,0,-1,0,-2,2
1570181547033177,-2,-1,-2,0,0,2,-3,-4
1570181547033177,-1,2,-1,-1,0,0,-2,-3
1570181547047166,-2,-1,-1,-2,-1,0,3,-9
1570181547047166,6,1,1,-1,-1,-3,-14,15
1570181547049132,-1,-1,-1,0,-1,1,3,-1
1570181547049132,-1,-3,-1,0,-2,0,3,1
1570181547070388,-1,-1,-1,-1,-1,-1,2,0
1570181547070388,-2,-1,-1,-1,0,1,2,-4
1570181547072325,-1,-1,-1,-2,-2,-1,1,-4
1570181547072325,0,-1,-2,-3,-1,-2,-8,-9
1570181547084086,0,1,0,1,-1,-2,0,9
1570181547084086,-2,0,0,0,0,-1,1,-2
1570181547099997,-2,-1,0,-1,-1,0,0,0
1570181547099997,-1,0,-1,0,0,-1,0,0
1570181547107975,1,-2,-2,-3,-2,-1,-5,0
1570181547107975,-3,-1,-1,0,-1,-1,0,-3
1570181547109120,0,0,-1,-1,-1,0,0,-2
1570181547109120,-1,-1,-1,-2,-2,0,3,0
1570181547130148,-3,-2,0,-1,0,0,-2,-2
1570181547130148,3,0,0,1,-1,-1,0,3
1570181547131914,-1,-1,0,0,1,-1,-1,-3
1570181547131914,0,0,-2,-2,0,1,0,4
1570181547143939,0,-1,-2,-2,0,-1,-2,2
1570181547143939,-2,1,1,1,-1,-3,-3,1
1570181547152863,2,-1,-1,0,1,0,6,8
1570181547152863,4,1,0,0,0,-3,-9,11
1570181547167868,-2,0,0,-1,-2,1,2,1
1570181547167868,0,0,-2,-2,-1,-1,1,-3
1570181547168961,0,0,0,1,0,-1,-2,-3
1570181547168961,-1,0,-3,-1,0,0,2,-3
1570181547189999,-2,-1,-1,0,1,0,-1,-3
1570181547189999,0,-1,-1,-1,-2,1,0,-4
1570181547191755,-1,-1,-1,-1,-1,-1,-1,-2
1570181547191755,1,-1,0,0,-1,2,1,1
1570181547203935,-3,-1,-1,0,-1,-3,-3,0
1570181547203935,-2,-1,-1,0,-1,-1,-2,-2
1570181547212698,-2,1,1,-1,1,-1,1,-1
1570181547212698,-1,-2,0,-1,-1,-1,-2,1
1570181547227782,0,0,-1,-2,-3,-2,-2,0
1570181547227782,-1,-1,0,0,0,1,2,-4
1570181547229652,0,0,-2,-2,-1,0,-1,-6
1570181547229652,4,1,1,2,-2,-2,-16,9
1570181547250644,1,0,-2,-1,1,0,2,8
1570181547250644,5,1,1,-1,-1,0,-9,5
1570181547251736,-1,0,0,0,-3,-2,-4,-6
1570181547251736,0,0,-2,-3,-1,3,5,-3
1570181547263786,1,0,0,-1,0,0,-1,3
1570181547263786,-2,-1,-1,-2,-1,1,1,1
1570181547272688,0,-1,-1,0,-1,1,2,1
1570181547272688,0,0,-2,-2,-1,-1,-1,0
1570181547287500,-1,-1,-1,1,-1,-2,-3,-8
1570181547287500,0,-2,-1,-2,-1,-1,5,2
1570181547289492,-3,-3,0,-1,-1,-1,-1,-2
1570181547289492,-1,-1,-1,-1,-1,-2,0,-3
1570181547310438,-2,-1,1,0,-2,-1,-1,-2
1570181547310438,-2,-1,-2,-1,0,-1,1,-3
1570181547311435,-1,-1,0,0,1,0,1,0
1570181547311435,-7,-3,-3,-1,-1,0,4,-21
1570181547324405,1,-2,0,-1,-1,-2,-3,-2
1570181547324405,-3,0,-2,-1,-1,-1,2,-3
1570181547332378,-2,-1,-2,-1,-2,-1,-4,-1
1570181547332378,0,-1,1,0,-1,0,1,-3
1570181547347580,-2,1,0,2,1,0,2,-2
1570181547347580,-2,-2,1,0,-1,0,0,0
1570181547349331,-1,-1,-1,-2,-2,0,4,-3
1570181547349331,0,0,0,-1,0,-1,0,3
1570181547370274,4,-1,2,0,1,-2,-9,6
1570181547370274,-2,0,-2,-1,0,0,-2,0
1570181547376266,-1,1,-1,1,0,-1,-2,3
1570181547376266,1,-1,2,-1,1,0,-1,6
1570181547393215,0,-1,-2,0,-1,1,2,-2
1570181547393215,-1,-2,-1,0,-1,0,1,-2
1570181547394213,1,-1,-2,-1,-2,-1,-4,-2
1570181547394213,-2,-1,-2,-1,-2,-1,1,-1
1570181547408188,-1,0,0,-2,-1,0,6,-7
1570181547408188,-5,-4,-3,-3,-2,2,12,-14
1570181547409178,1,-2,0,-3,-2,0,-3,3
1570181547409178,-2,1,1,1,0,0,1,1
1570181547430336,-1,-1,-2,-1,-1,1,2,-1
1570181547430336,-1,0,-1,1,0,-1,0,-3
1570181547432110,2,3,2,3,0,0,1,10
1570181547432110,-2,-1,0,-1,-1,1,0,-1
1570181547453055,-1,-1,-1,0,-1,-2,-2,-3
1570181547453055,-1,0,1,-1,0,-2,-4,3
1570181547454272,0,-1,-1,0,-1,-2,-1,-4
1570181547454272,1,2,-2,1,1,-1,-2,5
1570181547468015,-1,0,0,0,0,0,0,-1
1570181547468015,-1,-1,-1,-2,-2,-1,1,1
1570181547469015,5,2,2,1,1,0,-1,19
1570181547469015,-1,-1,-2,0,1,0,2,-3
1570181547489954,-2,-3,-2,-2,-2,-2,0,0
1570181547489954,-1,1,0,1,0,0,-2,0
1570181547491950,-4,-2,-2,-1,-1,-1,3,-7
1570181547491950,1,-2,-2,-2,-1,1,-1,-1
1570181547512893,-4,-2,-2,-1,0,0,10,-15
1570181547512893,3,0,-1,0,-1,-2,-6,10
1570181547513892,-3,-1,0,-1,-1,-1,-1,-5
1570181547513892,-2,-1,0,-1,-1,-1,1,-1
1570181547526855,2,1,1,1,0,0,-2,9
1570181547526855,1,-1,0,-1,0,-2,-1,-1
1570181547533878,-1,-1,-2,0,0,-2,-2,-5
1570181547533878,-1,1,-1,0,-1,0,4,-1
1570181547549796,0,-1,-2,-3,-2,1,-3,0
1570181547549796,-3,-1,0,0,0,-1,-2,0
1570181547551797,3,-1,0,1,0,0,-3,4
1570181547551797,-1,0,-1,-1,-1,-1,-1,3
1570181547572733,1,1,-1,0,0,-1,-2,5
1570181547572733,1,-2,-3,0,-1,1,-3,1
1570181547573731,-3,-2,-1,-2,-2,0,1,-7
1570181547573731,-1,-2,0,0,-1,-1,-3,-1
1570181547586993,-2,-1,-4,1,-2,-1,2,-3
1570181547586993,1,-1,1,0,0,0,0,0
1570181547593678,-3,-1,1,-1,-3,-1,0,2
1570181547593678,0,-1,-1,0,0,-1,-2,2
1570181547609972,-2,-1,1,0,0,-1,-2,-2
1570181547609972,1,1,-1,-1,0,-1,-7,-1
1570181547611630,-1,0,-1,0,-1,1,0,-2
1570181547611630,1,-1,-1,0,-2,-1,0,3
1570181547632837,1,-1,-2,-2,-2,-1,4,9
1570181547632837,1,0,0,1,0,1,6,11
1570181547634569,0,1,0,-1,-2,-2,-2,-3
1570181547634569,-1,-1,-2,0,-1,0,-1,0
1570181547646543,-3,-4,-1,-2,1,2,2,-3
1570181547646543,-1,-1,0,0,0,-1,0,-2
1570181547653579,-1,-2,-2,-1,0,-2,-1,-3
1570181547653579,-2,-1,-1,1,0,-1,-3,0
1570181547670473,-1,0,-2,-1,0,1,-1,2
1570181547670473,-1,-1,1,1,-1,0,-3,-6
1570181547671471,-1,0,-1,0,0,-2,-1,-2
1570181547671471,1,1,0,0,-1,-1,0,-4
1570181547692414,-2,-1,1,-1,-1,-2,-5,-5
1570181547692414,0,0,-2,-1,0,-2,0,-3
1570181547694409,-1,-2,-2,-2,-2,-1,3,3
1570181547694409,0,-1,0,-1,-2,-2,0,-1
1570181547707374,0,0,0,-1,0,0,-3,-3
1570181547707374,5,1,2,1,0,-2,-13,10
1570181547713356,-2,-1,0,0,0,-1,0,-6
1570181547713356,1,0,-1,0,0,-1,0,2
1570181547729889,-2,-1,-1,-1,-1,-1,-5,-15
1570181547729889,-3,-3,-2,-2,-2,2,8,-3
1570181547731882,-2,0,1,-1,1,1,-2,0
1570181547731882,-4,-3,-2,-3,-3,-1,2,-5
1570181547752825,-1,0,0,1,0,-1,-2,0
1570181547752825,-3,-2,0,-1,-1,-1,1,-4
1570181547753823,0,0,-1,-1,0,0,-1,0
1570181547753823,-1,-1,-1,-2,0,-1,-2,1
1570181547767063,2,0,0,0,0,-1,3,-1
1570181547767063,-2,-3,-2,-1,0,-1,2,-3
1570181547774045,0,0,-2,0,-1,1,2,2
1570181547774045,-2,-2,0,0,0,0,0,-3
1570181547790378,-2,1,0,0,-2,-2,-2,2
1570181547790378,1,0,0,0,0,0,-1,1
1570181547792060,1,0,0,0,0,-1,-1,-2
1570181547792060,0,-1,0,0,1,0,0,-2
1570181547813119,4,1,3,0,1,-2,-14,13
1570181547813119,0,0,-1,-2,-1,0,0,3
1570181547814253,0,-2,0,-1,-1,0,-3,-1
1570181547814253,-1,-1,1,-1,-3,-1,0,-1
1570181547827013,1,0,0,0,-2,0,6,14
1570181547827013,-3,-2,-1,-2,-1,-1,0,-5
1570181547833997,-3,-1,-3,-2,0,-3,-9,-3
1570181547833997,-1,-1,0,-1,0,1,5,0
1570181547850474,-1,-1,-3,-1,0,-1,-2,-4
1570181547850474,1,0,0,1,0,-1,-4,1
1570181547851318,1,0,-2,-2,-1,2,8,0
1570181547851318,-2,-2,-1,0,-1,-3,-2,-3
1570181547872284,-2,-1,-1,-1,0,0,1,-4
1570181547872284,-2,-1,-2,-1,-1,-1,0,-8
1570181547874280,0,0,0,0,-1,-2,-1,-3
1570181547874280,0,1,-2,0,0,0,-3,4
1570181547886253,0,-2,-2,0,-1,-2,0,0
1570181547886253,1,0,0,0,1,0,0,-1
1570181547895085,-3,-1,0,-2,-1,0,0,1
1570181547895085,3,2,0,-1,0,0,-3,2
1570181547910944,-3,-3,-2,-1,-2,0,1,-7
1570181547910944,7,3,1,0,0,-1,-12,33
1570181547911593,-1,-1,-1,0,1,-1,1,1
1570181547911593,-1,0,1,-2,-1,2,0,-6
1570181547933055,2,-1,1,-2,-1,0,-3,3
1570181547933055,-5,-2,0,1,-2,-1,3,-12
1570181547935050,1,-2,-2,-1,0,-1,2,2
1570181547935050,0,1,-1,1,-1,-1,-4,5
1570181547946024,2,1,0,0,1,1,4,3
1570181547946024,-4,-3,-1,-2,-2,0,-2,-9
1570181547955066,-1,-1,0,-1,-1,0,0,-1
1570181547955066,-1,0,-1,-1,1,0,1,-6
1570181547970135,-1,-1,1,1,0,-1,-1,-5
1570181547970135,-2,-2,-3,1,0,-2,-1,-6
1570181547972038,2,0,0,1,-1,-1,-3,0
1570181547972038,-3,-2,0,-2,-1,-1,-1,-1
1570181547992948,-3,-1,-2,-3,-1,-2,1,-10
1570181547992948,1,0,0,0,0,1,2,6
1570181547993948,-1,0,-2,-2,0,-1,-2,-1
1570181547993948,0,-2,-1,0,-2,-1,-2,0
1570181548006125,-2,-1,-1,-2,-3,2,4,-11
1570181548006125,1,0,-1,0,-1,-4,-9,3
1570181548014986,3,0,-3,-1,-1,0,0,0
1570181548014986,0,0,-1,-1,-1,0,1,0
1570181548030651,-1,-2,0,0,1,1,2,-2
1570181548030651,-4,0,0,-2,-1,-2,-3,-15
1570181548031941,1,1,2,1,0,0,2,1
1570181548031941,0,0,-1,0,0,-1,-2,4
1570181548052886,-1,-1,-1,-4,1,-1,1,1
1570181548052886,-1,-2,1,-1,-2,1,1,-7
1570181548053882,0,-2,-1,0,-2,1,-2,-1
1570181548053882,-1,-2,-2,0,0,-1,4,-5
1570181548066667,2,0,-1,-2,-1,0,0,4
1570181548066667,2,2,1,1,1,-1,-1,6
1570181548075823,-2,0,-2,-1,-2,-2,1,-1
1570181548075823,0,0,-1,0,0,1,5,13
1570181548089787,-3,0,-1,1,-2,-1,-2,-2
1570181548089787,5,0,-1,-1,0,-2,-10,18
1570181548091779,-2,-1,1,-1,0,0,-1,1
1570181548091779,0,1,1,-1,-1,-1,-4,-2
1570181548112829,1,-1,0,0,-1,0,-1,2
1570181548112829,-4,0,-1,-1,1,2,7,-10
1570181548113724,-2,-2,-1,-1,0,-2,-2,-1
1570181548113724,-2,-1,-3,-1,0,-2,-2,0
1570181548125848,0,0,-1,1,-1,-3,-3,-1
1570181548125848,-3,-2,-2,-2,-3,-1,6,-6
1570181548135730,-1,-2,0,0,0,0,0,-6
1570181548135730,0,0,0,0,1,1,0,-2
1570181548149626,2,0,-1,1,0,1,-1,2
1570181548149626,-2,0,0,-1,0,0,0,-4
1570181548151623,1,0,-1,-1,0,-2,-2,2
1570181548151623,0,-1,0,-1,-2,-2,-1,-3
1570181548171711,-5,-1,0,0,0,0,3,-5
1570181548171711,-2,-3,-2,-2,1,-2,1,1
1570181548180664,-1,1,1,0,-1,-1,-1,5
1570181548180664,-1,-2,-1,-1,0,0,-2,-2
1570181548186594,-1,-2,-3,-3,-1,0,1,3
1570181548186594,-3,1,-2,0,0,0,3,-1
1570181548195503,-1,1,-3,0,-1,1,1,-3
1570181548195503,1,2,0,1,1,1,-1,4
1570181548210462,0,0,-1,1,-1,-1,-3,-3
1570181548210462,0,-1,-1,-1,-2,-1,2,-3
1570181548211889,-1,1,0,0,-2,-2,0,1
1570181548211889,-1,-1,-2,-2,1,-1,1,-3
1570181548232632,-1,0,-1,-2,-1,-1,0,0
1570181548232632,-1,-1,0,0,0,1,-2,-1
1570181548233622,0,-1,0,0,-1,0,2,-3
1570181548233622,-2,1,-1,-1,-1,0,-3,-2
1570181548254811,-2,-1,0,0,1,0,0,0
1570181548254811,0,-1,0,0,-1,0,0,-4
1570181548256563,2,1,1,0,0,0,0,6
1570181548256563,-2,-2,-1,0,-1,-2,-1,-2
1570181548269845,2,0,1,-1,0,-1,-4,-1
1570181548269845,-1,0,-2,-2,0,0,1,1
1570181548271522,2,0,1,-1,2,-1,-1,12
1570181548271522,-1,0,-1,0,-1,-1,-2,-2
1570181548292465,-1,-1,-3,-2,-1,-1,4,2
1570181548292465,1,0,2,1,0,-2,0,0
1570181548294493,3,-1,0,0,1,1,-6,-5
1570181548294493,1,0,-1,0,-1,-3,-5,1
1570181548314409,0,1,0,-1,1,-2,-2,0
1570181548314409,-5,-3,-3,-2,-3,0,7,-8
1570181548316400,-2,-3,-1,0,0,-1,-1,-5
1570181548316400,-3,-2,0,0,-1,1,1,-3
1570181548330469,0,1,0,1,-3,-1,-8,-2
1570181548330469,-1,0,-1,-1,-1,0,-2,-1
1570181548331470,-1,-2,-1,0,-2,0,0,-4
1570181548331470,1,0,-1,0,0,0,-1,3
1570181548352749,-1,0,0,-1,0,-1,3,-4
1570181548352749,-1,-1,0,-1,-1,0,-3,-3
1570181548354418,-1,0,-1,0,-2,-2,-2,-3
1570181548354418,-4,-3,-3,-1,-3,-2,-4,-11
1570181548375612,1,-2,-2,-1,-1,-2,-2,4
1570181548375612,-1,-2,-1,-2,1,-1,-2,-2
1570181548376349,0,-1,-1,-1,1,-1,-1,-1
1570181548376349,-1,1,2,-2,0,-1,1,5
1570181548390367,-1,-1,-1,0,0,0,-2,0
1570181548390367,1,-1,-2,-1,1,-1,0,4
1570181548391464,-2,-1,-2,-2,-2,-3,-1,-6
1570181548391464,0,1,-1,1,1,-1,-1,-5
1570181548412707,0,-3,-1,-1,-2,2,-2,4
1570181548412707,2,-1,-1,0,-1,-1,1,2
1570181548414460,3,0,-1,-1,0,-3,-14,17
1570181548414460,2,0,0,-2,0,0,2,1
1570181548435207,1,0,0,0,1,-2,0,-3
1570181548435207,1,2,1,0,-2,-1,-4,0
1570181548437186,-8,-1,-3,-4,-1,0,5,-7
1570181548437186,-6,-4,-2,0,-2,-1,-2,0
1570181548449162,-2,-1,0,0,-1,-2,-1,-1
1570181548449162,2,-1,0,-1,-2,-1,1,-1
1570181548456133,-3,-3,0,1,-2,-2,-6,-20
1570181548456133,2,1,-1,-1,0,2,5,4
1570181548472091,0,1,0,1,0,1,3,4
1570181548472091,0,1,0,2,0,0,-2,2
1570181548474749,-1,2,-1,0,-1,-1,2,-1
1570181548474749,-1,0,-1,1,-1,-2,-2,1
1570181548495032,-2,0,-1,-1,-1,-2,-2,-4
1570181548495032,-2,-3,-2,-1,-2,0,2,-2
1570181548497031,1,1,2,-1,1,-2,0,3
1570181548497031,0,0,0,1,-2,0,1,-5
1570181548508996,0,-2,0,-1,0,0,0,-2
1570181548508996,3,1,1,0,1,-2,-15,14
1570181548516054,0,-2,-1,-1,-1,0,3,-5
1570181548516054,3,0,-1,-1,2,0,-2,4
1570181548533051,-2,2,-1,0,-1,-1,-2,-4
1570181548533051,1,1,0,-1,-1,-1,1,-2
1570181548533934,-2,-2,-2,-2,0,2,1,0
1570181548533934,-2,0,0,1,-1,-1,-3,-3
1570181548554871,-1,-2,0,-1,0,1,4,-3
1570181548554871,-3,-2,0,0,-2,-2,0,1
1570181548556866,0,-2,-1,-1,0,1,2,5
1570181548556866,1,0,0,0,-1,0,4,6
1570181548569838,-4,-2,-3,-2,-2,-1,1,-7
1570181548569838,-2,-2,-2,0,-1,-1,1,-8
1570181548575817,-2,-1,0,-1,1,0,0,-1
1570181548575817,2,-1,0,1,-2,-2,-6,-1
1570181548592768,-1,-1,-1,0,0,0,-2,1
1570181548592768,0,-1,-3,0,0,1,2,1
1570181548593771,1,0,0,0,-2,-1,-1,1
1570181548593771,-1,-2,-1,-2,-2,-1,1,0
1570181548615273,-4,-1,0,-2,-2,-1,5,-8
1570181548615273,0,1,2,0,0,-1,-7,1
1570181548617780,0,-1,-1,1,0,2,2,0
1570181548617780,0,-1,-2,1,-1,-1,0,-2
1570181548629671,-2,-2,-3,1,-1,0,2,-5
1570181548629671,-2,-2,-2,-2,-1,1,0,-9
1570181548636652,-1,-1,0,-2,0,0,2,2
1570181548636652,-1,-1,0,-2,-1,-1,-4,2
1570181548652608,1,0,-1,-1,0,0,-2,2
1570181548652608,-2,-1,-1,-2,-2,1,3,-4
1570181548654602,0,-1,-2,1,-1,-2,-2,2
1570181548654602,-3,-2,1,-1,0,0,1,-6
1570181548674549,2,-1,0,0,0,0,-2,5
1570181548674549,-5,-2,-1,-1,-1,-3,-1,-10
1570181548675546,0,1,1,-1,-1,-1,0,-3
1570181548675546,-1,2,-2,-2,-1,-1,-3,-1
1570181548688511,2,-1,-1,-1,0,0,-1,5
1570181548688511,-5,-3,-3,-1,0,0,3,-5
1570181548696489,-1,-2,0,-1,-2,-1,-1,-3
1570181548696489,-2,-2,-1,0,1,-1,2,-1
1570181548711449,-4,-2,1,-1,-2,-1,6,-16
1570181548711449,2,1,2,-1,1,0,1,18
1570181548712446,0,-2,-2,-2,-1,2,0,3
1570181548712446,-1,0,2,1,0,0,1,-2
1570181548734388,-3,-1,-2,-3,1,0,6,-2
1570181548734388,1,-1,0,-1,-1,0,-1,-1
1570181548735389,1,0,0,1,-1,-3,-1,-2
1570181548735389,1,1,0,1,1,0,-2,2
1570181548748438,0,1,2,-1,0,-2,-11,2
1570181548748438,1,-1,-1,0,0,-1,1,-1
1570181548757329,-1,-1,-2,-2,-1,-1,-3,-2
1570181548757329,-1,-1,-2,0,-1,0,3,0
1570181548771289,2,0,1,1,0,-2,-2,5
1570181548771289,-1,1,-1,-1,0,0,0,-1
1570181548772288,-1,1,-1,0,0,-1,0,-3
1570181548772288,-1,0,0,-1,-1,-1,-4,-2
1570181548794373,0,-2,0,0,-2,-1,-3,0
1570181548794373,1,1,1,-1,-1,1,1,3
1570181548795227,-4,-1,-3,-1,1,-2,-3,-10
1570181548795227,-5,-3,-2,-3,-1,2,12,-16
1570181548808192,7,4,2,1,-1,0,-16,14
1570181548808192,-2,-1,-1,-2,-1,-1,0,-4
1570181548817166,1,0,-2,1,2,0,-3,-1
1570181548817166,0,-2,-1,0,-2,-1,-2,0
1570181548832127,-1,-2,-2,-3,-1,0,3,-1
1570181548832127,-3,-2,0,0,0,-1,3,-9
1570181548832127,2,1,1,-1,0,0,-2,4
1570181548832127,0,-1,0,-1,-1,-1,-6,-1
1570181548854068,1,-1,-1,1,0,-1,0,3
1570181548854068,-1,0,1,0,-2,-2,-3,2
1570181548855065,-2,-3,1,-2,-1,-2,0,2
1570181548855065,1,0,-2,-2,-1,-1,-1,3
1570181548869028,-2,-1,-1,-1,-2,0,-3,-10
1570181548869028,-1,0,1,-1,0,-1,0,3
1570181548877089,-1,-1,-2,0,-1,1,0,0
1570181548877089,2,1,3,1,0,-2,-2,17
1570181548892010,-5,-2,-3,-2,1,1,9,-15
1570181548892010,2,2,-2,0,0,-3,-8,3
1570181548892964,0,0,-1,0,-2,-2,1,2
1570181548892964,-1,0,-1,-3,0,-1,0,-2
1570181548913909,-1,-1,1,0,-1,-1,3,0
1570181548913909,-5,-3,-1,-1,0,2,11,-2
1570181548915420,1,1,1,1,0,-1,-5,3
1570181548915420,-1,0,-1,-1,0,-1,-1,-4
1570181548928868,1,-1,0,-1,-1,-2,-3,9
1570181548928868,-2,-2,-1,-1,-1,-1,0,-4
1570181548936847,-3,1,0,-1,-1,1,2,-4
1570181548936847,1,-1,-1,1,-1,-2,-2,-1
1570181548951807,0,0,1,1,1,0,-7,6
1570181548951807,1,0,-1,0,-2,-1,-2,1
1570181548952804,1,-1,0,-1,-1,-1,1,-5
1570181548952804,0,0,-1,0,-1,0,-2,-6
1570181548974747,-2,-1,-1,-1,-1,-2,-2,-2
1570181548974747,2,-1,-3,0,0,0,-3,6
1570181548974747,1,-2,0,0,-1,1,-1,2
1570181548974747,-2,-1,-3,-2,-1,0,0,-6
1570181548988856,1,0,-2,-1,-1,-1,-7,14
1570181548988856,-2,-1,0,-1,2,-1,1,1
1570181548996689,-2,0,-1,-1,-2,-2,1,-4
1570181548996689,-1,-1,0,0,-1,0,-3,3
1570181549011810,-2,0,1,0,1,0,3,-4
1570181549011810,-2,0,-1,-1,-1,-1,-1,0
1570181549012644,1,-2,-3,-1,-1,-1,0,4
1570181549012644,-1,-1,1,-3,0,-1,2,-2
1570181549042565,0,0,-2,0,-1,-1,0,-3
1570181549042565,-4,-2,0,-1,0,2,6,-10
1570181549043781,1,-1,0,0,-1,-2,-4,0
1570181549043781,-1,-1,2,0,1,0,1,1
1570181549048548,3,1,0,2,0,-3,-1,17
1570181549048548,3,1,0,-1,1,2,2,8
1570181549056527,-2,-2,-3,-1,-1,0,2,1
1570181549056527,-1,0,-1,1,0,-1,-3,-2
1570181549071487,0,-1,-1,-1,-1,0,0,-2
1570181549071487,1,1,2,0,0,-3,-4,-4
1570181549072807,0,-1,-1,-1,0,0,0,-1
1570181549072807,0,-2,-3,-2,0,0,-2,0
1570181549094425,-3,-2,1,0,-1,-1,1,-6
1570181549094425,-2,-3,-3,-2,-2,0,9,-14
1570181549095422,-1,-1,-1,0,-1,0,-4,-2
1570181549095422,0,0,-1,0,-1,-2,-1,-2
1570181549108393,-2,0,-2,0,-1,0,0,-5
1570181549108393,-1,-3,-1,-1,0,1,-2,3
1570181549116367,-1,0,0,-1,0,-1,1,-1
1570181549116367,-1,0,-3,0,-1,1,0,0
1570181549131326,0,0,0,-1,0,-2,-1,1
1570181549131326,1,0,-1,-1,0,-3,-6,1
1570181549132324,0,-1,-2,-1,0,0,1,0
1570181549132324,0,1,-1,-2,-1,-1,-1,6
1570181549154266,-2,-1,-1,-1,0,-1,0,-9
1570181549154266,0,0,-1,0,-1,1,-1,4
1570181549155264,-1,1,-2,-1,0,-1,-3,-9
1570181549155264,5,3,2,1,0,1,-1,2
1570181549168233,1,-2,-2,0,-2,-3,-4,0
1570181549168233,-4,0,0,-1,-1,-1,-3,-3
1570181549177205,1,0,0,-1,-1,-1,-1,1
1570181549177205,-5,-2,-1,-2,0,-1,11,-22
1570181549192164,0,1,-2,-2,1,1,-1,-1
1570181549192164,1,0,0,1,-1,-1,-4,5
1570181549192164,-1,0,0,-1,-1,-1,1,1
1570181549192164,-3,0,-1,-2,-2,-2,1,-1
1570181549214106,-1,0,0,1,-1,-1,0,-2
1570181549214106,2,0,-3,-1,0,-1,-1,-2
1570181549215168,-2,0,1,-1,0,-1,-1,0
1570181549215168,2,-1,-2,0,0,-1,0,18
1570181549229182,0,-1,-1,-2,-1,-2,0,-2
1570181549229182,1,0,1,1,0,-2,-7,0
1570181549237045,1,-3,-3,-1,0,0,1,4
1570181549237045,0,1,0,-1,0,-1,-5,-2
1570181549252040,0,0,-2,0,0,-2,-1,-2
1570181549252040,-1,1,0,0,1,0,3,6
1570181549253002,-1,0,-2,0,-1,-1,-2,-2
1570181549253002,-1,-4,-2,-2,-2,-2,-4,-1
1570181549273950,-10,-4,-1,-2,-2,2,18,-28
1570181549273950,1,0,-1,-2,-1,-2,-6,-3
1570181549274943,-3,-1,0,0,-1,2,5,-3
1570181549274943,1,1,1,1,-1,-3,-7,0
1570181549297885,0,1,-1,1,-2,0,1,3
1570181549297885,2,-1,-2,-4,0,1,2,6
1570181549298070,0,0,1,0,0,-1,-1,0
1570181549298070,-2,-1,-2,-1,0,1,1,-5
1570181549311909,0,-2,-1,0,0,1,-4,5
1570181549311909,-2,-1,0,1,-2,-4,-8,-18
1570181549313012,3,1,-1,0,3,-1,-3,5
1570181549313012,1,-1,-1,-1,0,1,-1,-1
1570181549342761,0,0,-1,-1,0,-2,-5,1
1570181549342761,0,1,-1,-1,-1,0,1,5
1570181549342761,-3,0,0,-1,-1,0,0,-4
1570181549342761,-1,1,-1,-1,1,-1,-1,-2
1570181549357722,4,1,1,0,-1,1,0,12
1570181549357722,-3,-3,-2,-1,-1,1,1,0
1570181549358719,-2,-2,-2,-1,-1,1,5,2
1570181549358719,-3,-3,0,1,-1,0,0,2
1570181549371686,-1,-1,1,-1,-1,-1,-3,0
1570181549371686,-2,-1,1,2,-3,-2,2,-3
1570181549372739,4,0,0,0,0,-1,-2,6
1570181549372739,-1,-1,-1,-2,-2,0,-2,-3
1570181549394727,-1,-1,-1,-1,-1,0,-2,-3
1570181549394727,-3,-1,-2,-1,-1,1,4,-11
1570181549394727,-1,0,1,-1,-1,-1,0,-1
1570181549394727,2,0,-1,1,0,-1,0,-2
1570181549417636,0,1,0,-2,0,-1,-4,1
1570181549417636,1,0,0,-1,1,0,-4,1
1570181549418562,-2,-1,-2,-2,-1,1,0,0
1570181549418562,1,0,1,0,0,-2,-3,1
1570181549431532,0,-1,-1,-1,2,1,2,2
1570181549431532,-1,-2,-1,-2,0,0,-3,4
1570181549432522,-1,-1,-1,0,-1,-2,-2,-4
1570181549432522,-3,-2,-1,-1,0,1,3,-2
1570181549454469,-2,-1,-2,-1,0,-2,-5,-8
1570181549454469,-1,0,1,0,0,2,3,4
1570181549455511,5,0,0,-1,0,-3,-17,16
1570181549455511,-2,-3,-3,-1,-2,-1,0,-3
1570181549477690,1,-1,-1,0,-1,0,0,-1
1570181549477690,1,-1,-1,-1,-1,0,-3,5
1570181549478400,-2,-1,-2,0,-2,-2,-3,-17
1570181549478400,-1,2,-1,-2,-1,2,2,3
1570181549492418,2,-1,1,-1,-1,-2,-5,3
1570181549492418,-1,-1,-3,-3,-2,-1,1,-5
1570181549492418,0,-3,-1,-2,-1,-1,4,-6
1570181549492418,1,0,0,-1,-1,-1,-3,-3
1570181549514310,3,0,-1,0,2,2,-4,7
1570181549514310,-1,0,-1,1,0,-2,-3,0
1570181549515303,0,1,-1,0,-1,0,2,0
1570181549515303,0,0,0,1,0,-3,-4,3
1570181549537245,-2,-2,-1,-1,-3,1,1,0
1570181549537245,2,1,1,1,0,-1,0,4
1570181549538240,-2,0,-1,0,-1,-2,0,0
1570181549538240,-3,-2,0,-1,-1,-3,-7,-13
1570181549552240,-6,-4,-2,-2,-1,0,11,-18
1570181549552240,0,-3,-1,-2,0,0,-1,-1
1570181549552240,-3,-1,0,-1,0,0,1,-3
1570181549552240,4,0,-1,1,-1,-1,1,17
1570181549574469,0,1,-1,1,-2,-1,2,4
1570181549574469,1,0,-2,-2,-1,-2,-3,3
1570181549575142,0,-1,-1,1,-2,1,2,1
1570181549575142,1,-1,0,1,2,1,-1,-4
1570181549598080,1,0,-1,-1,-2,-2,-4,2
1570181549598080,-1,1,-1,-2,0,-1,3,2
1570181549599077,-1,0,-1,0,-1,-1,-5,-2
1570181549599077,0,0,-1,-1,-1,-2,0,-3
1570181549612155,1,0,-1,2,1,0,-1,4
1570181549612155,-3,-1,-2,0,-3,0,-2,-2
1570181549613040,-1,2,1,1,-1,-2,-1,-3
1570181549613040,1,0,1,-1,-2,0,-1,1
1570181549633985,2,0,1,-1,1,-1,-8,5
1570181549633985,-1,-2,2,0,-1,-3,-4,-10
1570181549634982,-5,-3,-3,-2,-1,0,14,-13
1570181549634982,0,0,-1,0,0,-1,-3,2
1570181549657993,-1,1,0,0,-2,-3,-1,-4
1570181549657993,-1,-1,-1,0,1,0,0,-1
1570181549658918,1,-1,-1,1,-1,-1,0,2
1570181549658918,-2,-2,0,-2,0,0,2,-2
1570181549671883,0,0,-2,-1,-1,-1,-4,-2
1570181549671883,-3,-2,-3,-1,-1,-1,-3,-1
1570181549672881,-1,-3,-2,-1,1,-1,-4,0
1570181549672881,-2,-2,-2,1,0,1,3,-1
1570181549694824,1,1,0,-1,-1,-3,-3,1
1570181549694824,2,2,0,-1,0,1,0,2
1570181549694824,0,1,0,-1,-1,-1,-3,0
1570181549694824,1,-3,-1,-2,-2,-1,0,2
1570181549717759,-2,-2,-1,0,-2,-1,2,-3
1570181549717759,1,0,0,0,0,-2,2,0
1570181549718755,1,0,-1,-1,0,0,-1,3
1570181549718755,-3,-1,-3,-2,0,-1,0,-4
1570181549731728,-1,-2,0,-1,-1,1,1,-2
1570181549731728,0,0,0,0,0,-1,-1,-1
1570181549732720,0,-2,-1,-2,0,0,-2,10
1570181549732720,3,2,1,1,1,-4,-14,9
1570181549754721,4,3,1,-1,0,-1,-6,11
1570181549754721,-1,-2,-1,1,0,0,0,0
1570181549755659,1,0,0,1,0,0,0,-4
1570181549755659,-1,-2,0,-1,-2,0,2,-4
1570181549777607,-3,-2,-3,-2,1,2,5,-3
1570181549777607,0,0,2,0,-1,-1,-4,2
1570181549778597,-1,-1,0,-1,-1,1,0,1
1570181549778597,-3,0,-1,-1,1,0,2,-5
1570181549791766,-2,-1,-1,1,0,-1,0,-2
1570181549791766,-2,-1,-2,-2,-3,0,3,-1
1570181549792567,-3,0,-1,-1,-1,-2,0,-2
1570181549792567,-1,0,-1,-1,-2,1,3,-2
1570181549814830,0,0,0,-1,0,-1,2,-1
1570181549814830,0,-1,-1,0,0,-3,-7,0
1570181549815499,0,0,-1,0,-2,-1,-4,-7
1570181549815499,3,1,0,1,0,-1,1,12
1570181549837650,-3,-2,-1,-2,-2,-1,0,-2
1570181549837650,1,-1,-3,-2,2,0,2,0
1570181549838446,-1,0,1,0,-1,0,-3,-2
1570181549838446,-6,0,-3,-2,-2,1,14,-19
1570181549851484,2,1,2,0,0,-1,-6,3
1570181549851484,1,1,0,0,-1,0,1,8
1570181549859467,-1,0,-1,0,-2,-1,0,1
1570181549859467,-1,-1,-1,-2,-2,0,0,-5
1570181549874890,-1,-1,-3,-1,0,0,2,-1
1570181549874890,-1,0,-2,1,-1,1,0,-4
1570181549875338,1,1,2,-1,0,-2,-6,3
1570181549875338,0,-2,-1,1,0,0,-4,1
1570181549898276,-1,-1,-1,-1,-3,-1,2,-2
1570181549898276,-1,0,-2,-1,-1,-1,-3,3
1570181549898276,-1,-1,-1,-1,-1,-1,2,1
1570181549898276,-2,-2,0,0,0,0,-1,-1
1570181549911246,-2,0,-2,-2,-1,-1,-2,-11
1570181549911246,-1,2,1,1,0,-2,2,-3
1570181549919223,1,-1,-2,-1,-1,-1,0,4
1570181549919223,-1,-2,-2,-1,-2,-2,-2,5
1570181549934449,-2,-1,-1,-1,-1,-2,1,-3
1570181549934449,1,-1,1,-1,-1,-1,-6,4
1570181549935180,2,0,0,-2,1,0,3,5
1570181549935180,2,-1,1,0,0,0,-2,4
1570181549958118,-1,0,-3,0,1,0,-3,5
1570181549958118,-2,-1,-1,0,-1,-2,1,-4
1570181549958118,-2,-2,0,1,-1,-1,-2,-1
1570181549958118,-2,-1,-2,-2,0,-1,1,-5
1570181549972087,-2,-1,2,2,0,0,3,0
1570181549972087,-1,0,-1,0,0,-1,2,0
1570181549979069,-2,-1,-2,-2,1,0,0,-3
1570181549979069,0,2,-1,-1,0,-3,0,0
1570181549994027,-1,-3,-3,0,0,2,-2,-1
1570181549994027,1,-2,1,0,-1,1,1,2
1570181549995027,0,0,-2,1,-1,0,-2,-1
1570181549995027,0,0,-1,-2,-1,-1,-6,-16
1570181550017965,2,0,0,-2,0,0,-2,8
1570181550017965,-2,-3,-2,-1,0,1,2,-7
1570181550017965,-2,0,0,-2,-1,-1,0,-3
1570181550017965,2,0,2,0,0,-1,-11,11
1570181550030964,-1,-2,-1,0,-2,-3,2,-3
1570181550030964,-1,0,0,1,-1,-2,0,5
1570181550039906,-1,-1,-2,-2,0,1,-4,0
1570181550039906,0,-2,-3,-2,-1,1,4,2
1570181550054859,1,1,0,2,0,1,2,4
1570181550054859,-1,-1,0,-3,-1,-1,-3,-4
1570181550054859,-1,-2,-1,0,0,-1,2,-2
1570181550054859,-2,-1,-1,-2,0,1,0,1
1570181550077906,-2,-2,-1,0,-1,-1,1,-5
1570181550077906,0,0,0,0,-2,1,1,-2
1570181550078798,1,0,-1,1,-2,-1,0,-1
1570181550078798,0,0,-1,-1,0,1,8,12
1570181550090763,2,0,1,0,-2,-2,-2,-1
1570181550090763,-2,-3,-1,-2,0,1,0,-3
1570181550099743,0,-1,0,0,-1,0,-1,3
1570181550099743,0,-2,-1,1,-2,-1,1,1
1570181550114711,-1,0,0,-2,0,-1,1,-2
1570181550114711,0,-1,0,-1,-1,-1,-1,-1
1570181550115702,-1,-2,-2,-1,0,0,3,-4
1570181550115702,-1,0,-1,0,-1,-1,-2,-4
1570181550137730,-1,-1,0,-1,-1,-1,-6,4
1570181550137730,-1,-1,-2,-2,2,-3,0,-3
1570181550138637,-3,-2,-2,-3,0,-1,0,-4
1570181550138637,3,3,2,1,-1,-5,-5,7
1570181550151602,-3,-1,-2,-2,-2,0,5,2
1570181550151602,-1,-2,-2,-1,0,2,2,2
1570181550159584,-1,-1,2,2,0,-2,-3,-3
1570181550159584,-1,-1,0,-1,0,2,7,6
1570181550174543,0,-1,-2,-1,1,0,0,-7
1570181550174543,0,0,-1,1,0,-1,-2,0
1570181550175556,0,0,-2,-2,-2,1,1,2
1570181550175556,-2,0,1,1,0,0,-1,-8
1570181550197697,1,0,2,-1,-1,-2,-1,2
1570181550197697,-1,0,-3,0,-1,1,-2,4
1570181550198474,0,-1,0,1,-1,0,-1,-1
1570181550198474,-2,0,-1,0,-2,-2,-2,-4
1570181550220424,0,-1,-1,-1,-1,0,1,2
1570181550220424,-3,0,-1,-1,0,-1,4,-8
1570181550220636,-2,-1,0,-2,-2,-1,1,-6
1570181550220636,4,1,-1,0,-2,-3,-13,6
1570181550234378,0,-1,-1,0,-1,-1,-2,-1
1570181550234378,0,2,1,-2,-1,-1,-1,-3
1570181550235376,-1,-2,-1,-2,1,-1,3,-3
1570181550235376,-3,-2,-2,-1,0,1,1,-5
1570181550257367,-2,-1,-2,-1,-1,-3,3,-6
1570181550257367,4,1,1,1,0,-2,-6,5
1570181550258316,-1,-2,-1,0,-2,-3,-6,-9
1570181550258316,-4,-1,0,0,0,0,2,-8
1570181550280256,-1,0,-1,0,1,1,1,-4
1570181550280256,0,-3,-2,-1,-2,3,3,1
1570181550281255,-1,-1,-1,1,0,1,-1,1
1570181550281255,0,-3,-2,-2,-1,-1,0,-2
1570181550294510,-2,-1,0,-1,-1,-1,0,-1
1570181550294510,-1,0,0,-1,-1,-1,-1,-5
1570181550295216,2,0,0,3,0,-1,-7,7
1570181550295216,-1,-1,-2,0,-1,0,-1,-1
1570181550317159,0,1,-2,-2,0,0,-1,5
1570181550317159,-1,-2,0,0,0,0,-1,-1
1570181550318540,-2,-1,-2,0,0,1,4,3
1570181550318540,-2,-2,1,-1,-1,0,-1,-3
1570181550340101,3,1,1,0,-2,-2,-4,12
1570181550340101,-3,-1,-2,-2,0,-1,0,-3
1570181550341095,-2,-2,-1,-2,-3,-1,-2,-15
1570181550341095,1,1,1,3,0,0,-4,1
1570181550355058,-2,-2,-1,-1,0,1,0,-3
1570181550355058,-1,-1,-2,-2,-1,-1,2,1
1570181550355058,1,0,0,-1,-1,-1,1,3
1570181550355058,-1,0,-2,-3,0,-1,4,-5
1570181550377999,-1,0,0,1,0,0,-3,-8
1570181550377999,-1,0,-1,1,-1,-1,-4,0
1570181550378333,-1,-1,-2,-1,-1,-1,-1,4
1570181550378333,-1,0,-1,-1,-1,-2,2,-1
1570181550399970,-1,1,-1,1,-1,-2,-3,1
1570181550399970,0,0,-2,-1,0,-1,-3,-1
1570181550401079,-1,0,-2,-1,-1,0,1,1
1570181550401079,0,1,0,0,-1,-1,0,5
1570181550413899,1,-2,1,-2,0,0,0,-1
1570181550413899,-9,-5,-1,-2,-1,0,9,-29
1570181550415013,1,2,0,-1,0,1,-1,2
1570181550415013,-2,-1,-1,0,0,1,2,-3
1570181550437850,0,-1,0,-1,2,0,-1,2
1570181550437850,1,-1,-1,0,-1,-2,0,2
1570181550438835,2,0,1,1,-1,-1,-5,-1
1570181550438835,0,-2,0,1,-1,-2,-3,3
1570181550460169,-1,0,-2,-1,-2,0,3,-4
1570181550460169,5,0,1,2,1,1,1,16
1570181550460775,0,0,0,0,1,-2,2,1
1570181550460775,0,-1,0,-1,-1,0,-1,0
1570181550474742,-1,-1,-1,-1,0,0,1,1
1570181550474742,0,1,1,-1,-1,-1,-1,1
1570181550474742,3,1,0,0,0,0,-5,8
1570181550474742,0,-1,-2,-2,-1,0,1,0
1570181550497689,-3,-1,-1,0,1,-1,-2,-3
1570181550497689,-1,1,-1,-1,-1,-1,-2,0
1570181550498674,-3,-1,-2,0,-2,-1,3,-2
1570181550498674,-1,-1,-2,-2,0,-1,1,-4
1570181550519620,-2,-3,-3,-1,-1,1,3,-8
1570181550519620,5,2,-1,-1,0,-2,-10,16
1570181550520614,0,-2,0,-2,-1,0,-1,-1
1570181550520614,-1,-3,-1,-1,0,-1,-1,-1
1570181550534584,-2,-1,2,-1,-1,-1,2,-3
1570181550534584,-2,-2,-3,-1,0,1,0,-5
1570181550535576,-1,0,-1,-2,1,0,1,1
1570181550535576,-3,0,-2,0,1,-2,-9,-11
1570181550557517,0,-2,-2,-1,-1,-1,-1,5
1570181550557517,0,-2,0,0,-1,1,1,-4
1570181550558523,0,-1,0,1,0,-2,-1,0
1570181550558523,-1,1,-2,-2,-2,1,3,-1
1570181550580456,-1,0,-1,0,-1,-2,-1,4
1570181550580456,-1,0,-2,0,0,-1,1,-2
1570181550580456,-1,0,-2,-3,0,0,0,-3
1570181550580456,1,0,0,0,-1,0,2,2
1570181550594546,0,0,0,0,-1,0,-1,3
1570181550594546,11,5,3,3,2,-3,-24,32
1570181550595417,-1,0,0,0,-1,1,2,-4
1570181550595417,1,1,1,1,0,-3,-4,-3
1570181550618508,3,0,0,-1,-3,-2,-3,2
1570181550618508,-4,-1,-1,-2,-1,-1,7,-11
1570181550618508,-1,-1,-2,-2,-2,0,1,-1
1570181550618508,-1,0,-2,-2,0,1,-1,6
1570181550640301,-1,-2,-3,-1,0,1,1,-4
1570181550640301,-3,0,-1,-1,-1,1,6,0
1570181550641291,-1,-4,-4,-3,-1,-1,-5,-11
1570181550641291,-1,-2,-1,0,0,-1,3,-2
1570181550654257,-2,-1,0,-1,1,-3,-4,-5
1570181550654257,-3,-2,0,-1,-3,-2,1,-8
1570181550655253,0,-1,1,0,0,0,-1,2
1570181550655253,0,0,-1,0,0,0,-1,2
1570181550677206,-1,1,0,-1,0,-2,-2,-1
1570181550677206,-3,-1,-1,-2,-2,1,-1,-7
1570181550678243,-1,0,-1,0,-1,-1,2,0
1570181550678243,-1,-1,-1,0,-1,-1,2,2
1570181550699453,1,0,-1,-1,-1,-1,0,-1
1570181550699453,3,-1,0,-1,1,-3,-10,10
1570181550707115,-1,0,0,-1,0,0,1,3
1570181550707115,-1,-1,1,-1,0,0,-5,1
1570181550714411,-4,-1,-1,-1,-1,0,-1,-3
1570181550714411,-1,-2,-2,-1,1,0,5,-5
1570181550715094,1,1,-1,0,0,-3,-3,2
1570181550715094,2,1,2,0,-1,-1,-1,13
1570181550738031,-2,0,-2,-1,-2,0,4,0
1570181550738031,-2,-3,-2,-1,0,-1,0,-14
1570181550738170,0,0,-1,0,-1,0,3,4
1570181550738170,-3,-1,0,-1,0,-1,0,-9
1570181550760300,-2,0,1,0,-1,-2,-3,-2
1570181550760300,-1,-2,0,-1,-2,0,3,-2
1570181550760972,-1,-1,-2,-1,1,-3,-2,-2
1570181550760972,0,-1,0,-2,-2,0,1,-3
1570181550774937,1,-1,0,1,1,-1,-2,0
1570181550774937,-2,2,-1,-2,-3,1,0,-3
1570181550775299,-2,0,0,-1,-1,0,0,-2
1570181550775299,7,0,-1,0,0,-1,-11,21
1570181550797872,0,2,0,0,0,-3,-1,2
1570181550797872,-2,-1,-1,-1,-1,1,3,-3
1570181550797872,-1,0,0,0,0,-1,-2,-1
1570181550797872,-3,-2,-2,-2,-2,1,4,-7
1570181550819818,1,-1,0,-3,-1,1,0,0
1570181550819818,-3,0,-2,1,-1,-3,-2,0
1570181550820867,-2,-2,0,-1,-2,1,5,-3
1570181550820867,-1,-2,-3,0,-1,-1,-2,-7
1570181550833776,-1,-1,1,-1,-1,-2,-7,-1
1570181550833776,-1,-1,-1,-1,-1,0,3,-3
1570181550841760,-1,-2,1,-1,1,1,2,2
1570181550841760,-2,1,-1,0,-1,-3,-1,-5
1570181550857714,-1,-2,-3,-3,-1,-1,-1,-4
1570181550857714,0,0,0,-1,0,0,2,3
1570181550858710,-2,0,-2,-1,-2,1,-2,-5
1570181550858710,-2,-3,-2,-1,-1,1,5,-3
1570181550879657,1,1,-1,0,1,-2,0,0
1570181550879657,-1,-3,-1,-1,-1,-1,-2,0
1570181550880657,-1,-2,-2,0,0,0,4,2
1570181550880657,-2,-1,-1,-1,0,1,3,-6
1570181550893626,6,0,1,2,-1,-3,-12,12
1570181550893626,-2,-2,-3,-2,0,0,1,0
1570181550901596,1,0,2,0,0,-2,-2,2
1570181550901596,-3,1,0,1,-1,-1,-1,-5
1570181550917556,-1,-2,-3,-2,-2,2,5,-3
1570181550917556,-2,1,2,1,0,-3,-1,-4
1570181550918551,2,0,0,2,-1,-1,-4,19
1570181550918551,4,1,-1,1,-1,-2,-5,4
1570181550940491,-3,-1,-1,-2,0,0,4,-5
1570181550940491,-3,-2,-2,0,-2,1,6,-6
1570181550940491,-4,-1,-1,-2,-2,-1,-4,-14
1570181550940491,0,-1,-1,0,-1,0,2,1
1570181550953460,-1,-2,2,0,-1,1,3,0
1570181550953460,-2,-1,-1,-2,0,0,-1,-2
1570181550962432,0,0,0,-3,-2,0,-3,-5
1570181550962432,1,0,1,-2,1,1,-1,0
1570181550976464,-4,1,-2,-1,-1,1,1,-7
1570181550976464,6,3,1,1,0,-3,-14,13
1570181550984378,-2,-3,-3,1,-1,2,1,-1
1570181550984378,-2,-2,1,-1,0,-3,-1,0
1570181551000401,-2,-2,0,0,-1,-2,3,-3
1570181551000401,1,-2,-2,-2,-2,-2,1,-2
1570181551001335,0,-1,0,0,-2,-3,-1,0
1570181551001335,-2,0,-1,-2,0,-1,0,0
1570181551013301,2,1,0,0,0,-1,1,15
1570181551013301,0,1,-1,-1,-2,-3,-4,-3
1570181551022273,-3,-1,-1,-1,0,-1,-2,-6
1570181551022273,-2,-3,-1,-2,-2,0,2,-4
1570181551037231,-1,-1,1,-1,0,0,-1,-4
1570181551037231,-1,-1,0,0,1,2,0,-1
1570181551038288,0,-1,-3,-1,-1,-1,-2,-9
1570181551038288,-1,0,1,0,-1,1,0,-1
1570181551060218,-2,-3,-2,-2,-1,1,1,-1
1570181551060218,2,0,0,0,1,0,1,6
1570181551061171,1,-1,1,-1,-1,-1,-3,-1
1570181551061171,-1,0,-1,-1,-2,-1,1,-1
1570181551074198,0,-1,-2,-2,0,-1,-4,1
1570181551074198,-4,-1,0,-1,-1,1,3,-8
1570181551082314,0,0,-1,0,0,-1,1,5
1570181551082314,3,0,-1,0,-2,-2,-5,2
1570181551097079,0,-1,0,1,-4,-1,4,-5
1570181551097079,0,-2,0,-2,0,-2,-1,0
1570181551098069,-1,0,-1,0,-2,0,-1,1
1570181551098069,-2,0,-1,-1,-1,-2,0,-2
1570181551120192,-1,0,-1,0,-1,-1,-3,-2
1570181551120192,-2,-2,-2,-1,0,-2,-1,-4
1570181551121104,-2,-2,1,-1,0,1,4,0
1570181551121104,-2,-2,-2,-1,0,0,-1,0
1570181551134055,-1,-1,0,0,0,-1,-4,-3
1570181551134055,-1,1,-2,-1,0,0,0,3
1570181551141956,-1,-1,-1,-1,-1,-1,3,-2
1570181551141956,0,-1,-2,-1,1,0,-1,3
1570181551155914,-4,-2,-2,-1,0,2,11,-17
1570181551155914,-1,-3,-1,0,0,0,-1,0
1570181551165086,0,0,-1,0,0,-2,-1,1
1570181551165086,-9,-3,-1,-3,-2,-2,4,-25
1570181551179851,1,1,1,2,2,-2,-1,0
1570181551179851,-1,-1,-2,-2,0,0,3,-1
1570181551180848,1,0,1,1,0,-1,-3,2
1570181551180848,-1,-1,0,0,0,1,0,-1
1570181551202835,1,-1,-2,0,1,2,0,1
1570181551202835,2,0,1,0,-1,0,-2,3
1570181551204145,1,-1,-2,-1,0,-1,-4,1
1570181551204145,3,0,0,0,0,-1,-1,3
1570181551215754,2,3,1,-1,-1,-2,-2,12
1570181551215754,-5,-3,-1,-1,-2,1,12,-13
1570181551225729,-2,0,1,-2,-1,1,0,1
1570181551225729,1,-1,-1,1,-2,-1,-2,2
1570181551239692,0,-2,-1,-2,-1,-1,-5,3
1570181551239692,1,-1,-1,-1,-2,-1,4,12
1570181551241686,-5,-2,-3,0,-1,1,7,-5
1570181551241686,2,0,-1,-1,0,0,-4,4
1570181551262630,0,0,-1,-1,-1,0,1,-3
1570181551262630,4,2,2,2,1,-3,-9,31
1570181551264628,-1,1,-1,-1,1,-2,-2,-6
1570181551264628,-1,-1,1,1,0,1,0,2
1570181551276637,-6,-2,-1,-3,-2,2,19,-12
1570181551276637,-14,-6,-3,-1,-3,-4,-5,-61
1570181551285571,3,0,0,-1,-2,-2,-5,8
1570181551285571,-8,-2,-2,-1,-1,-3,-3,-46
1570181551300535,-1,-2,-1,-1,-1,-3,-7,-2
1570181551300535,1,0,-2,-1,0,1,3,-2
1570181551301643,1,2,-1,0,0,-1,-3,-5
1570181551301643,0,-1,-2,-1,0,0,1,-4
1570181551322468,-3,-2,-1,-1,-1,-2,-2,-12
1570181551322468,2,2,1,0,0,0,-4,6
1570181551324463,0,-1,1,0,1,0,-6,3
1570181551324463,4,1,1,-2,0,1,1,20
1570181551336480,1,0,-1,0,1,0,-7,5
1570181551336480,3,1,1,0,0,-2,-2,13
1570181551345409,0,-2,-1,-1,-2,1,4,3
1570181551345409,-5,-2,-1,-2,0,1,10,-12
1570181551360431,0,-2,-1,1,-1,0,-5,3
1570181551360431,-2,-3,-1,-1,-1,-1,1,-13
1570181551361511,-4,-3,-3,-3,-1,-1,3,-3
1570181551361511,0,-1,1,1,0,0,-3,7
1570181551382544,3,1,1,-1,-3,-1,-9,-5
1570181551382544,3,2,-1,-1,0,-1,0,11
1570181551384488,-1,-1,-1,0,0,0,0,-5
1570181551384488,2,-1,-1,0,-2,-2,-1,13
1570181551397563,2,-2,0,0,0,0,0,4
1570181551397563,-1,-3,-1,0,-3,-1,-2,-2
1570181551404245,1,0,-2,1,0,0,-1,3
1570181551404245,1,-1,0,1,1,0,-3,2
1570181551420384,0,-1,-1,-1,1,0,1,3
1570181551420384,0,0,-2,-1,-1,1,1,1
1570181551421381,1,0,0,-1,0,-1,0,2
1570181551421381,-6,-2,-1,-1,-2,0,8,-14
1570181551443176,5,3,1,2,3,-1,-3,29
1570181551443176,0,-2,-3,-2,-1,-2,-5,-4
1570181551444175,-1,-2,-1,2,-1,-1,-1,0
1570181551444175,1,-1,-1,-2,1,-1,-1,4
1570181551457197,-2,-2,-1,-4,-3,-1,-1,-5
1570181551457197,1,0,0,-1,-1,0,1,-2
1570181551463770,0,-2,1,-1,-1,0,0,-4
1570181551463770,3,0,-1,0,0,-1,-4,10
1570181551479876,0,1,1,2,0,-1,-4,-2
1570181551479876,0,0,-1,1,0,-3,-1,6
1570181551481828,0,0,0,-2,-1,-1,0,-3
1570181551481828,1,0,0,2,-1,-2,-4,2
1570181551503154,-1,-1,-2,-2,0,-1,2,0
1570181551503154,0,-2,0,-1,-2,0,2,-1
1570181551504151,-2,-1,1,1,-1,-2,1,-10
1570181551504151,5,2,1,1,0,-3,-9,21
1570181551517474,-3,0,0,-1,0,1,1,-6
1570181551517474,-2,-2,1,0,0,2,2,-2
1570181551524095,-3,0,-1,-1,-1,-1,1,-5
1570181551524095,0,0,-1,-1,-1,0,0,0
1570181551541043,-2,-1,-1,0,-2,0,0,-3
1570181551541043,1,0,-1,-2,-1,0,-1,7
1570181551542098,0,-2,-2,-2,1,-2,-1,2
1570181551542098,-2,0,-1,-2,0,0,5,-6
1570181551563065,7,1,1,1,0,-1,-4,13
1570181551563065,-4,0,0,-2,-2,1,0,-6
1570181551565063,3,-1,-1,0,-1,-1,1,4
1570181551565063,-1,-2,0,-2,0,1,-1,-5
1570181551577246,-5,-1,0,-1,-2,-1,1,-11
1570181551577246,1,-1,-1,-1,0,-2,-1,5
1570181551584304,1,0,1,-1,1,-1,-3,5
1570181551584304,0,1,1,-1,-1,-1,-1,5
1570181551600454,-1,-2,-1,-1,1,-2,-1,-6
1570181551600454,-1,-1,0,-1,-1,-2,-2,-3
1570181551601407,-2,-1,1,0,-2,-1,-2,-1
1570181551601407,-2,-1,-3,1,0,-2,-3,-31
1570181551622676,0,-1,-3,-2,-1,-2,-13,10
1570181551622676,-3,-1,-1,-1,-1,3,4,-5
1570181551624317,4,1,2,2,0,-2,0,1
1570181551624317,2,1,-1,-1,-2,0,-1,-12
1570181551637273,-17,-1,-1,-5,-4,1,17,-12
1570181551637273,3,-3,-6,-2,-2,-5,-5,13
1570181551643337,8,18,5,2,4,3,7,4
1570181551643337,35,35,4,2,3,4,-16,63
1570181551660873,-16,-41,21,14,8,4,3,-11
1570181551660873,-17,-11,-24,-14,-8,-3,-4,-4
1570181551661524,-12,12,23,6,1,0,-1,-12
1570181551661524,-8,-37,-10,6,4,1,6,4
1570181551682209,1,-17,-24,-13,-11,-2,2,7
1570181551682209,2,7,15,3,4,0,-6,-1
1570181551684202,-3,-8,-17,-1,2,-1,-5,-4
1570181551684202,0,21,13,8,2,-1,6,3
1570181551696171,6,16,10,3,1,-3,-4,-2
1570181551696171,20,-1,-3,-1,0,0,4,12
1570181551705145,-14,-2,-7,-10,-4,-2,-4,-12
1570181551705145,-5,3,2,-7,-2,0,1,1
1570181551720107,0,1,-1,-6,-4,-2,2,-1
1570181551720107,13,24,-2,3,2,-2,-2,-5
1570181551722101,9,-18,-15,-7,-6,-1,1,12
1570181551722101,-24,-37,-7,6,0,-1,-3,-17
1570181551742048,14,24,12,4,1,0,-2,3
1570181551742048,-2,-4,13,6,2,4,2,-4
1570181551744494,1,7,-12,2,18,9,-4,1
1570181551744494,-3,-29,-12,-6,14,9,6,-8
1570181551756016,-10,12,-1,-2,-12,-7,-8,-3
1570181551756016,-13,-13,-8,-9,-45,-27,-7,-5
1570181551765265,7,12,-7,-6,-18,-8,0,3
1570181551765265,-8,2,15,-6,2,-3,-2,-11
1570181551779946,-6,-7,-4,6,11,2,0,-10
1570181551779946,-4,7,13,7,15,9,-3,-11
1570181551781994,11,-21,-16,1,2,1,0,1
1570181551781994,6,2,2,-2,12,3,6,-6
1570181551803073,-10,9,-10,-8,-16,-6,-5,-8
1570181551803073,-14,-20,-14,-8,-5,-1,1,-68
1570181551803882,-7,10,8,2,1,1,1,-68
1570181551803882,3,0,7,5,12,8,0,-45
1570181551816849,4,-9,-13,1,13,3,-1,-16
1570181551816849,8,26,27,9,-16,-11,-1,24
1570181551824901,8,25,8,-1,-1,2,2,38
1570181551824901,-6,-24,-22,-10,-1,-5,-2,27
1570181551839785,28,5,17,4,-7,1,-1,34
1570181551839785,-26,-15,-19,-4,7,11,3,24
1570181551841779,-7,-21,12,6,13,3,7,23
1570181551841779,6,37,-1,-4,-25,-17,-14,18
1570181551862723,-2,-3,4,-8,-12,-3,0,13
1570181551862723,10,8,1,7,40,14,7,19
1570181551863724,-15,-26,4,-3,-43,-20,-11,2
1570181551863724,7,8,-15,-10,-20,-6,7,14
1570181551875688,1,-7,0,-2,2,0,1,5
1570181551875688,3,1,1,2,9,3,-2,1
1570181551885467,-7,2,-3,7,29,13,4,1
1570181551885467,24,5,14,4,-12,-3,-1,10
1570181551899624,-25,11,-14,-3,-5,-6,-4,-16
1570181551899624,-11,-16,-1,-2,11,4,-1,-18
1570181551906607,-1,-2,-4,0,5,0,-9,-14
1570181551906607,6,-1,7,-1,-7,-3,8,-2
1570181551922619,-8,1,3,3,12,2,2,-6
1570181551922619,1,-1,-10,-5,-13,-5,-4,6
1570181551924558,-5,2,4,-6,-11,-6,-1,9
1570181551924558,12,4,-1,-2,-3,2,-4,4
1570181551936526,-3,15,1,9,36,10,-2,0
1570181551936526,-4,-16,-5,4,-24,-14,6,6
1570181551945502,20,-4,-7,-14,-42,-17,-3,8
1570181551945502,11,7,3,4,-1,-3,1,18
1570181551959473,-25,-14,-9,-9,3,0,-3,-6
1570181551959473,-3,-4,-9,-2,22,11,-6,-10
1570181551966521,2,9,11,13,24,9,9,11
1570181551966521,-18,-3,-3,-5,-22,-5,-8,-22
1570181551982476,27,10,0,6,21,13,10,9
1570181551982476,0,28,5,-6,-29,-15,-10,-9
1570181551984398,-13,-27,8,0,27,18,5,3
1570181551984398,-10,13,1,4,-12,-14,-6,-10
1570181552005344,4,-10,14,4,-17,-13,2,16
1570181552005344,-7,-9,-7,0,24,9,4,-4
1570181552006341,23,49,4,4,36,11,4,1
1570181552006341,-3,-54,-14,-6,-26,-4,2,14
1570181552019306,2,-6,-7,-7,-27,-5,-1,-9
1570181552019306,11,-1,3,-2,1,1,5,16
1570181552026288,-7,8,3,2,3,3,0,16
1570181552026288,-5,7,2,6,29,11,2,-11
1570181552042246,18,-2,-17,-7,15,11,9,31
1570181552042246,-32,-17,-2,-6,-43,-18,-18,-40
1570181552044239,20,4,3,1,-14,-10,-1,16
1570181552044239,-4,13,28,9,-5,-5,-1,-1
1570181552056214,-14,-25,-9,3,-1,0,-4,-13
1570181552056214,10,10,7,13,41,19,9,16
1570181552065191,0,-13,-17,-13,-28,-8,-4,-14
1570181552065191,-4,17,-26,-21,-23,-5,-6,-19
1570181552079146,19,12,21,7,6,0,2,2
1570181552079146,-3,-28,0,1,11,5,9,22
1570181552088123,-2,-10,-11,-2,7,-4,-12,-32
1570181552088123,-6,26,22,12,15,3,-1,-3
1570181552102089,26,4,-12,-7,-8,1,7,16
1570181552102089,-24,16,4,-2,-3,-7,-8,-16
1570181552104081,-13,-23,10,3,-4,-6,-2,-1
1570181552104081,7,-4,-10,7,38,18,1,2
1570181552125369,-5,8,0,-7,-24,-10,-5,-14
1570181552125369,19,13,7,-1,-14,-7,-1,1
1570181552127056,-1,-1,-9,-5,-12,2,4,6
1570181552127056,5,5,3,3,11,2,3,3
1570181552138997,-15,2,3,8,7,-3,-6,-12
1570181552138997,8,0,-14,-6,2,2,1,5
1570181552145970,-17,-8,-10,-7,-16,-4,-3,-8
1570181552145970,-9,-48,-2,2,11,5,17,29
1570181552162921,4,0,-2,1,0,-2,-13,-25
1570181552162921,20,5,-2,-6,-20,-5,5,12
1570181552163929,21,33,6,2,7,0,1,10
1570181552163929,-28,-29,-16,-7,-11,-6,-3,-12
1570181552184868,2,4,8,11,44,11,0,-2
1570181552184868,18,2,4,5,-22,-2,3,10
1570181552186861,-22,2,-3,-6,-13,-5,-2,-15
1570181552186861,-15,-9,-7,-11,-2,-3,-13,-21
1570181552199830,-1,-8,-7,-7,4,3,2,4
1570181552199830,2,-2,9,6,16,6,1,-7
1570181552205807,4,0,0,2,0,-3,-1,4
1570181552205807,-3,5,-1,-1,2,0,-5,-5
1570181552222966,-6,4,-3,2,8,-1,1,-5
1570181552222966,10,9,9,-3,-34,-9,2,8
1570181552223760,10,-6,0,4,4,2,10,25
1570181552223760,1,6,-2,1,3,0,-13,-26
1570181552244866,-2,-4,-4,-7,-10,-5,8,31
1570181552244866,-4,-6,-11,-5,-4,-2,-18,-35
1570181552246701,-16,-6,-1,0,2,1,1,-7
1570181552246701,24,25,15,8,1,-2,6,24
1570181552258666,-17,-14,-1,-6,-19,-7,-5,-13
1570181552258666,-16,-10,-6,-5,31,7,3,1
1570181552267641,7,-4,0,-2,-11,-1,-1,-4
1570181552267641,6,13,-6,-2,-1,2,3,1
1570181552282601,0,3,2,3,-1,1,-3,-4
1570181552282601,-8,-5,1,3,1,-4,-4,-1
1570181552284598,3,5,6,5,10,0,-8,-8
1570181552284598,-1,-3,-6,-5,-10,-3,3,4
1570181552305541,-3,-3,-8,-8,-6,1,0,-5
1570181552305541,15,5,8,8,-7,-5,2,17
1570181552306539,4,-1,2,-1,5,0,2,7
1570181552306539,-10,-3,4,0,-4,-4,-5,-5
1570181552318506,-2,2,1,4,-1,-1,-1,2
1570181552318506,16,13,-18,-13,5,8,3,16
1570181552328057,-27,-35,-7,2,9,-6,-12,-24
1570181552328057,9,4,-1,3,-6,-1,-2,2
1570181552342731,-18,-6,-13,-2,-2,-7,-8,-21
1570181552342731,-2,10,10,-3,-4,3,4,2
1570181552344437,-14,-21,-9,-8,-12,-4,-4,-18
1570181552344437,33,15,-2,-10,-5,1,10,25
1570181552364386,1,15,8,-3,-2,0,3,-8
1570181552364386,-21,-14,21,15,12,-1,-3,-13
1570181552372361,7,2,3,10,1,4,9,22
1570181552372361,-2,-15,-5,-7,-1,-2,-10,-35
1570181552378560,29,11,-3,5,-5,2,7,31
1570181552378560,-15,0,-5,-2,-3,-8,-12,-32
1570181552387321,-38,-4,15,12,-1,-5,-10,-29
1570181552387321,-7,11,11,11,7,1,5,5
1570181552402382,6,-2,-8,-16,-11,-2,-4,-7
1570181552402382,8,-10,-8,6,8,3,3,17
1570181552404278,37,17,-15,-20,6,10,13,22
1570181552404278,-13,17,-8,2,3,6,-8,-10
1570181552425218,-4,-14,33,17,0,3,5,-7
1570181552425218,-14,22,18,21,0,-2,1,4
1570181552426218,4,-28,-31,-38,-22,-6,-4,-9
1570181552426218,-110,-28,6,14,2,-12,-17,-54
1570181552439184,41,-7,-19,-35,-18,-3,-15,13
1570181552439184,21,10,5,11,11,0,3,7
1570181552448163,11,14,-4,6,18,3,3,5
1570181552448163,40,0,-1,-5,-13,-2,5,19
1570181552462124,-22,2,1,4,3,0,1,-11
1570181552462124,2,-20,-29,-33,-7,3,3,-1
1570181552464123,3,29,10,10,-9,-5,-3,1
1570181552464123,12,-13,13,14,11,3,6,17
1570181552485176,-14,-18,-26,-4,4,0,-1,-12
1570181552485176,-7,-11,20,7,12,1,-4,-1
1570181552487106,3,4,-6,-5,-5,3,4,1
1570181552487106,0,12,-11,-13,-4,-2,-1,-2
1570181552499063,51,7,12,15,4,-1,7,24
1570181552499063,-33,-27,-23,-10,-6,-6,-8,-15
1570181552508000,-21,-8,-1,-4,-4,-3,-6,-7
1570181552508000,14,5,2,-2,-6,-2,5,17
1570181552522960,12,6,-5,-3,5,4,4,9
1570181552522960,13,8,3,1,8,3,3,15
1570181552523957,17,7,7,8,-9,-5,-2,9
1570181552523957,-4,-7,-4,-2,21,10,7,19
1570181552544899,-17,-7,10,9,-29,-13,-7,-22
1570181552544899,12,17,1,-6,-5,-2,2,12
1570181552546896,-35,-23,-10,-4,-22,-14,-17,-37
1570181552546896,61,15,-2,5,13,2,-6,-22
1570181552558865,-26,-7,-8,-12,-9,-1,8,23
1570181552558865,18,-8,-8,0,-5,-6,-22,-60
1570181552567842,1,9,8,-1,2,1,2,8
1570181552567842,18,-1,-2,-8,1,5,22,62
1570181552582800,-17,-5,-1,4,-8,-10,-24,-69
1570181552582800,-7,-2,-5,-5,-5,-1,8,20
1570181552583797,23,9,14,10,13,4,7,20
1570181552583797,-21,-3,-4,-1,14,0,-12,-30
1570181552604744,24,18,9,6,-7,0,8,32
1570181552604744,-67,-24,-12,-17,-28,-11,-8,-18
1570181552606977,-13,-11,-4,-5,-4,-4,-3,-16
1570181552606977,-20,-10,4,3,-12,-7,-13,-29
1570181552618702,-16,-6,-4,-3,28,9,-3,-7
1570181552618702,36,9,-1,2,6,7,12,31
1570181552627728,7,2,1,4,0,3,21,67
1570181552627728,-22,0,10,3,0,0,-4,-25
1570181552649619,16,7,-1,4,3,-1,2,11
1570181552649619,-3,4,-2,-2,9,3,-1,-7
1570181552651617,-6,-1,8,2,13,7,9,17
1570181552651617,9,-4,-5,-3,-16,-3,-4,-8
1570181552665578,25,10,8,7,1,-1,-2,-1
1570181552665578,-74,-18,-11,-9,-8,-1,-2,-15
1570181552666742,5,-6,-7,-1,10,-2,-12,-30
1570181552666742,1,-1,-4,-3,-3,-1,5,19
1570181552678543,-2,2,4,-2,-5,-1,2,9
1570181552678543,25,1,-1,2,2,3,2,7
1570181552687519,7,5,3,8,22,4,-3,-10
1570181552687519,-15,-8,-7,-9,-18,-4,-2,-12
1570181552702671,-15,-2,3,3,5,2,4,12
1570181552702671,26,16,6,1,-6,-1,0,5
1570181552704477,4,-11,6,11,22,-10,-5,-7
1570181552704477,14,2,-5,-10,-17,-2,2,9
1570181552725417,-13,-2,-5,-7,-12,8,1,-10
1570181552725417,5,-1,0,2,-4,1,1,4
1570181552726730,25,1,-7,-3,0,3,1,7
1570181552726730,-13,3,8,6,18,1,5,17
1570181552738449,-10,-4,-2,-7,-10,-10,-9,-27
1570181552738449,8,0,-2,0,0,1,-1,-2
1570181552748358,-7,2,-4,-5,-18,-2,3,1
1570181552748358,25,1,-4,2,11,1,4,16
1570181552762321,-21,-4,-1,4,2,-4,-5,-13
1570181552762321,18,4,7,8,17,2,4,9
1570181552764415,4,10,6,-3,-20,-5,-7,-10
1570181552764415,13,2,1,-1,-6,0,5,7
1570181552785625,31,11,5,3,6,3,9,25
1570181552785625,-26,-16,-11,-5,-2,-7,-9,-32
1570181552787256,-8,-6,-9,-3,-2,2,-1,-11
1570181552787256,2,10,22,10,1,3,-1,2
1570181552799220,-9,-3,2,2,4,-4,-2,0
1570181552799220,11,0,-1,5,7,0,1,8
1570181552807208,-2,2,2,0,11,8,7,-7
1570181552807208,-2,-4,-9,-8,-22,-3,-12,-3
1570181552822207,0,-2,-3,-4,10,2,1,11
1570181552822207,2,1,0,-1,-3,4,7,11
1570181552824159,-23,-9,-8,-10,-5,-1,-8,-32
1570181552824159,1,2,-3,-2,0,-5,-2,-4
1570181552845100,-3,-4,-6,1,13,3,5,13
1570181552845100,4,0,1,0,-9,-4,-2,-2
1570181552847092,11,10,14,8,-6,-1,-1,1
1570181552847092,-8,-8,-8,1,12,5,2,-4
1570181552859168,-9,-6,-15,-13,-11,-2,7,-24
1570181552859168,-30,-11,-7,-6,-8,-12,-20,-4
1570181552868039,6,12,23,11,6,3,3,34
1570181552868039,8,2,1,3,11,3,4,13
1570181552882002,-23,1,-2,-4,-10,0,-2,-23
1570181552882002,24,-9,-13,-7,-1,3,10,17
1570181552888981,-10,-1,6,3,6,-3,-4,-6
1570181552888981,-3,3,-4,6,6,-4,1,1
1570181552905495,15,-3,-3,2,-8,1,2,28
1570181552905495,9,7,6,4,1,-3,-2,-9
1570181552906932,-11,-6,-12,-12,-15,2,-6,0
1570181552906932,0,-5,-7,-10,-7,-5,1,-9
1570181552918901,-3,3,7,7,6,-1,-2,5
1570181552918901,4,-5,0,-1,2,3,-2,18
1570181552927878,13,0,-3,0,5,1,4,3
1570181552927878,-12,-3,-7,-4,-9,-5,-3,-4
1570181552941839,-3,-7,-2,-1,-8,-6,-7,4
1570181552941839,-4,8,7,-1,1,-1,-2,-25
1570181552949165,25,0,-11,1,8,4,5,5
1570181552949165,-22,-5,-6,-32,-14,3,-5,-13
1570181552964789,1,14,34,50,19,2,-4,2
1570181552964789,0,4,17,10,2,1,4,2
1570181552966960,3,-5,-8,1,-3,-6,-2,-10
1570181552966960,16,5,-10,-22,-6,4,0,-10
1570181552978745,-3,15,8,14,16,3,6,7
1570181552978745,-9,-39,-30,-16,1,1,-2,-12
1570181552987716,23,17,16,4,-21,-3,2,16
1570181552987716,-19,-7,3,6,-3,-5,-4,-12
1570181553001679,-3,-3,-13,-15,0,0,-2,2
1570181553001679,-14,7,4,8,-2,-2,-2,-5
1570181553008665,7,3,-9,-12,1,3,0,-2
1570181553008665,-1,-9,4,9,-7,-5,0,6
1570181553024735,-8,-7,-8,-18,-16,-4,-6,-10
1570181553024735,17,10,4,1,23,11,10,23
1570181553026612,-38,-15,-5,-5,-17,-12,-14,-58
1570181553026612,10,9,-2,7,2,2,5,27
1570181553047906,5,-18,-6,-5,7,-2,-11,-43
1570181553047906,-9,0,3,4,6,6,5,0
1570181553049612,-12,0,-12,-15,-17,-3,20,68
1570181553049612,2,5,7,8,-2,-12,-33,-92
1570181553061522,7,-12,-9,-11,-3,2,1,0
1570181553061522,30,20,12,9,5,8,15,39
1570181553068627,-12,-18,-12,-1,6,-4,-25,-64
1570181553068627,-18,-6,-1,0,2,2,10,29
1570181553085548,-3,-4,-12,-14,-12,-5,5,24
1570181553085548,15,20,17,1,-5,1,5,24
1570181553086452,4,-7,-6,4,6,-2,-19,-50
1570181553086452,-4,-3,-1,6,11,-1,-1,14
1570181553107397,-14,-1,-2,-7,-12,-2,-3,-10
1570181553107397,10,0,-8,-8,-3,0,14,58
1570181553109547,-2,2,2,0,5,-1,9,11
1570181553109547,8,-7,-2,4,-10,-8,-6,-15
1570181553122356,4,4,2,-4,-3,5,6,6
1570181553122356,-3,1,-2,0,-5,-5,-12,-34
1570181553128344,15,3,3,1,6,9,18,46
1570181553128344,-41,-8,-4,4,14,-2,-13,-28
1570181553145348,-2,-2,-3,-5,-10,5,11,30
1570181553145348,9,1,-3,-4,-6,-5,-5,-9
1570181553146294,-5,-1,4,5,9,4,-2,10
1570181553146294,10,4,-10,-10,-8,4,27,79
1570181553167243,22,9,17,14,14,-7,-43,-107
1570181553167243,-9,-7,-7,-3,-8,-2,-5,-14
1570181553169233,3,7,6,0,-16,-7,1,-2
1570181553169233,2,-1,4,2,-1,0,-8,-21
1570181553181340,-2,-3,-8,-7,2,-1,10,32
1570181553181340,10,0,0,1,-1,1,-7,-18
1570181553190331,-47,-14,-9,-5,1,-2,2,8
1570181553190331,8,1,2,1,2,8,-5,-30
1570181553205141,-1,-1,-5,-4,-8,-6,1,1
1570181553205141,-2,1,1,-2,-4,-5,0,1
1570181553207131,20,8,6,8,18,8,-1,-12
1570181553207131,1,-2,0,-3,-8,-3,0,0
1570181553228075,-17,-5,0,-1,-2,2,3,8
1570181553228075,-5,-12,-16,-10,5,-2,13,39
1570181553230069,-2,4,11,3,-2,-3,-19,-43
1570181553230069,6,3,-1,0,-6,-8,2,0
1570181553241045,23,9,6,4,0,2,-2,-1
1570181553241045,-33,-6,-5,-4,-1,2,0,3
1570181553250016,-4,-7,-5,0,2,1,1,7
1570181553250016,8,5,6,5,10,4,5,7
1570181553264976,-19,-7,-9,-7,-7,-3,10,34
1570181553264976,15,12,10,6,3,-2,-15,-38
1570181553266969,23,10,7,5,4,1,3,9
1570181553266969,-46,-15,-10,-11,-17,-6,-11,-24
1570181553287917,20,-4,-4,-1,4,-2,8,16
1570181553287917,-30,-8,-2,2,2,-7,-16,-37
1570181553288911,2,0,3,0,-5,-3,-2,-7
1570181553288911,16,2,0,0,7,6,9,30
1570181553301026,-4,2,-1,-7,-12,-1,0,4
1570181553301026,2,1,0,2,4,-2,-1,-9
1570181553309858,-2,-5,-8,-5,-6,-1,3,3
1570181553309858,13,5,4,4,-1,-2,4,9
1570181553324821,-12,-4,-6,-1,12,5,1,-12
1570181553324821,2,3,10,4,-18,-6,-4,-11
1570181553326997,0,-2,-1,-4,1,-1,4,9
1570181553326997,10,3,3,3,4,0,2,6
1570181553347760,-6,-2,-4,1,1,-5,-10,-24
1570181553347760,11,5,3,1,2,4,2,1
1570181553349082,4,1,3,7,11,2,4,9
1570181553349082,-6,-2,-1,-2,-14,-2,0,-10
1570181553360720,12,-1,-5,-3,-1,5,5,58
1570181553360720,-25,-12,-11,-7,-4,-3,-8,-22
1570181553370753,-12,-7,-12,-4,0,0,1,-40
1570181553370753,1,7,12,4,13,1,-1,19
1570181553385676,-6,0,-1,3,-14,-4,2,3
1570181553385676,20,4,4,-3,-11,-6,2,28
1570181553386655,10,2,2,-1,7,2,1,17
1570181553386655,-2,-6,-5,-1,11,4,5,9
1570181553407666,-15,-3,0,-4,-32,-9,-4,-1
1570181553407666,-3,-4,0,-4,-1,5,6,29
1570181553409688,-9,-3,-5,1,-2,-5,-9,-10
1570181553409688,14,2,-4,5,7,-4,-4,22
1570181553421557,-6,2,3,-2,12,5,5,2
1570181553421557,13,-2,-5,0,-2,0,7,14
1570181553430534,-22,-3,7,1,-5,-2,-9,13
1570181553430534,15,-10,-43,-25,1,6,6,25
1570181553445492,-29,16,62,40,22,-1,-10,26
1570181553445492,1,-7,-14,-8,-3,2,4,22
1570181553447012,-3,2,5,4,13,3,2,40
1570181553447012,-2,-5,-8,-2,-15,-2,-2,11
1570181553467980,22,2,-14,-17,-12,-6,3,11
1570181553467980,-3,10,14,14,7,-6,-7,-20
1570181553469428,1,-10,-17,-24,-5,9,8,-16
1570181553469428,14,13,17,21,11,-5,-3,-27
1570181553481396,-10,-9,-11,-6,-14,-6,-3,-44
1570181553481396,6,-5,-11,-13,3,2,-1,-34
1570181553490373,-6,19,19,6,-8,-1,-1,-15
1570181553490373,9,-1,-10,4,1,1,1,-10
1570181553505432,0,-4,10,-3,13,1,-3,-17
1570181553505432,-1,3,8,14,10,5,2,-6
1570181553506329,-5,1,0,-2,-5,-1,0,-7
1570181553506329,-3,-5,-10,-29,-16,-5,-4,-10
1570181553527273,6,3,-1,13,6,-2,-1,-8
1570181553527273,1,-1,-9,-9,-13,-8,-7,-9
1570181553529267,-6,-9,10,5,3,-1,-3,1
1570181553529267,-9,-4,1,-1,-7,-1,-1,-7
1570181553541235,-5,-5,-8,-5,-1,-4,-1,-11
1570181553541235,3,7,-1,-6,-4,0,3,-7
1570181553550215,-18,-14,-3,6,-5,-4,-2,-5
1570181553550215,-23,-2,9,2,15,4,-5,-13
1570181553565172,22,0,-13,-11,-14,-1,0,11
1570181553565172,-9,1,5,4,-9,-4,3,2
1570181553566363,16,5,-5,-2,-2,-3,-2,3
1570181553566363,-6,-6,3,2,8,5,2,1
1570181553587160,13,5,0,4,7,0,2,10
1570181553587160,-20,-5,3,1,-3,-6,-12,-18
1570181553589108,8,-5,-13,-8,-15,-4,6,26
1570181553589108,7,0,10,7,4,-1,-9,-29
1570181553601077,-2,7,-2,3,24,10,5,2
1570181553601077,5,-3,-3,-14,-20,3,31,100
1570181553610157,21,11,9,10,6,-6,-33,-68
1570181553610157,-4,-1,1,2,0,4,12,40
1570181553625106,4,-3,-6,-6,0,-1,0,-4
1570181553625106,3,-5,-2,3,4,-1,-2,-15
1570181553627008,4,-1,-3,-1,-5,0,10,9
1570181553627008,28,17,14,9,3,5,11,33
1570181553647953,-45,-17,-14,-13,-8,-6,-16,-32
1570181553647953,2,-1,-4,1,6,4,1,4
1570181553648990,-8,1,-1,2,6,1,7,15
1570181553648990,-6,6,7,-1,-9,-2,2,19
1570181553660918,3,-2,-3,1,-3,0,-3,-19
1570181553660918,3,-2,-4,4,7,-1,-10,-37
1570181553669894,11,2,-5,-9,-5,3,17,48
1570181553669894,-15,-11,-2,-1,5,-5,-29,-71
1570181553684855,-3,-3,0,1,-4,-2,4,6
1570181553684855,4,0,-2,1,2,3,3,5
1570181553686847,4,0,-3,-2,-1,0,1,2
1570181553686847,-3,1,-1,-1,-6,-6,6,17
1570181553707927,10,3,0,0,1,3,6,13
1570181553707927,-13,-4,-1,3,8,0,-16,-44
1570181553709785,-6,-4,-1,-2,-9,-1,4,11
1570181553709785,5,0,-2,2,3,1,3,6
1570181553721757,6,1,-5,-1,2,0,3,6
1570181553721757,5,5,7,7,6,1,-1,-5
1570181553730132,-7,-5,-7,-5,2,1,7,24
1570181553730132,6,1,2,0,-6,-5,-20,-64
1570181553744698,8,0,-3,-4,-2,1,1,3
1570181553744698,-2,-1,-2,-2,-3,-3,-2,10
1570181553746688,4,2,0,-3,-3,0,3,11
1570181553746688,3,5,7,6,0,-3,-15,-43
1570181553767636,-4,-1,-4,-2,-2,2,3,23
1570181553767636,1,-4,-4,0,12,2,-3,-10
1570181553769625,11,2,1,1,-12,-4,-2,-7
1570181553769625,-19,-10,-10,-11,-12,-4,10,46
1570181553781639,9,2,7,10,17,2,-1,-4
1570181553781639,8,4,0,-4,-11,-5,-3,-3
1570181553790772,-6,-2,-1,-3,-1,-1,-4,-11
1570181553790772,-10,-3,-1,0,-4,-2,2,10
1570181553804540,0,-4,-3,-2,-4,-2,-3,-2
1570181553804540,2,-1,-1,-2,7,2,4,4
1570181553811513,1,-1,-1,1,4,0,2,-1
1570181553811513,-8,-4,-5,-4,-3,1,5,7
1570181553827475,-1,-2,1,-2,1,-1,-4,-3
1570181553827475,1,1,4,7,0,-1,4,3
1570181553829565,-14,-1,-1,-3,-7,-2,-13,-12
1570181553829565,-1,-1,7,1,6,0,6,16
1570181553841438,3,0,0,-2,0,2,-3,3
1570181553841438,2,0,1,-2,-5,-3,-4,-1
1570181553850409,-7,-5,-5,-2,3,-1,2,-5
1570181553850409,15,3,-4,-1,0,2,6,17
1570181553865485,-26,-9,-8,-2,-7,-7,-5,-31
1570181553865485,-5,18,5,-1,-2,1,2,2
1570181553866375,7,-17,-2,1,3,-1,-2,19
1570181553866375,6,8,7,1,1,3,5,9
1570181553887310,-11,-2,1,-1,-4,-3,-3,-10
1570181553887310,-7,-5,-6,-4,-1,0,-2,-14
1570181553889393,-5,1,-3,3,15,-2,-4,-14
1570181553889393,-7,-5,-5,-5,-23,-3,15,-4
1570181553901281,11,3,2,0,-4,1,-5,3
1570181553901281,-2,-4,-3,-1,0,0,-2,4
1570181553910320,3,4,2,-1,-1,-1,1,-4
1570181553910320,-6,-5,-3,0,7,-1,-2,-1
1570181553925216,-1,3,1,2,0,-1,3,6
1570181553925216,-1,-4,-1,-2,-5,-1,2,-5
1570181553927206,-3,0,2,1,-2,0,-1,-15
1570181553927206,-2,-2,-5,0,4,-1,-6,-3
1570181553947308,9,3,1,-1,-1,2,4,7
1570181553947308,-3,-5,-3,-1,-1,-1,-6,2
1570181553949149,-3,0,-2,0,-3,-1,0,8
1570181553949149,-4,-7,-5,-3,-1,0,3,5
1570181553961115,-4,-2,1,-1,0,-1,6,-4
1570181553961115,4,-3,-3,-1,-2,-2,-5,5
1570181553970227,2,3,0,-1,0,1,-3,-7
1570181553970227,1,3,2,1,1,0,-9,-9
1570181553984133,-3,-3,-1,1,1,1,3,-1
1570181553984133,3,-2,-1,0,-1,-2,-2,-3
1570181553991329,-2,0,-1,0,-3,-1,2,-1
1570181553991329,0,1,-1,0,3,0,-4,0
1570181554007502,2,0,0,-1,1,0,0,3
1570181554007502,12,2,1,-1,-1,0,-1,2
1570181554009984,-28,-5,2,-1,0,0,-4,-3
1570181554009984,-3,-3,-1,-2,-2,-1,1,10
1570181554028933,2,-1,0,-1,1,-2,-4,12
1570181554028933,-7,0,1,0,-1,0,1,9
1570181554037909,17,3,-1,-2,-1,-2,1,14
1570181554037909,6,1,-1,0,1,2,-2,2
1570181554043897,-6,-3,-2,0,-1,-3,-2,-3
1570181554043897,3,0,0,-1,2,0,3,-3
1570181554050873,61,22,3,2,1,0,4,9
1570181554050873,-39,-8,1,2,2,2,-1,-7
1570181554067834,-54,-24,-7,-7,-5,-6,-10,-13
1570181554067834,7,0,0,0,-2,-2,0,11
1570181554068828,-15,-5,-4,-1,0,0,-3,8
1570181554068828,38,14,2,0,-1,-1,2,29
1570181554089777,16,6,2,2,1,2,4,28
1570181554089777,-15,-6,-1,-2,-2,-1,0,26
1570181554091857,37,11,1,-1,0,0,2,22
1570181554091857,-37,-16,-2,-2,-1,-2,-4,-5
1570181554104734,7,11,3,1,1,-2,-4,1
1570181554104734,-16,-8,1,0,-1,-1,-3,-1
1570181554111713,57,23,3,2,-1,3,1,3
1570181554111713,-67,-33,-6,-2,-1,-1,-3,-21
1570181554127713,6,3,-1,-1,0,1,0,-15
1570181554127713,22,8,-2,-3,-2,0,0,-16
1570181554128934,-59,-28,0,2,0,-4,-5,-14
1570181554128934,67,28,-1,-3,-3,-3,-3,-2
1570181554149609,-5,-6,-1,-1,-1,-1,0,-12
1570181554149609,21,4,1,0,0,2,2,-19
1570181554151605,-28,-9,-4,-3,-2,-1,0,-36
1570181554151605,3,0,-3,-1,-1,0,-1,-26
1570181554163584,21,7,2,1,1,0,-7,-12
1570181554163584,-8,-2,-1,-1,1,0,1,-21
1570181554173035,-15,-3,4,4,0,-2,-1,-28
1570181554173035,10,3,3,3,1,2,0,2
1570181554187509,15,8,-3,-2,-2,-1,4,-11
1570181554187509,-18,-11,-2,-1,0,-1,1,-6
1570181554189502,21,0,-7,-7,-2,-1,-3,-10
1570181554189502,26,11,-1,-1,0,2,3,-4
1570181554210452,7,7,2,2,-1,-1,-2,-10
1570181554210452,-73,-22,-3,0,-2,-2,-4,-7
1570181554211446,8,5,-1,-1,-1,-3,-1,-7
1570181554211446,5,3,0,0,2,0,0,10
1570181554223412,23,2,-2,0,-1,2,2,5
1570181554223412,4,1,-2,-3,-2,4,9,-10
1570181554232389,-13,-4,-2,-1,-3,-2,-7,5
1570181554232389,-10,4,7,4,2,-2,-2,-7
1570181554247429,23,7,0,-2,0,0,3,23
1570181554247429,-4,-2,-3,-7,-2,-5,-2,-10
1570181554249343,-59,-22,2,5,2,0,-2,-34
1570181554249343,64,30,7,5,5,3,4,-1
1570181554270329,-82,-51,-14,-8,-1,-4,-8,-30
1570181554270329,36,3,3,8,3,2,-1,20
1570181554271494,16,18,9,0,2,4,5,35
1570181554271494,-25,-26,-10,-7,-5,-6,-13,-14
1570181554284250,69,41,18,12,7,8,13,33
1570181554284250,-11,-14,-13,-6,-4,-5,-9,-12
1570181554294036,-12,-8,-12,-10,-7,-1,1,25
1570181554294036,-13,1,-1,-1,-5,-2,0,-2
1570181554315219,7,10,0,-1,-3,-1,2,15
1570181554315219,3,11,8,3,1,0,4,11
1570181554317161,6,1,1,-1,-5,-5,-5,-8
1570181554317161,49,28,8,0,1,4,5,11
1570181554329129,-51,-40,-21,-19,-15,-12,-28,-21
1570181554329129,36,23,12,14,11,8,6,35
1570181554338107,-11,-14,-13,-7,-7,-6,3,2
1570181554338107,-16,-4,-5,-1,4,1,-1,13
1570181554344089,-30,-16,0,-3,-2,-2,-4,-28
1570181554344089,36,17,4,0,0,0,1,19
1570181554353066,4,17,6,1,2,0,-7,-23
1570181554353066,16,9,-2,0,4,18,14,28
1570181554368165,-50,-25,-1,1,-2,-1,1,3
1570181554368165,18,4,-7,-11,-14,-22,-10,-24
1570181554369252,5,5,9,8,9,-1,-5,9
1570181554369252,-29,-19,-8,-8,-11,-14,7,-72
1570181554390096,-14,-2,-3,2,7,10,13,8
1570181554390096,-15,-4,-3,-3,0,3,-7,-34
1570181554391968,10,4,1,3,0,2,1,17
1570181554391968,-37,-21,0,5,3,-4,-27,20
1570181554403929,28,17,3,-3,-1,4,3,0
1570181554403929,-10,-7,-2,2,5,-3,1,4
1570181554412907,24,2,-1,-1,-1,2,7,11
1570181554412907,-21,-11,-5,-4,0,-1,-4,-32
1570181554427865,28,16,5,7,1,-2,2,57
1570181554427865,-18,-6,-2,-4,-6,1,-4,6
1570181554429861,6,-6,-2,0,-1,-1,-12,-14
1570181554429861,0,-4,1,1,4,-9,-3,1
1570181554450059,-1,1,-1,0,0,0,-1,-16
1570181554450059,9,3,0,0,5,8,8,4
1570181554451806,-8,-6,-1,-1,-8,-1,0,-12
1570181554451806,-6,-2,-1,0,0,-7,-2,-23
1570181554463778,17,10,0,-1,-1,-5,4,-38
1570181554463778,-2,-6,-3,-2,-3,-2,-18,3
1570181554472746,-23,-7,-7,-6,-4,0,-1,-32
1570181554472746,-2,1,1,0,-5,-3,-5,20
1570181554487713,3,4,0,-1,-2,0,0,-14
1570181554487713,-9,2,1,0,-2,-1,2,25
1570181554488702,-6,-4,-2,0,-1,-4,-1,38
1570181554488702,11,2,1,1,3,3,3,62
1570181554509647,-4,-2,-2,-3,-2,-3,-5,40
1570181554509647,-3,-7,-1,-1,-1,1,5,42
1570181554511641,4,-1,1,0,4,3,3,43
1570181554511641,-4,-4,-3,-3,-4,-1,8,-4
1570181554523614,3,-1,0,-1,0,3,6,-27
1570181554523614,-2,0,0,0,-1,1,-1,-39
1570181554532587,1,-2,2,0,0,1,5,-40
1570181554532587,2,-1,-1,-2,-4,-2,-18,-18
1570181554547719,-5,1,3,-1,-2,-3,-3,-48
1570181554547719,14,3,0,4,4,5,10,45
1570181554549600,-4,-2,-2,-2,-1,-1,2,-52
1570181554549600,3,-1,-3,-2,-4,0,3,-32
1570181554570488,5,4,0,1,3,-3,-4,-24
1570181554570488,-1,-1,-2,-3,-3,-3,-1,-30
1570181554571485,0,0,-1,-1,1,1,3,7
1570181554571485,0,-1,-1,-1,0,1,2,12
1570181554583674,4,-1,-1,0,1,0,1,19
1570181554583674,-7,-1,0,-3,0,-1,-1,-5
1570181554592428,-1,-2,-1,1,1,-1,0,16
1570181554592428,-1,0,-1,-1,-2,1,1,3
1570181554607390,3,-2,-1,-1,-2,-1,-3,21
1570181554607390,-4,-2,0,0,-2,-1,1,-4
1570181554609381,-6,-4,-3,-3,-1,3,17,-1
1570181554609381,1,1,0,1,2,-4,-9,7
1570181554630471,3,0,2,0,0,-2,-2,14
1570181554630471,-1,-1,-1,-1,0,-3,-5,13
1570181554632017,1,-1,-1,-3,2,-1,-2,10
1570181554632017,-3,-3,-1,0,-2,1,4,6
1570181554643294,0,0,-1,-1,-1,1,-1,11
1570181554643294,-4,-1,0,0,-1,0,1,-16
1570181554653032,-2,1,1,-1,-1,0,-3,3
1570181554653032,-3,-2,-2,-1,-1,1,6,3
1570181554667229,1,0,-2,0,0,-2,-4,-5
1570181554667229,-2,-2,-1,-1,-1,0,0,-7
1570181554669325,2,2,1,2,-1,0,-2,2
1570181554669325,1,1,1,1,0,0,-1,1
1570181554690169,1,1,0,0,0,-2,2,2
1570181554690169,-1,-1,-1,0,-1,-1,-2,-4
1570181554691161,2,-1,0,1,-1,0,-2,3
1570181554691161,-1,-2,-2,-1,-3,0,2,-6
1570181554704293,0,0,1,-1,-1,1,0,2
1570181554704293,-2,-1,0,-2,-1,1,1,-1
1570181554713102,0,-1,-1,-1,-1,-3,-5,-5
1570181554713102,-2,-3,-2,0,-1,-1,2,-2
1570181554728063,1,-1,-2,0,0,0,-1,1
1570181554728063,1,0,-1,1,-1,0,0,-1
1570181554729206,0,0,-1,-1,-1,0,-2,0
1570181554729206,-1,0,-1,-2,-1,0,1,0
1570181554750007,-1,-1,1,0,-1,0,1,1
1570181554750007,-3,-1,-1,-2,0,-1,2,-15
1570181554752115,-4,-1,0,0,0,2,10,-8
1570181554752115,0,0,0,0,-1,-2,-3,-2
1570181554763972,-1,-2,-1,0,-1,-1,-1,-6
1570181554763972,0,0,-2,-3,-2,-1,1,1
1570181554772943,-3,-1,-3,-2,-2,1,3,-5
1570181554772943,7,1,1,0,1,2,-1,17
1570181554787909,-1,1,-2,0,0,0,1,1
1570181554787909,1,-1,0,0,-1,-2,-2,-2
1570181554788899,1,-1,-1,0,-2,-1,-2,4
1570181554788899,-3,-2,-2,-2,0,-2,1,0
1570181554809857,-3,1,0,0,0,0,0,-1
1570181554809857,1,-1,0,-1,0,0,-1,5
1570181554811843,0,-1,-2,-1,0,-3,-6,2
1570181554811843,-4,-3,-1,-2,-1,0,0,-17
1570181554823815,1,1,1,-3,-1,-2,2,3
1570181554823815,-3,-2,0,0,2,-1,-2,-4
1570181554832785,0,0,0,2,1,-2,-5,3
1570181554832785,-2,-2,-3,-1,-1,1,0,-3
1570181554847842,0,1,-1,-1,0,-2,1,1
1570181554847842,1,0,-1,-1,-1,1,-1,1
1570181554849737,0,0,0,-1,-1,1,-2,1
1570181554849737,-2,0,0,-1,1,0,0,3
1570181554870681,1,1,-2,-1,-1,0,-5,6
1570181554870681,-4,-1,-1,1,0,0,-3,1
1570181554871679,-2,-1,-2,0,0,-3,-6,-5
1570181554871679,0,0,-2,-3,-1,-2,-4,1
1570181554883650,-2,-3,-2,1,1,-1,0,0
1570181554883650,-2,-3,-2,-3,-4,-1,0,-1
1570181554892624,0,0,0,-1,-1,1,0,1
1570181554892624,-1,-1,0,-2,-1,0,4,-2
1570181554907807,0,-1,1,-2,-2,0,-1,-2
1570181554907807,-1,0,-2,-1,0,-1,0,1
1570181554909581,-2,-2,0,-1,1,0,-2,1
1570181554909581,0,1,0,0,0,0,-1,8
1570181554930569,-2,-2,-1,0,-1,1,-1,6
1570181554930569,2,0,-1,0,-1,0,0,3
1570181554931525,2,0,-1,0,-1,-1,1,-2
1570181554931525,-2,0,1,1,-1,0,-1,-9
1570181554952583,1,-2,-1,-1,-3,0,-2,-12
1570181554952583,0,1,-1,0,0,0,3,5
1570181554954459,-1,-1,0,-1,-1,-1,1,-4
1570181554954459,-2,-1,-1,0,0,-1,3,-7
1570181554967423,2,0,0,1,0,-1,-2,5
1570181554967423,-1,-3,0,-1,0,-1,-3,-11
1570181554969417,0,1,-2,-1,0,-1,-2,-1
1570181554969417,-1,0,-1,-1,-1,1,0,1
1570181554990365,-1,0,0,0,-1,-2,-1,-2
1570181554990365,0,-1,0,0,1,0,-2,0
1570181554991360,1,-1,-1,-2,-2,0,-1,4
1570181554991360,-2,0,-1,-1,0,0,0,-5
1570181555012460,4,1,0,-1,0,-2,-16,6
1570181555012460,-2,0,-1,0,-2,0,4,4
1570181555014599,-1,-1,0,0,-1,1,0,-6
1570181555014599,0,0,1,-1,0,-2,0,1
1570181555027264,-5,-2,-3,-4,-2,-3,-1,-27
1570181555027264,0,-1,-1,-2,-1,-1,3,3
1570181555029261,-2,0,0,0,-1,-3,-5,2
1570181555029261,-1,1,-2,-1,-2,-1,-3,2
1570181555050207,-5,-3,3,3,-1,2,3,-2
1570181555050207,0,0,0,-3,-1,0,-3,-3
1570181555051198,1,0,0,0,0,-1,2,-1
1570181555051198,1,1,0,1,0,-3,-4,-5
1570181555072143,1,1,-2,0,0,1,3,6
1570181555072143,-1,0,-2,0,-1,1,1,0
1570181555074139,-1,-2,0,0,0,1,1,3
1570181555074139,-3,0,-1,-1,-2,1,-1,3
1570181555087109,2,1,1,2,0,-1,1,4
1570181555087109,2,0,2,1,0,-3,-1,-1
1570181555094091,0,-2,-1,-4,-1,-1,-1,-1
1570181555094091,0,-2,-2,-1,0,-1,-2,1
1570181555110087,-2,0,-2,-1,0,1,1,1
1570181555110087,-2,0,0,0,-1,-1,-2,-1
1570181555112044,-2,-2,-1,-1,-2,-4,-13,-7
1570181555112044,-1,-2,0,-2,0,1,3,1
1570181555132989,-1,-1,-1,0,2,0,3,4
1570181555132989,1,-1,0,0,-1,-2,-6,3
1570181555134041,-2,0,-1,-1,-1,0,1,-3
1570181555134041,-1,-1,0,0,-1,0,0,0
1570181555146947,1,1,0,0,1,2,0,1
1570181555146947,-4,-2,-2,-2,-1,0,4,-5
1570181555153924,0,-1,-2,0,0,0,3,1
1570181555153924,1,0,0,-1,-1,-3,-3,-1
1570181555169956,0,-3,-4,-3,-2,-1,2,2
1570181555169956,0,0,-1,1,1,0,-1,0
1570181555171875,-1,0,-1,0,0,2,3,3
1570181555171875,0,-1,-1,-1,-1,0,-2,1
1570181555192819,-1,0,-2,-1,-1,-1,-4,3
1570181555192819,0,0,-1,-1,-1,-1,-3,-1
1570181555193881,-2,0,0,-1,-1,0,1,1
1570181555193881,-1,0,-1,-1,0,1,2,0
1570181555206783,1,0,1,1,-1,-1,-1,-3
1570181555206783,0,1,-1,-2,-1,1,-1,-1
1570181555213764,0,-1,-1,-1,0,0,0,1
1570181555213764,-1,-2,-2,-2,-2,-3,-1,-2
1570181555229841,-1,-1,-1,0,0,-2,0,1
1570181555229841,0,0,0,0,0,-2,-2,1
1570181555231716,1,0,1,2,0,1,0,-3
1570181555231716,-2,-2,-2,0,-2,-1,-2,-2
1570181555252771,0,0,-2,-2,-1,2,1,-1
1570181555252771,-1,0,1,1,-1,-1,0,-1
1570181555254105,-1,-1,-1,-1,-2,0,0,1
1570181555254105,1,1,0,-1,0,0,-1,-2
1570181555266691,-3,0,-1,0,0,0,0,2
1570181555266691,1,-2,-1,-1,0,-1,-8,9
1570181555273642,0,0,-2,-2,-1,-3,-1,-2
1570181555273642,0,2,2,0,0,1,0,4
1570181555289599,0,0,0,0,-1,0,-3,0
1570181555289599,-1,-1,-2,-1,-2,1,2,-3
1570181555291954,-2,-2,-1,0,-1,0,1,2
1570181555291954,-1,1,-1,0,0,-1,-2,-4
1570181555312719,1,-1,0,-1,-1,-1,3,-2
1570181555312719,0,-2,-2,-1,-1,-1,1,-4
1570181555314495,1,1,-1,-3,1,-2,-1,0
1570181555314495,0,0,-2,0,0,0,-1,-1
1570181555327204,-1,0,0,0,0,-1,0,-2
1570181555327204,-2,-1,-1,-1,-1,0,0,0
1570181555335014,1,1,0,-1,-1,-1,-2,1
1570181555335014,-1,-3,-1,0,-1,0,-1,2
1570181555349908,0,-1,-1,-2,0,-1,0,-1
1570181555349908,-2,0,-2,0,0,0,1,-1
1570181555351912,-1,0,-1,0,-1,-2,-5,-2
1570181555351912,-1,-2,0,-1,0,-3,-1,3
1570181555372973,-1,0,-2,0,-2,1,0,-2
1570181555372973,-1,0,-1,-1,0,-2,-3,-6
1570181555373939,1,2,0,0,-2,0,1,5
1570181555373939,-1,-1,-1,0,-1,1,0,-1
1570181555387243,0,-1,1,0,1,-1,-1,-2
1570181555387243,-1,-1,0,1,-1,-1,1,-2
1570181555393933,-2,-2,0,-1,-1,1,-2,-5
1570181555393933,-5,-2,-2,-2,-1,0,3,-8
1570181555409865,-2,-1,-1,0,1,-1,-1,-1
1570181555409865,0,-1,-1,-2,-1,0,0,-2
1570181555412117,1,-3,0,-1,-1,-2,0,2
1570181555412117,-1,-1,0,-1,-1,1,-2,-3
1570181555432141,-3,-2,-1,-2,-3,0,9,-9
1570181555432141,2,0,1,-1,-1,-3,-7,3
1570181555434297,-1,0,0,0,-1,0,0,-3
1570181555434297,0,-1,1,-1,1,-3,-3,1
1570181555446116,-2,-1,0,1,-3,1,0,-1
1570181555446116,-1,-1,-1,2,-1,0,0,0
1570181555455201,-1,-1,-3,-1,0,-1,2,7
1570181555455201,0,-1,1,1,0,0,-2,-1
1570181555470403,3,0,-1,-2,0,-1,-5,4
1570181555470403,0,0,1,-1,0,-1,1,4
1570181555471343,-3,-1,1,-1,0,0,-1,-2
1570181555471343,0,1,0,-1,0,-2,-4,1
1570181555493255,0,-2,-1,-1,0,-2,-3,0
1570181555493255,-2,0,0,-1,0,0,-1,-5
1570181555494219,-1,0,-4,0,0,-1,1,-3
1570181555494219,1,0,-3,0,0,-1,0,-1
1570181555506124,0,0,-2,-1,-1,0,1,2
1570181555506124,2,2,1,0,0,0,2,9
1570181555515776,-2,-1,0,-1,-2,0,1,-3
1570181555515776,1,0,-2,-2,-2,2,1,5
1570181555530554,-1,-1,-2,-1,0,0,-4,2
1570181555530554,-3,0,-3,-1,-1,-1,-2,-14
1570181555531447,0,-1,0,-1,0,0,1,2
1570181555531447,-1,0,1,-1,-1,1,3,-3
1570181555553261,-1,-1,-1,-1,-1,-1,0,-2
1570181555553261,0,0,-1,-2,0,0,1,-3
1570181555554538,-1,-1,-1,0,0,0,1,-3
1570181555554538,1,-3,0,0,-1,1,-1,-2
1570181555566543,1,1,1,-1,-1,-1,-1,-2
1570181555566543,-1,0,-1,0,-1,0,-1,3
1570181555575424,0,2,-1,1,0,-1,0,1
1570181555575424,1,-3,-1,-1,-1,-2,0,1
1570181555590390,0,-1,0,0,0,1,0,1
1570181555590390,1,-1,0,-1,-1,1,-1,-1
1570181555591444,4,0,-1,1,-2,0,-12,10
1570181555591444,-2,2,0,1,0,-3,0,-1
1570181555612558,-2,-2,-3,-2,-1,-1,-2,-3
1570181555612558,0,-1,-2,-2,-1,2,1,2
1570181555614326,-1,-1,0,-1,0,0,0,-4
1570181555614326,-7,-2,-2,-3,-1,2,10,-5
1570181555626556,0,1,0,0,-1,-1,-3,4
1570181555626556,-1,-2,-1,-2,-1,-1,6,2
1570181555635263,0,0,0,-1,-2,0,2,-3
1570181555635263,-2,0,-2,-1,-2,0,0,-6
1570181555650227,3,0,0,0,1,0,0,-1
1570181555650227,-3,-3,-2,-1,-1,-1,6,-6
1570181555651346,-1,0,-1,-1,0,-1,3,-2
1570181555651346,0,0,-2,-1,0,-2,-2,-1
1570181555673163,-1,-1,0,-1,-2,0,-2,2
1570181555673163,1,0,-1,1,-2,0,0,15
1570181555674159,0,-1,1,0,-1,-2,-3,-6
1570181555674159,1,1,1,1,0,-2,-4,1
1570181555686174,0,-1,-1,-1,0,2,3,2
1570181555686174,-1,-2,-1,-1,1,-1,-1,-4
1570181555695104,-2,-2,-1,-2,-1,0,1,-3
1570181555695104,2,-1,0,-2,0,-1,-3,5
1570181555710063,-3,1,-2,-1,-1,-5,-2,-6
1570181555710063,0,0,1,0,-2,0,-2,-3
1570181555712214,0,1,-1,1,-1,1,0,0
1570181555712214,3,-1,-1,1,-1,-1,-7,7
1570181555733001,-1,-2,-1,-1,-1,-1,-1,1
1570181555733001,0,0,-2,-2,-2,-1,-1,0
1570181555734222,0,0,-1,-2,-2,-1,-3,3
1570181555734222,-1,-1,0,1,-1,1,-2,-2
1570181555745967,0,-1,1,2,0,2,1,2
1570181555745967,1,-1,-2,0,-1,-2,-5,-2
1570181555755659,-5,-1,-2,-1,-2,0,9,-12
1570181555755659,2,0,-1,-1,0,-1,-7,5
1570181555770037,-1,-1,0,-2,-1,-1,-3,-6
1570181555770037,0,0,0,1,0,0,0,2
1570181555771906,-1,-2,0,0,-2,-1,-1,-3
1570181555771906,-2,-1,-1,-1,-3,0,3,-3
1570181555792902,-1,1,1,-1,0,-1,-1,2
1570181555792902,0,-2,-2,-1,-2,-1,-3,-5
1570181555794241,0,-1,-1,0,1,-2,-2,2
1570181555794241,-1,0,0,-2,0,-2,0,-1
1570181555806206,-1,-1,-3,1,-1,-1,-2,-2
1570181555806206,0,-1,0,0,-1,-1,2,-3
1570181555816335,0,0,1,-1,-1,0,-3,2
1570181555816335,-5,-5,-3,-2,-2,0,5,-5
1570181555829962,0,0,-2,0,0,0,3,-2
1570181555829962,-2,-1,1,-1,0,0,11,6
1570181555831739,2,-2,-1,0,0,-2,-3,0
1570181555831739,1,1,-1,1,0,-2,-2,-6
1570181555852681,0,-2,-3,-2,-1,-2,0,4
1570181555852681,-2,0,0,-2,1,0,-1,-3
1570181555853678,-1,-2,0,-1,1,1,-1,1
1570181555853678,1,1,0,-1,-1,0,0,1
1570181555866764,2,-1,-1,1,0,-1,3,6
1570181555866764,-1,-1,-1,0,-1,-1,-6,-1
1570181555875213,-2,0,-1,-2,-1,-2,0,-4
1570181555875213,2,3,0,-1,0,-2,-6,4
1570181555890182,-1,-2,-1,0,0,0,-4,1
1570181555890182,0,1,2,0,-1,-1,-4,-5
1570181555891219,1,-1,-1,0,-2,2,-3,4
1570181555891219,-2,-1,-2,-1,1,0,2,-1
1570181555912269,-2,1,-1,-2,-1,-1,0,-4
1570181555912269,0,0,-1,-1,-1,0,-3,0
1570181555914207,-2,-1,-1,-1,-1,-1,1,-4
1570181555914207,0,-1,-2,1,-1,-1,-1,1
1570181555935199,-1,-2,0,-1,0,0,-1,-1
1570181555935199,-1,-3,-2,0,-1,-2,-3,-2
1570181555937056,-2,-2,-1,0,-2,-1,-3,-6
1570181555937056,1,-1,0,-1,0,0,0,-2
1570181555950148,-1,1,-2,-1,0,0,0,1
1570181555950148,-1,1,-2,1,0,-1,-2,0
1570181555952017,-2,-1,-1,0,-1,-2,-1,1
1570181555952017,-2,-1,-2,-1,0,-3,0,-1
1570181555972960,0,0,1,0,-2,-2,1,1
1570181555972960,1,-1,-1,-4,-3,-1,1,-1
1570181555973957,-6,-2,-1,-3,0,2,12,-7
1570181555973957,0,0,-2,-1,-1,-1,-2,-2
1570181555994904,-3,-3,-1,-1,0,-1,1,-4
1570181555994904,-1,-1,-3,0,-1,0,2,3
1570181555996954,3,2,0,0,3,0,-3,6
1570181555996954,-1,-1,1,1,-2,-1,0,1
1570181556009866,-1,-2,-2,0,-1,0,-2,-3
1570181556009866,-5,-4,-2,-2,0,-2,-2,-12
1570181556011857,-1,-2,-1,-1,-3,1,-2,-1
1570181556011857,0,-1,1,2,0,0,-2,-3
1570181556032803,3,0,1,-1,1,-1,-4,2
1570181556032803,1,-1,1,0,-1,-1,0,0
1570181556034094,-2,-2,-2,1,0,-2,0,-7
1570181556034094,0,-2,0,2,0,0,-4,1
1570181556054741,-2,-1,0,0,-1,0,0,-4
1570181556054741,0,2,-1,0,1,-1,-1,4
1570181556056736,0,0,0,0,-2,-2,-2,0
1570181556056736,-1,-1,-2,-3,-1,1,3,1
1570181556069745,-1,0,-2,-1,1,1,-1,-3
1570181556069745,1,1,0,1,0,3,1,0
1570181556076687,5,1,1,1,1,-3,-12,16
1570181556076687,0,-1,0,-1,0,-1,1,0
1570181556092639,0,2,-1,1,-2,-2,0,0
1570181556092639,2,-1,1,-1,0,1,-2,2
1570181556094633,-2,-1,-1,-1,-1,0,4,-3
1570181556094633,0,-2,1,0,-1,0,1,0
1570181556115578,0,0,0,-2,0,-1,-1,0
1570181556115578,-3,-2,0,-2,-1,-1,1,0
1570181556116577,-1,0,0,0,0,-2,0,-1
1570181556116577,-1,0,-1,-1,-1,-1,-2,-4
1570181556129547,1,0,0,-2,-1,-1,2,-1
1570181556129547,0,0,-1,0,-1,-1,-3,1
1570181556136529,0,-2,0,-1,-1,0,-1,1
1570181556136529,0,-1,-2,-2,1,1,-2,-1
1570181556152536,0,-1,1,-1,-1,1,0,4
1570181556152536,0,0,-2,-1,0,0,3,0
1570181556154480,1,3,2,1,-1,-2,-8,2
1570181556154480,-2,0,0,1,0,1,4,0
1570181556175429,-2,-2,-2,-1,-2,0,0,-3
1570181556175429,-1,-3,-2,1,-1,0,1,-6
1570181556176417,0,-1,-3,-2,0,0,3,0
1570181556176417,-1,-1,-1,-2,-1,-1,0,-1
1570181556189386,0,0,0,1,0,-2,-4,0
1570181556189386,0,0,-1,-2,1,-1,-2,3
1570181556196491,-2,0,-2,-2,-1,0,0,-4
1570181556196491,-2,-1,-1,-1,-1,-1,-1,1
1570181556212967,-3,-2,-2,0,0,-1,11,-14
1570181556212967,2,2,0,0,-2,-4,-8,1
1570181556214435,-1,-1,0,-1,-1,1,1,-1
1570181556214435,0,-2,-2,-2,-1,0,-1,-3
1570181556235259,-1,-1,-1,-2,-1,0,1,0
1570181556235259,-1,0,0,-2,0,0,2,0
1570181556236389,1,-1,1,-1,1,0,-1,0
1570181556236389,-2,0,0,-2,-1,0,-1,-3
1570181556249222,1,-1,0,0,-1,-3,-7,-13
1570181556249222,-1,0,2,-1,-1,-2,-1,3
1570181556256205,-2,-2,-2,-3,-1,-2,1,-2
1570181556256205,-4,0,-1,0,0,-3,-1,-4
1570181556272161,1,-1,-1,-1,0,-1,-3,4
1570181556272161,-1,-1,-2,0,-1,0,0,-3
1570181556280141,-3,-2,-3,-2,-1,-2,-1,-8
1570181556280141,0,1,-1,1,-1,-2,-2,2
1570181556295312,0,-1,0,0,0,-2,-2,3
1570181556295312,0,0,0,-1,-1,-1,1,-1
1570181556297095,0,-1,0,-1,-1,2,1,1
1570181556297095,1,0,-1,1,0,-1,0,1
1570181556310062,-1,1,-2,-2,-1,0,-2,5
1570181556310062,-2,-1,0,-2,-1,-1,-3,-4
1570181556316113,0,-1,-3,1,0,0,2,-5
1570181556316113,1,-1,1,0,-2,1,-1,1
1570181556332998,-9,-2,-1,0,-1,2,8,-23
1570181556332998,1,-2,-2,-1,-2,0,-3,3
1570181556333996,1,1,1,-1,-1,-2,2,5
1570181556333996,5,1,0,0,-1,0,-7,11
1570181556354944,3,0,-1,0,2,2,-3,6
1570181556354944,-1,0,-1,0,0,0,0,-2
1570181556356933,0,-1,0,-2,1,1,-2,-1
1570181556356933,-3,-1,-3,-3,-9,-6,4,-8
1570181556368911,-1,0,-1,-2,0,-2,-3,5
1570181556368911,-1,-1,-1,2,0,0,-2,-1
1570181556376244,4,2,0,3,0,-2,-6,8
1570181556376244,-2,-3,-1,-2,2,2,1,-4
1570181556392955,1,-1,-1,-1,0,0,-2,8
1570181556392955,0,1,-1,-2,0,0,-2,-2
1570181556393836,-5,-2,-4,0,2,1,2,-2
1570181556393836,-3,-2,0,2,0,0,-1,-1
1570181556414779,-4,-2,0,0,0,-2,-5,-13
1570181556414779,0,0,0,-1,1,2,2,2
1570181556416775,0,-2,-2,-2,-2,0,-1,-2
1570181556416775,-2,0,0,0,0,-1,0,1
1570181556437796,-5,-4,-3,-3,-3,0,10,-6
1570181556437796,1,1,0,0,-1,-1,-2,3
1570181556438717,-1,-1,-2,-1,-1,-1,2,-3
1570181556438717,3,0,-2,0,1,0,-1,0
1570181556451684,0,0,2,0,0,0,1,5
1570181556451684,-3,-3,-1,-2,-1,-2,0,-4
1570181556452679,-1,-1,-1,0,0,-1,2,3
1570181556452679,-1,-1,-1,-2,1,0,3,-2
1570181556474696,1,0,1,1,0,0,-3,5
1570181556474696,1,0,0,0,0,1,-1,0
1570181556475705,-2,-1,0,1,0,-2,-7,-2
1570181556475705,-3,-1,-3,-1,0,-1,-1,-9
1570181556497559,0,-1,0,-1,-2,-2,0,3
1570181556497559,0,-1,-2,0,-1,-2,-4,0
1570181556498556,-1,-1,0,-1,1,0,1,-2
1570181556498556,-1,1,-2,-1,-1,-1,-3,0
1570181556512104,2,1,0,-1,-1,-2,0,16
1570181556512104,-1,-2,-1,1,-2,-3,3,-3
1570181556512543,0,-2,0,0,-2,-2,0,-1
1570181556512543,2,0,-1,0,1,0,2,4
1570181556534459,1,0,1,-1,-1,0,-3,-2
1570181556534459,1,-1,0,0,0,0,0,1
1570181556535456,0,1,1,-1,-1,1,-1,-2
1570181556535456,1,-1,-2,-2,0,0,-3,3
1570181556557405,1,-1,-1,0,-1,0,-3,-2
1570181556557405,-1,-2,-2,-3,0,-2,-1,-2
1570181556558396,-2,-1,-2,0,0,0,0,-5
1570181556558396,0,-1,0,-1,-1,0,2,1
1570181556572359,0,-1,-1,1,2,-2,-1,0
1570181556572359,-2,-1,-2,0,-2,1,0,1
1570181556572359,-2,-1,0,0,-1,-2,0,1
1570181556572359,-6,-1,-1,-2,-1,2,11,-13
1570181556594298,1,1,0,0,-1,0,-5,-1
1570181556594298,1,0,0,-1,-1,0,0,0
1570181556595572,-1,-2,-2,-2,0,0,-1,0
1570181556595572,-1,-2,0,-1,0,0,-2,-1
1570181556617319,0,0,-1,-1,-1,-2,0,-3
1570181556617319,2,-1,-2,-1,-1,1,5,11
1570181556618241,0,2,-1,0,-1,-1,0,0
1570181556618241,0,-1,-1,-1,-2,-2,-3,1
1570181556632202,-3,-2,-1,-1,-1,0,-2,0
1570181556632202,-2,0,0,1,-2,-2,-3,-4
1570181556632202,1,-1,-1,-1,1,-1,0,1
1570181556632202,2,-1,0,0,-1,-3,-3,2
1570181556654141,3,0,0,-1,0,0,1,3
1570181556654141,-9,-5,-4,-1,-2,0,7,-11
1570181556655136,-3,1,0,0,-2,-1,-2,-3
1570181556655136,0,-1,-1,0,0,0,-2,-1
1570181556678122,0,-1,0,-1,-2,-2,1,0
1570181556678122,-1,-1,0,1,1,0,-2,-3
1570181556678122,0,2,0,-2,-1,0,0,-2
1570181556678122,1,0,-1,-1,-1,-2,-3,1
1570181556692051,-2,-1,-2,-1,-2,-1,-1,-3
1570181556692051,2,1,0,-1,-2,-1,-2,0
1570181556693128,-1,0,-2,-1,-2,-2,-1,5
1570181556693128,0,-2,-2,0,1,1,2,5
1570181556714033,-1,-1,0,1,-2,0,2,0
1570181556714033,-1,1,-1,0,-2,-3,-6,1
1570181556715373,1,0,1,0,-1,0,2,2
1570181556715373,-1,-1,-1,-2,-1,-2,0,-2
1570181556737915,-2,1,-1,-1,0,0,0,-4
1570181556737915,0,-1,1,-1,0,-1,1,-4
1570181556737915,-1,-1,0,-2,1,1,0,-3
1570181556737915,0,1,1,1,-2,0,0,0
1570181556752084,0,-2,-1,0,0,0,-1,-1
1570181556752084,0,0,1,-1,0,-1,-5,-1
1570181556752875,-1,-1,-1,0,-2,-2,-1,-1
1570181556752875,-1,0,-1,-1,-1,0,0,4
1570181556774817,1,-1,-2,-1,-2,0,1,0
1570181556774817,0,0,1,-2,-1,-1,-2,-1
1570181556774817,0,0,-1,1,0,-1,-1,0
1570181556774817,-2,-1,0,0,-1,0,-3,-9
1570181556797756,1,1,0,1,0,-1,0,2
1570181556797756,-1,-2,1,-1,-1,-1,-1,0
1570181556798753,0,1,-2,0,1,0,3,10
1570181556798753,-6,-1,0,-1,0,0,6,-8
1570181556812199,-1,-2,-1,-1,-2,-1,4,3
1570181556812199,-2,0,0,0,0,0,1,0
1570181556812716,0,0,1,-1,-2,-1,-1,-4
1570181556812716,0,0,-2,-2,0,0,-2,4
1570181556834657,0,-1,2,1,0,-1,-2,0
1570181556834657,-2,-2,-1,-2,-2,1,0,2
1570181556834657,-1,-2,0,-3,-1,-1,-2,-4
1570181556834657,-1,0,-1,-1,0,0,0,0
1570181556858137,0,1,0,-1,0,0,-2,-2
1570181556858137,1,1,-1,0,0,0,-1,-1
1570181556858593,0,-2,1,-1,-1,1,0,-1
1570181556858593,0,0,1,2,1,-2,-4,1
1570181556871760,-1,-2,-1,-1,-1,1,0,1
1570181556871760,-1,0,-2,-1,0,-1,-1,-1
1570181556872554,-1,0,-3,0,-1,0,1,-1
1570181556872554,-1,0,0,0,-1,-1,-1,-3
1570181556894500,0,-2,-3,-1,0,-1,-1,0
1570181556894500,-1,-2,-1,-1,0,1,2,-3
1570181556895495,-1,-1,0,0,-2,0,-4,-5
1570181556895495,1,-1,0,-1,0,0,1,12
1570181556917562,0,0,-1,-2,0,0,-2,-2
1570181556917562,1,-1,0,0,-1,-2,-2,0
1570181556918433,-1,0,0,1,-1,-1,-2,-3
1570181556918433,-1,0,-1,0,0,-1,-2,-3
1570181556932397,0,1,0,-1,1,0,0,0
1570181556932397,-1,-1,1,-1,0,-2,1,3
1570181556932522,0,0,1,0,-1,0,0,0
1570181556932522,-4,-1,-1,0,-2,-3,-5,-16
1570181556954575,0,0,-2,-2,-1,-2,0,7
1570181556954575,-2,-1,1,2,0,1,1,-6
1570181556955335,5,2,0,-1,0,-4,-15,10
1570181556955335,0,0,0,-1,0,0,-2,-1
1570181556977320,0,-1,0,-2,-1,-2,-3,-4
1570181556977320,-1,0,1,-1,0,1,-1,0
1570181556978276,-2,-2,-2,0,-1,-1,5,-4
1570181556978276,3,-2,0,-1,0,1,0,4
1570181556992237,-4,-3,-1,-2,-1,-1,-3,-2
1570181556992237,-1,-1,-1,0,-1,-1,0,0
1570181556992483,3,-2,0,-3,0,2,5,14
1570181556992483,-1,2,0,-1,1,0,-3,3
1570181557014176,-3,-2,-1,-1,-2,1,4,-5
1570181557014176,0,0,-2,-1,-2,-1,-3,-1
1570181557015174,-3,-2,-1,-1,-2,-1,-1,-6
1570181557015174,-1,-2,-2,0,-3,0,2,-1
1570181557037121,0,1,0,1,2,0,-1,-1
1570181557037121,-1,-2,0,-1,0,0,-2,-3
1570181557038493,-1,-1,-1,0,-2,1,0,-4
1570181557038493,2,0,0,-1,-1,-1,-1,2
1570181557052077,-1,0,1,2,-1,0,-3,-2
1570181557052077,0,0,-1,-2,0,0,-2,-2
1570181557053072,-2,-1,-1,0,1,-1,3,-2
1570181557053072,0,-1,0,0,-1,-2,0,-2
1570181557074020,-1,0,1,-1,-2,-1,-1,0
1570181557074020,-1,0,-1,0,0,0,-1,-1
1570181557075344,-1,1,2,0,0,-2,-1,-2
1570181557075344,0,-1,-1,-1,-1,-2,0,1
1570181557097954,-2,-1,-1,-2,0,-1,-1,-2
1570181557097954,-8,-5,-3,-2,-3,0,7,-25
1570181557098950,2,0,-1,1,0,1,-3,7
1570181557098950,0,-2,-1,-1,-1,-1,1,0
1570181557112041,-1,-2,-1,0,-2,-1,0,0
1570181557112041,0,0,-3,-1,0,-1,1,3
1570181557112996,-5,-1,-2,-1,-1,0,6,-8
1570181557112996,1,0,-1,0,1,1,-3,4
1570181557134858,0,0,1,0,-4,-2,-3,-5
1570181557134858,1,0,0,0,1,-3,-5,4
1570181557135043,-3,-3,-1,0,0,-1,5,-6
1570181557135043,-1,-1,1,-1,0,0,-3,1
1570181557157794,-1,0,-1,-1,0,0,1,-2
1570181557157794,0,1,1,1,0,-1,-4,4
1570181557158795,-1,-1,-3,-1,1,-2,-1,0
1570181557158795,-2,0,1,-2,-1,0,0,-3
1570181557171980,-1,0,0,0,0,1,0,0
1570181557171980,-1,-1,0,0,-2,-1,-1,2
1570181557172753,-2,-1,-1,-1,-3,-2,-8,-18
1570181557172753,3,0,-1,0,0,-2,-10,11
1570181557194693,-1,-2,-1,-1,-1,-1,-1,0
1570181557194693,0,-1,-2,-2,-1,-2,-3,-2
1570181557194955,1,0,-1,0,-1,0,-3,3
1570181557194955,-2,-1,0,0,-2,1,3,-3
1570181557217637,-3,-1,0,-1,0,-1,0,-4
1570181557217637,1,0,-2,-1,0,1,0,0
1570181557218636,-2,-1,0,-2,0,1,1,2
1570181557218636,-2,0,0,0,-1,-2,-2,-4
1570181557231721,1,0,0,-1,-2,-1,1,4
1570181557231721,-1,-2,-1,0,-2,1,1,1
1570181557232593,1,0,-1,0,-1,-1,-1,1
1570181557232593,-8,-2,-4,-3,-2,0,11,-9
1570181557254533,2,2,0,-1,-1,-2,-3,-1
1570181557254533,0,-1,0,-2,0,-1,0,4
1570181557255538,-2,-1,-2,-1,1,1,-3,-3
1570181557255538,2,0,2,0,1,2,3,9
1570181557277951,1,0,0,0,0,0,1,-1
1570181557277951,1,0,-1,0,0,0,0,0
1570181557278476,-1,-2,0,-2,-1,0,0,0
1570181557278476,-5,-1,-1,0,-1,-1,6,-18
1570181557291439,2,0,0,0,-1,-3,-8,2
1570181557291439,1,0,1,1,0,1,-1,11
1570181557292433,0,1,-1,0,-1,0,-3,1
1570181557292433,2,1,-4,-1,0,0,-2,-2
1570181557314430,-1,-1,-1,-2,0,1,1,0
1570181557314430,-4,-3,-3,-2,-1,2,0,-5
1570181557315374,1,1,-1,0,0,0,-1,2
1570181557315374,-2,-2,-1,-1,-1,-2,-7,-5
1570181557337446,-2,-1,-1,0,1,0,1,-2
1570181557337446,1,0,0,-1,1,-2,-2,1
1570181557338314,-1,-1,0,-1,1,0,1,2
1570181557338314,1,-1,1,-1,0,-1,-5,3
1570181557352277,-1,-1,-1,0,-1,-1,1,0
1570181557352277,0,-1,0,-3,-1,1,2,-1
1570181557352847,1,0,-1,-1,-2,1,2,17
1570181557352847,0,-1,-1,0,-1,0,-1,3
1570181557374216,-2,-2,-1,0,-1,0,0,1
1570181557374216,-7,-3,-2,-3,-2,0,6,-4
1570181557375213,0,1,0,0,-4,-1,0,-1
1570181557375213,2,2,0,-1,-1,-1,-3,0
1570181557398152,-1,-1,-3,-1,1,-1,1,2
1570181557398152,-6,-2,-1,-1,-2,1,11,-16
1570181557398152,0,-1,0,0,2,-2,-5,-4
1570181557398152,0,-2,-2,-2,0,0,0,1
1570181557412122,-1,-1,1,-1,-1,-2,1,-5
1570181557412122,0,0,1,0,-2,-1,-2,0
1570181557413108,-5,-3,-1,0,-2,-2,-1,-9
1570181557413108,3,2,1,1,1,0,0,6
1570181557434058,0,-1,-1,-2,1,0,0,-5
1570181557434058,2,0,1,0,-2,-2,-5,4
1570181557435053,0,-2,-2,-1,0,2,-4,-2
1570181557435053,0,-2,0,-3,-1,-1,-2,-1
1570181557456994,-1,-2,0,-1,-1,0,0,1
1570181557456994,2,2,0,0,1,-1,-5,3
1570181557457990,-1,-2,-1,-2,-1,0,0,-4
1570181557457990,3,1,0,-2,-1,-1,2,17
1570181557470997,-2,0,1,0,0,0,-1,-2
1570181557470997,4,-1,-2,-1,-1,-1,-2,6
1570181557479932,0,0,-1,-1,1,-1,1,3
1570181557479932,-2,0,-1,-1,0,0,-1,-6
1570181557494896,-7,-4,-1,-2,-2,-1,12,-17
1570181557494896,2,-2,-1,2,0,-2,-4,1
1570181557495049,-2,-2,0,0,-1,0,-1,-4
1570181557495049,-1,-1,0,1,-2,-1,-2,-1
1570181557517829,0,-1,-1,-2,-2,0,0,2
1570181557517829,2,1,1,0,-1,-1,0,-4
1570181557517829,0,1,0,-1,-1,0,1,1
1570181557517829,-2,-2,0,0,-1,-1,2,-6
1570181557530907,-1,0,0,1,-1,-2,-7,-5
1570181557530907,1,-1,0,-2,0,-1,0,6
1570181557539776,0,0,0,0,-1,-1,-3,1
1570181557539776,-4,-3,-1,-2,0,0,-1,-5
1570181557554731,0,1,-3,1,0,0,-3,1
1570181557554731,1,0,-1,1,-1,0,-6,-1
1570181557554731,-1,0,1,0,0,0,2,1
1570181557554731,-1,-1,-1,0,-1,0,0,-6
1570181557577717,5,0,0,0,-1,-2,-12,12
1570181557577717,-1,0,0,1,0,0,2,-2
1570181557578667,-1,-3,-2,-1,1,-1,10,3
1570181557578667,-1,0,0,-2,-1,-1,-3,-2
1570181557591632,-1,0,1,-3,-1,1,1,-11
1570181557591632,-2,-1,0,-1,-1,-1,-1,3
1570181557599612,1,-1,1,-1,-1,-2,-7,-1
1570181557599612,0,-1,-3,0,0,-2,1,0
1570181557614573,3,1,0,0,0,-1,-11,7
1570181557614573,-8,-4,-5,-4,-2,0,7,-12
1570181557615569,1,0,-2,-1,-1,1,2,-4
1570181557615569,-5,-2,-2,1,-1,-2,1,-8
1570181557637753,1,-1,-1,-1,0,0,5,9
1570181557637753,0,-1,-2,-1,-1,-1,-1,-3
1570181557638512,1,0,1,0,-1,-3,-4,6
1570181557638512,0,0,1,-2,-1,1,-1,1
1570181557651514,-3,-2,-1,-2,0,-1,3,-5
1570181557651514,-1,0,-1,0,0,1,-3,3
1570181557659451,-1,-1,0,-1,-1,-1,2,-2
1570181557659451,1,-1,0,0,-1,-1,-4,3
1570181557674411,0,-1,-1,-2,-2,-2,0,1
1570181557674411,-2,-1,0,-1,0,0,-1,0
1570181557675408,1,0,-2,-2,0,-1,-1,5
1570181557675408,-3,-1,-1,-1,-1,1,1,-4
1570181557697559,1,0,-2,1,1,0,-1,6
1570181557697559,0,-1,-1,-2,-1,-3,-2,-7
1570181557698347,1,-2,0,2,-1,0,3,0
1570181557698347,1,0,0,0,0,-1,-1,-1
1570181557711386,-2,-2,-1,-1,-3,0,3,-6
1570181557711386,1,-1,0,0,0,-1,-2,2
1570181557719296,-3,-1,0,-1,-4,-1,-5,-6
1570181557719296,5,-1,1,1,0,0,-5,7
1570181557734250,6,3,0,0,0,-3,-14,8
1570181557734250,0,1,1,0,-1,-1,-1,1
1570181557735249,1,1,-1,0,-1,-2,-2,1
1570181557735249,-3,-1,-3,-1,-1,1,2,-4
1570181557758187,-3,-1,-1,0,1,0,6,-4
1570181557758187,-2,0,1,0,1,1,0,2
1570181557759185,0,0,-2,-2,1,-1,-2,0
1570181557759185,1,1,1,-1,0,0,-2,-3
1570181557771153,-2,1,1,0,1,1,6,9
1570181557771153,1,-1,0,-1,0,0,0,3
1570181557779134,-4,-1,-3,-1,0,-1,0,-1
1570181557779134,-2,-1,-2,-1,1,-1,0,-3
1570181557794097,0,-2,-2,-2,-1,1,1,-3
1570181557794097,0,0,-1,0,0,0,1,0
1570181557795089,0,0,-1,0,1,2,0,1
1570181557795089,2,0,-1,-2,-1,-1,0,1
1570181557818027,-2,-3,-2,-1,-1,-1,2,-4
1570181557818027,0,0,0,0,-2,-2,-2,-1
1570181557818027,1,0,-1,1,-1,0,-7,2
1570181557818027,-1,0,-1,-3,-1,-1,1,3
1570181557840174,-3,0,0,-1,-1,1,2,-4
1570181557840174,2,2,-1,-1,0,-2,-10,5
1570181557840968,-3,-2,0,0,-1,0,1,-2
1570181557840968,-1,-1,-1,0,0,-1,2,2
1570181557853930,1,0,1,2,-2,-2,-5,-4
1570181557853930,2,0,-1,-2,0,1,6,6
1570181557855099,-2,-1,-2,0,-2,-2,-4,-9
1570181557855099,0,-1,-3,-1,1,-3,-1,-1
1570181557878055,-4,-2,-2,-1,-1,-1,1,-9
1570181557878055,-1,1,2,0,0,-1,-1,-5
1570181557878055,-1,-1,0,-1,-1,-2,1,-1
1570181557878055,0,-1,-2,-1,-1,2,1,5
1570181557899951,0,-1,-1,0,-1,-1,-1,2
1570181557899951,-2,-1,-2,-1,0,1,1,-2
1570181557900807,0,-1,-1,0,1,-1,2,3
1570181557900807,-1,0,1,2,-1,-2,-1,-3
1570181557914881,-7,-4,-2,-3,-2,1,11,-10
1570181557914881,2,-1,0,-1,0,-1,-4,5
1570181557914881,-1,-1,0,-1,0,1,2,-2
1570181557914881,-1,0,0,-1,-1,-1,-1,0
1570181557937858,-1,0,-1,0,-1,-2,-2,-3
1570181557937858,-1,-1,1,-2,-1,2,0,9
1570181557938708,6,3,2,-1,-2,-2,-6,7
1570181557938708,-1,0,0,-2,-1,1,0,-3
1570181557960647,-1,-1,-1,-1,-1,-2,-5,0
1570181557960647,-2,-2,-2,2,0,-3,-1,-5
1570181557960647,-1,0,0,1,2,-1,-2,-2
1570181557960647,1,-1,-1,0,0,-1,0,2
1570181557974650,-2,0,-1,0,-1,-1,-5,-2
1570181557974650,-1,0,-2,-1,-3,-2,-1,-2
1570181557975606,-3,-2,-1,-4,-2,1,4,-5
1570181557975606,0,-1,-1,-1,-1,0,-2,-3
1570181557997552,0,2,0,-1,-2,0,-3,2
1570181557997552,-3,0,-1,0,-1,0,5,-10
1570181557998545,5,3,2,1,1,-2,-12,9
1570181557998545,-2,0,0,0,0,0,-1,2
1570181558020486,1,-2,-1,0,2,2,2,11
1570181558020486,0,-2,-4,-3,-1,0,1,-1
1570181558020802,-2,-3,-3,-3,-1,1,2,-4
1570181558020802,-1,0,-1,-2,0,-2,1,3
1570181558034662,1,1,0,2,-1,-2,-4,-1
1570181558034662,1,-3,-1,0,-1,-2,-3,0
1570181558035566,-3,-1,-2,-1,-1,0,2,-2
1570181558035566,-2,-2,0,1,-2,-2,-3,-3
1570181558057564,-4,-1,-2,-3,-2,2,8,-6
1570181558057564,1,2,1,0,1,1,1,7
1570181558058385,-4,-1,-1,-1,-1,-2,0,-4
1570181558058385,-1,-1,-1,1,-1,-1,1,3
1570181558080367,1,0,0,-2,1,-1,-2,-1
1570181558080367,-1,-2,-1,0,0,-2,-1,-3
1570181558081325,0,-1,-2,-2,-3,-2,1,-1
1570181558081325,0,0,1,-1,-2,1,0,-2
1570181558094358,0,-2,-2,-1,-1,-1,-3,3
1570181558094358,0,-1,-1,-1,-2,0,-2,-3
1570181558095294,0,0,-2,1,-1,1,0,-1
1570181558095294,4,2,2,3,2,-2,-3,6
1570181558117438,0,0,0,-1,0,0,-1,1
1570181558117438,0,-1,1,0,-1,0,-4,-1
1570181558118225,-2,-1,-2,-2,0,-1,4,-4
1570181558118225,-1,-3,-1,-2,-1,-1,0,-2
1570181558140489,0,0,-1,0,-1,-1,-3,2
1570181558140489,-1,0,1,-1,0,0,1,-1
1570181558141340,-1,-1,-1,-1,0,0,2,2
1570181558141340,-1,-2,-1,-1,-1,-1,-1,-3
1570181558154129,2,0,1,0,-2,-1,3,10
1570181558154129,-3,-2,-1,-3,-1,0,3,-4
1570181558155144,5,2,-1,1,0,-3,-7,4
1570181558155144,-1,0,0,-1,1,1,-3,-1
1570181558178072,1,-1,1,0,0,-2,-1,-4
1570181558178072,-3,-1,0,-2,-1,0,-3,-8
1570181558178072,-2,0,-1,-1,-1,0,3,5
1570181558178072,-1,-3,-1,-1,-3,0,2,-2
1570181558200051,-2,0,-1,0,0,0,2,-7
1570181558200051,4,0,0,-1,-2,-4,-14,8
1570181558201004,-1,-3,0,-1,1,-2,-1,-5
1570181558201004,-2,-2,-4,-1,-2,-1,0,-3
1570181558213977,-1,-1,0,0,2,1,0,0
1570181558213977,0,-1,-1,-1,0,1,2,1
1570181558214972,-1,0,1,1,0,-1,-1,-5
1570181558214972,0,0,-2,-1,-2,-1,0,0
1570181558237952,-1,-2,-2,-1,0,0,-1,0
1570181558237952,1,-1,0,-1,0,-1,3,1
1570181558237952,-1,-2,1,-2,-1,0,-1,1
1570181558237952,-2,0,0,-1,0,0,0,-5
1570181558259951,2,2,0,0,-1,0,-1,8
1570181558259951,-2,0,1,1,0,-2,-1,-2
1570181558260847,0,-3,-2,-2,-1,-1,3,1
1570181558260847,-1,-1,0,-1,-1,1,-1,-2
1570181558274805,0,0,-1,0,-1,-2,-10,0
1570181558274805,-3,-2,-1,0,-2,0,2,-1
1570181558274805,4,3,3,-1,0,-3,-15,11
1570181558274805,1,0,0,1,1,-2,0,6
1570181558297744,0,0,-1,-2,1,1,1,-3
1570181558297744,-1,0,-2,-1,1,0,0,-2
1570181558298741,-5,-3,-1,-1,-1,1,1,-10
1570181558298741,-4,-2,-2,-1,-1,0,5,-8
1570181558320458,0,-2,-1,-2,-2,-1,-1,1
1570181558320458,1,0,-1,-1,-1,-1,1,3
1570181558320683,-1,0,0,0,-1,1,4,-3
1570181558320683,-1,0,0,0,-1,1,-2,2
1570181558334651,-2,-1,-1,-2,-2,-2,1,-2
1570181558334651,0,0,-1,0,0,1,-3,0
1570181558335643,-1,-1,-1,1,-1,-1,2,-1
1570181558335643,-3,-1,-1,-1,-2,-3,-4,-10
1570181558356587,0,-1,-1,-1,-1,-1,0,7
1570181558356587,-2,-1,-2,-1,-1,0,-2,-4
1570181558358582,-1,0,-1,-2,-1,-1,-2,1
1570181558358582,1,-1,-1,-1,-1,0,0,4
1570181558380527,1,-2,1,0,-1,-2,1,-1
1570181558380527,1,0,0,1,-1,0,1,-1
1570181558380527,-4,-4,-3,0,-3,2,12,-11
1570181558380527,5,2,-1,1,0,-1,-11,6
1570181558393495,-2,0,1,0,-1,-1,-2,-4
1570181558393495,2,-1,-2,-1,1,0,2,7
1570181558401470,-1,0,-1,-1,-1,0,2,-1
1570181558401470,0,0,-2,-1,0,-1,1,-4
1570181558417429,0,-2,-1,1,-1,-1,0,-1
1570181558417429,1,0,1,0,-2,-1,-7,3
1570181558418432,0,-1,1,-1,-3,-1,-4,1
1570181558418432,0,-1,-2,0,0,0,2,2
1570181558440414,5,3,1,1,1,-2,1,25
1570181558440414,-2,-2,-1,-1,0,-2,1,-5
1570181558440414,0,1,-1,1,1,-1,-3,0
1570181558440414,0,0,-1,-1,1,0,3,-3
1570181558453332,-3,0,-1,0,0,0,2,-9
1570181558453332,-1,-1,0,-1,-2,-1,0,-1
1570181558462395,0,1,-1,1,-1,-1,-3,2
1570181558462395,-3,-2,1,-1,0,-1,0,-2
1570181558477269,-1,0,-1,-2,-1,-3,-2,-5
1570181558477269,-2,-1,0,-2,-1,-1,2,-2
1570181558478315,3,-1,0,1,-1,-1,-9,7
1570181558478315,-3,-1,0,0,0,-1,0,-3
1570181558500203,3,1,0,0,-1,-1,-8,1
1570181558500203,-1,1,-1,-1,-1,-1,-2,-2
1570181558501201,-1,-2,-1,-2,0,0,4,0
1570181558501201,0,-1,-1,-1,0,-1,-1,1
1570181558514189,0,0,-2,-2,-2,0,0,-2
1570181558514189,-3,-2,-3,0,-2,0,1,-3
1570181558522145,1,-1,-1,-2,-1,1,1,7
1570181558522145,-2,-2,-1,-2,-2,0,0,-7
1570181558538102,1,0,-1,-1,0,1,1,1
1570181558538102,3,1,0,-1,0,-1,-3,2
1570181558538489,-2,-4,0,-1,-1,0,0,-5
