timestamp,emg1,emg2,emg3,emg4,emg5,emg6,emg7,emg8
1570180384440858.0,16.797047336247378,7.751872510123053,9.522800427544412,4.219689823035103,4.261558182259603,5.896461633879897,3.8361592288470256,12.324966746703993
1570180384440858.0,13.630405711823137,6.7087170003292105,7.259929352805718,3.7756182796939037,5.5701442360232125,6.212084718054859,3.527085604288278,11.608131180065623
1570180384441873.0,13.673228417714718,6.7969406301015605,7.171772617325312,3.8827984280053984,5.797395454474059,6.4250384720805735,3.62890209642777,11.86130327750984
1570180384441873.0,12.708089051463952,6.503569308400727,6.48597006109122,3.780591543946013,6.304612349406497,6.624040091863373,3.548206165793432,11.774010353276712
1570180384441873.0,12.769312941579207,6.568300713621909,6.425577638497863,3.847545999422681,6.454759383191097,6.782537043944907,3.5884257862177416,12.007703309792271
1570180384441873.0,12.226764232093332,6.4051199932967116,6.03303137493736,3.79257993279211,6.7808187850015385,6.945025477253526,3.552344137259075,12.033250206166747
1570180384443837.0,12.291213312225835,6.449826236633909,5.990007493789239,3.8425500204982876,6.8992330339570795,7.0994755235153715,3.602842200305389,12.240903016823683
1570180384443837.0,11.934707414017993,6.323892941984571,5.726701285109236,3.8060152991282883,7.128331199580969,7.254494734597731,3.600745923538222,12.328289389692149
1570180384443837.0,12.004380985994146,6.335137303964958,5.689917024396301,3.8334859938375074,7.21760091228434,7.39767083725653,3.6568544800114164,12.564198309410331
1570180384443837.0,11.749779885875562,6.221620819138231,5.49018312773229,3.7961049569572682,7.415667382816836,7.551827442461682,3.6719126362829155,12.699781911539043
1570180384457893.0,11.814401546885412,6.212192362162079,5.45046764180105,3.8077246626651764,7.519110249615064,7.708522211179851,3.7244636016568062,12.93758986266403
1570180384457893.0,11.582810520045767,6.105530697627557,5.275964082600932,3.7701714210795547,7.705310272014718,7.871536358268345,3.7221785682696757,13.078006233035651
1570180384466746.0,11.581740721514965,6.098920920509445,5.238475203024129,3.7741637205970284,7.813095830631622,8.02979159452724,3.7352380764380464,13.28723448666007
1570180384466746.0,11.355225572780546,6.017518558498583,5.096749216813089,3.7320629680871216,7.989292302202548,8.182832088031489,3.724045694427668,13.436650115764952
1570180384474721.0,11.35605576167254,6.010059518625944,5.054339390568045,3.72204308711849,8.100685242500102,8.306699545552425,3.743173374507462,13.660105552111158
1570180384474721.0,11.16045399593566,5.938546902167272,4.931032389470646,3.681230214215022,8.262570071142191,8.404864282767507,3.737874115900295,13.821079636109113
1570180384487951.0,11.167678165547656,5.941112717021594,4.906370677332992,3.670547663266359,8.363895009814945,8.497516316159274,3.763940138775246,14.050233258284997
1570180384487951.0,11.035569455444064,5.887500980062243,4.809234904953913,3.634824013970966,8.51910114970151,8.606249327609582,3.776937791288105,14.246037978368506
1570180384503645.0,11.10447085243988,5.895495932727539,4.790576005503315,3.630624783319079,8.632989346400572,8.715835709265784,3.8148433315134924,14.493084065389336
1570180384503645.0,11.048391419536845,5.859019255200493,4.706656867145773,3.6039356623575745,8.791888054911421,8.820914907063056,3.837757089762653,14.686512584080571
1570180384504644.0,11.167872808986232,5.8864786940152145,4.693218490794245,3.6028150000823684,8.915735847176974,8.92872250194652,3.8784201664068796,14.885242882868027
1570180384504644.0,11.164958746937199,5.872391296576332,4.617985158481305,3.587128650984413,9.075663115540996,9.053462614422765,3.894244854224219,15.002908188932793
1570180384550521.0,11.315577626443474,5.9108836837310434,4.606202640628959,3.5985011345346463,9.189183988462274,9.184497201443065,3.913961632721876,15.16492191442476
1570180384550521.0,11.348085098888518,5.915276767692078,4.55097340151724,3.593076185069721,9.312342952832324,9.310297342930227,3.9190879299470653,15.327158566534274
1570180384551595.0,11.512231707118742,5.972147459476311,4.565660491006845,3.608853750856668,9.37884035875251,9.421616845289181,3.9497032001477588,15.54435466238638
1570180384551595.0,11.555814279124396,5.993777947004544,4.537010939749191,3.609214020315985,9.463246265246655,9.53041275716836,3.978723235938246,15.74024651453965
1570180384552520.0,11.713357328684133,6.059348804006103,4.561856748177898,3.6261672816380126,9.524514249804144,9.639887601231678,4.030320239531999,15.958229274019127
1570180384552520.0,11.753439695499255,6.0897434916185125,4.536749253070164,3.6212854297931267,9.587362994665401,9.739372542823377,4.076723851586448,16.099262873370886
1570180384555608.0,11.874301992827053,6.149390188763072,4.558115305904982,3.6286034001855785,9.596111825910349,9.80817801425823,4.1413254978358305,16.140150407204164
1570180384555608.0,11.86974062003775,6.166958825126734,4.534079552462945,3.623319897313392,9.633092907977836,9.821807235951121,4.197134865256388,16.06692186548586
1570180384562492.0,11.960722738976191,6.218908159138425,4.554220482461996,3.634484275093526,9.672283516056217,9.758991491475227,4.26224283151184,16.030950639049152
1570180384562492.0,11.955544033456377,6.230468339550407,4.53562382307202,3.6329242784728164,9.737426805608193,9.648829478219671,4.309784611064196,16.018208268429944
1570180384570813.0,12.044503287556369,6.2563391419153085,4.557646592007471,3.645637969371799,9.792681709003972,9.532811125151568,4.361875310770235,16.028545460916284
1570180384570813.0,12.058132239740779,6.246271374008763,4.535723407071177,3.6462092992267623,9.875622719940061,9.418269183001689,4.402096697236034,16.012385352400276
1570180384577624.0,12.174836922673576,6.275741972761929,4.553333759971164,3.666428243599704,9.955857910575162,9.295881716698249,4.446499005185295,16.022206975957655
1570180384577624.0,12.225781296452496,6.285326340187338,4.538407752225763,3.6827236735865876,10.059947637361198,9.171588083517422,4.482349607062599,16.024289071575808
1570180384601835.0,12.37587691227005,6.318890062707847,4.557540324235463,3.7129437588902614,10.146990322945562,9.040809665949993,4.5275142585513235,16.02524626436003
1570180384601835.0,12.459043171107428,6.327936520705782,4.5436056786423515,3.731803255912973,10.197282345187142,8.90275169348341,4.560951619514383,16.006230044447573
1570180384603382.0,12.622396623491717,6.3762059978967685,4.563244581132807,3.760635254811527,10.177446411963034,8.7709955095341,4.588119368889159,16.009016754234757
1570180384603382.0,12.713677067162056,6.41199452479711,4.545462281685336,3.771374843874428,10.098380500534562,8.621170898087392,4.586318334292607,16.011820734697384
1570180384625328.0,12.882760650284188,6.47971386485768,4.559630823441485,3.7788307637471785,9.923403785116648,8.412323110772858,4.576206738759206,16.039977247064552
1570180384625328.0,12.980399401923671,6.527109574453457,4.551902507525783,3.77164164568032,9.726931298632577,8.16430812790842,4.549878115602769,16.039829251287724
1570180384627314.0,13.156805346083454,6.602911718218719,4.583463935340693,3.7818572052832664,9.54205462555586,7.916150927692813,4.515474876089243,16.006015620215628
1570180384627314.0,13.287637166115507,6.658613000739169,4.588688847277483,3.786862810059173,9.348850149858013,7.686431052734022,4.477200687479064,15.942138369048058
1570180384639430.0,13.4999264393416,6.736865319539332,4.620663059390063,3.794716412669661,9.124723726583417,7.468917214311189,4.447563875156122,15.876733199057895
1570180384639430.0,13.655006533177378,6.797625765071126,4.628289143711946,3.7887416149671913,8.891352092180718,7.2560826924046955,4.41283388428231,15.799080156590959
1570180384640832.0,13.881252468242542,6.888765246948823,4.6711682249084525,3.7938701516780333,8.665849523891476,7.055525223729682,4.389235725536931,15.734971577214045
1570180384640832.0,14.055147474567878,6.971741298072722,4.691845667759569,3.7982251610933955,8.471063355715982,6.869655579393772,4.3732687143601225,15.676385540437439
1570180384661461.0,14.290586943483186,7.082094112262763,4.739283391670916,3.8202470357479976,8.310015053432863,6.701049198694302,4.370056347597544,15.634441283351713
1570180384661461.0,14.464220524246196,7.171420455383496,4.759158629049952,3.8442778596193685,8.182564508827216,6.550981108381822,4.369726810527802,15.60154306814635
1570180384663225.0,14.698503199965225,7.279168665687295,4.805423895409826,3.882974395728571,8.072458441442118,6.410121698166179,4.381184021084385,15.595837729828222
1570180384663225.0,14.885995349116433,7.370715410512878,4.832754016871998,3.9156423630779,7.972320858849086,6.277865098713954,4.39484799654998,15.593107931810465
1570180384684166.0,15.137208137062718,7.485550214874101,4.8863447883836395,3.958683427120728,7.8797089003545615,6.155017690297432,4.4124310922452175,15.568123061219486
1570180384684166.0,15.344165562197526,7.588509934155781,4.919275402033469,4.002926079530328,7.7910713096495705,6.038366515671841,4.423747166289725,15.503730936372378
1570180384685503.0,15.61189306354315,7.71503344651493,4.985380329602443,4.061084559208313,7.695243446930519,5.926474558248655,4.430853086908628,15.458982230813898
1570180384685503.0,15.84789580921638,7.831120756979689,5.043175809743279,4.116525193430916,7.582136970387493,5.819932313189259,4.42643357405339,15.459033105990825
1570180384698306.0,16.152859903699394,7.966891976928549,5.13152131471148,4.182781763949173,7.458641906363332,5.7253036968278765,4.419743667348325,15.506652305138859
1570180384698306.0,16.424382219507116,8.084865622081347,5.196072124174289,4.237527881658693,7.342252158336695,5.644121646851126,4.405937516319557,15.585095439445857
1570180384705318.0,16.746328922676412,8.2148789761505,5.276784528916648,4.287871349276279,7.238703984551469,5.570111899551532,4.383253731523788,15.638613095144889
1570180384705318.0,17.023083056904344,8.321048951982068,5.3401736525543395,4.323905688862371,7.141984821230506,5.499432814465697,4.349073191489196,15.605244260932846
1570180384721192.0,17.351472728371935,8.435680042207398,5.41983509349653,4.347139186773662,7.0436891810055835,5.428727650874519,4.317165242901265,15.542819044792497
1570180384721192.0,17.653834791289917,8.540701903764848,5.4676021489412765,4.344779996867949,6.945648400686382,5.365573295388367,4.284180122973623,15.510232637296536
1570180384723060.0,18.0085832419808,8.664576468424922,5.523724826910174,4.34209560743936,6.858604527605881,5.314186463279247,4.2476462664375925,15.500448350405822
1570180384723060.0,18.316826346002753,8.778841751352635,5.569134070723092,4.330167652784234,6.785896691182405,5.272279507102892,4.205169594792977,15.491477733112434
1570180384744075.0,18.646382042788105,8.914431034220687,5.628548279062671,4.315014360534521,6.726376413946095,5.241492189047189,4.168974452422211,15.514869432788286
1570180384744075.0,18.930964734765613,9.044696095994215,5.659016298939836,4.292995116225216,6.673478624585907,5.223479657549253,4.143656462158117,15.571124858956638
1570180384745995.0,19.241662632795624,9.187500834517058,5.692138444125245,4.280273579670688,6.617443964670764,5.211054061985323,4.128556168496227,15.586240173742942
1570180384745995.0,19.50565982466812,9.315593969773387,5.713554872574562,4.270747879299765,6.545259788885946,5.199746764447005,4.112875366420193,15.520093620007481
1570180384758100.0,19.75912880763356,9.4296933578364,5.750838645595074,4.271775187990993,6.468723224526152,5.191468927835804,4.100707615275369,15.423028473652415
1570180384758100.0,19.87843630177189,9.480673724359844,5.774584061564442,4.273614670196243,6.3920184863247425,5.189778555543323,4.084819240542228,15.34052669016127
1570180384764999.0,19.894777832646366,9.489403934751966,5.801149555046835,4.285889066834372,6.321100044332167,5.195674156497958,4.0622310344336405,15.28490341854079
1570180384764999.0,19.81309701012048,9.4673275890479,5.813806997988421,4.301390246095586,6.260297033345559,5.209824531912342,4.043220817333849,15.20737076527375
1570180384782085.0,19.755125146727778,9.463800398886127,5.832903960184336,4.319050933847174,6.21177904045516,5.2302209832824955,4.038767047362167,15.047227153607198
1570180384782085.0,19.678793356578623,9.465364637021343,5.844487449637451,4.322225978946058,6.167973416675281,5.257790144785212,4.043172882246283,14.858763257402288
1570180384783059.0,19.627140219832434,9.476868151767581,5.857953660490991,4.322021407971331,6.129114558632118,5.294798332310352,4.051352824164944,14.695056393535108
1570180384783059.0,19.587166338420474,9.477311128600066,5.852209979260983,4.319256496669487,6.099234641153033,5.343450851795673,4.053605528380351,14.56788716757414
1570180384803842.0,19.608839388297007,9.459232736290616,5.8153880104147495,4.309689500775041,6.079435259228225,5.396923073054882,4.051097456121906,14.47338208336605
1570180384803842.0,19.624091744188203,9.398431974458706,5.732521209245852,4.279531172610466,6.052695232347979,5.448611684619456,4.045427652873856,14.401942607786957
1570180384803842.0,19.614033565006622,9.314963004240314,5.638786868034528,4.241452987654984,6.02658936169607,5.499582208707248,4.049340368596387,14.346345673231585
1570180384803842.0,19.539663013507774,9.212416171126522,5.5551999962368,4.197608183495668,6.0058115526176445,5.5561875572485375,4.061398394283651,14.311733655376406
1570180384825783.0,19.453749634854127,9.108970030926764,5.47051935928979,4.1523905654441515,5.9875628203936335,5.617093499483469,4.073389388676888,14.290655157538586
1570180384825783.0,19.329920082830487,8.991278381167447,5.367014497983645,4.098749864359963,5.964837521346581,5.669174244803094,4.079264535682364,14.243342826675432
1570180384826779.0,19.169399532250694,8.85787054292853,5.253426013973994,4.047139535819037,5.9331948912256385,5.698909512150466,4.078233426211642,14.11326111881898
1570180384826779.0,18.961454193029667,8.711418130914323,5.144081695068879,4.0016006957995955,5.875986013298303,5.702419253979778,4.071371988865668,13.957648295472874
1570180384840749.0,18.787189658931137,8.586733335055266,5.0394554329016605,3.9626256167811538,5.7920729290860224,5.686266729258364,4.064675854718741,13.819948235218165
1570180384840749.0,18.62439567088433,8.478512037805707,4.945247856776198,3.9207425037606067,5.687445340928085,5.668887783705363,4.051939085297909,13.690299600604902
1570180384841739.0,18.418423458766373,8.370893950395349,4.860447071406965,3.885112010877984,5.585771692377441,5.6565068426470155,4.0336017795021215,13.564460127172023
1570180384841739.0,18.177374362722293,8.259119219750897,4.787521821481684,3.8513908038932536,5.4875788758166495,5.6460793464055,4.0214491915500945,13.44824280930776
1570180384863817.0,17.94312310323029,8.133050263008446,4.705370502702667,3.8089489666236953,5.398001298572986,5.639831095075731,4.011570378511235,13.314644076737295
1570180384863817.0,17.675318180538444,7.968154079684496,4.609194777777648,3.751799437835794,5.314705930136508,5.645766032472994,3.9871089881299344,13.186656475008583
1570180384863817.0,17.394709368504543,7.786433728164744,4.507112783978496,3.695364059852745,5.238562390118835,5.664821165569538,3.954481282832339,13.056251621932061
1570180384863817.0,17.15321694706821,7.618695961186023,4.414335402840698,3.640756335417928,5.161683732719967,5.689392531286651,3.924971946515472,12.909311924954542
1570180384885826.0,16.972676246445864,7.476318994320354,4.328582674421771,3.589935990350136,5.08882726954971,5.716839723006538,3.8964264890490417,12.759601811255095
1570180384885826.0,16.781550171522728,7.338292111291169,4.254456374243958,3.5428664460350663,5.014911798989139,5.752420629159542,3.8668388626092405,12.635235224229216
1570180384886622.0,16.457085054507573,7.169145655352824,4.1798676521512,3.507061825774646,4.951080699557724,5.790672560011808,3.839794397101262,12.51205998883514
1570180384886622.0,16.009025880785856,6.965004886297193,4.107940394934472,3.47862459408574,4.892112301071508,5.813972648821699,3.816845271435787,12.373530620603455
1570180384900589.0,15.527869245454497,6.754875975321431,4.035942258250266,3.4569254481713316,4.835463799077765,5.802071768987247,3.781168732473718,12.164251466513
1570180384900589.0,15.062703467438617,6.560418734825881,3.969647616947232,3.4324631496551983,4.769158801200927,5.765717716707524,3.721545664910851,11.892921131043368
1570180384901580.0,14.616787869098468,6.385221738989682,3.9104877316702433,3.4086573668157354,4.694903775474293,5.732174931554366,3.654278739512497,11.594436773316291
1570180384901580.0,14.191447705239048,6.220825419681141,3.8626348565307715,3.3882774995082974,4.61276607370414,5.713949486432365,3.595014389663279,11.309258695865132
1570180384923525.0,13.76307361882122,6.056629558115227,3.8187625619499577,3.3765975927331713,4.533764769545923,5.711299430676934,3.54404385152219,11.031884671157835
1570180384923525.0,13.36437068895451,5.896699868980959,3.777297094117544,3.3658618030187037,4.454495263181305,5.720264549162544,3.5015477839819336,10.76437986270229
1570180384923525.0,12.986637362807553,5.738641143742935,3.7370441335842504,3.357246758281766,4.379175691262276,5.736907007067469,3.4646268770238704,10.493336574344243
1570180384923525.0,12.612806570263869,5.577674846189423,3.6943246802001926,3.3436423249017424,4.298849887404346,5.7557269665740165,3.4315288738915517,10.233216946088199
1570180384937715.0,12.22635236079398,5.4161478379473245,3.649470130705996,3.3321990117111264,4.216246639557403,5.7739068056132625,3.394235730036467,9.95714162532859
1570180384937715.0,11.85835883214538,5.26336747662588,3.6117441149536913,3.3287668392697682,4.134941966104152,5.80254502661613,3.350323451375048,9.67926219026699
1570180384953739.0,11.513479110475489,5.1247627286331845,3.585989695997091,3.3427876010273976,4.064701477972732,5.8486247924412185,3.2990450188606086,9.404384252091203
1570180384953739.0,11.211370805678957,5.0025509885064885,3.5665214354968446,3.3673943357365133,3.9991621145134224,5.911464523094143,3.243995120767137,9.137951815148229
1570180384960428.0,10.933301434231703,4.896611798990455,3.559346803753484,3.404529030341334,3.94194962805953,5.986591781233753,3.1876410760246983,8.854468297739967
1570180384960428.0,10.671709301109642,4.800040028377281,3.5603354724894194,3.4469406961367692,3.890743247513257,6.07408421983671,3.131307300429541,8.569571486383989
1570180384962033.0,10.389195171912322,4.703480956003982,3.572343681933305,3.499479083570199,3.8499131141300724,6.17518623313619,3.0703785931059424,8.283839167070637
1570180384962033.0,10.097322281463008,4.606375485553645,3.588826323749773,3.559182979227186,3.8180179291833687,6.287838451727822,3.007254960535337,8.014558731820097
1570180384983365.0,9.814849240042157,4.523079518293478,3.621702852311459,3.6331699654485217,3.796833777706923,6.405177164875915,2.948376238231742,7.746943354802963
1570180384983365.0,9.56336582033469,4.459391092412746,3.6601254290708183,3.713806736700237,3.7832982970759828,6.527239142528826,2.8994348280737956,7.495245738722831
1570180384984360.0,9.328469846586199,4.4183821894601785,3.711447651541065,3.802887145173309,3.778138491506937,6.658874962835865,2.8577935796304086,7.252690669859571
1570180384984360.0,9.12010646357319,4.393972925129845,3.7681737035175575,3.892790658849131,3.7798809555122173,6.79754634629871,2.819425745204129,7.0271364366306655
1570180384997512.0,8.934564559306759,4.386457097500395,3.844181354580701,3.99151869419836,3.7925924423285657,6.935393415349542,2.7810677543414055,6.793657564944814
1570180384997512.0,8.777102442866878,4.391152237798954,3.925048627450259,4.09554800936689,3.8177624594013024,7.071782420252253,2.745262019723499,6.565312050227621
1570180385005355.0,8.644846505399812,4.413082943380566,4.022692928790517,4.210019881187119,3.8546450961299144,7.204692936950343,2.712296306205421,6.34058080033255
1570180385005355.0,8.545393808285944,4.4456412449619105,4.124008230118764,4.327095443842516,3.90106146717092,7.3389879980312225,2.682662458921112,6.131601086978701
1570180385021528.0,8.464127448141143,4.4922049981301795,4.24297366754149,4.451020979582361,3.9555050588561826,7.484823021311729,2.6558276145319235,5.926165177356513
1570180385021528.0,8.390105343435055,4.542792773674936,4.36171487280041,4.57333795030261,4.018230752262712,7.644936993106748,2.63004640717936,5.733791626182974
1570180385021528.0,8.331063174860875,4.594740621325263,4.487502267283782,4.689900596930302,4.081217914882005,7.812854649537287,2.6028991646120243,5.543193468224051
1570180385021528.0,8.288274116380903,4.637020915576076,4.603857058776265,4.795839379033215,4.139861758333812,7.981354054620241,2.5744034870441497,5.363385233446477
1570180385043421.0,8.268639268852114,4.684890505745098,4.725999738731424,4.904531754552353,4.199463840690308,8.146820269674423,2.540366390592523,5.185919629642435
1570180385043421.0,8.268565847960843,4.731051271960336,4.833509840044161,5.003702308907904,4.260977557614625,8.319155955056416,2.498715887448938,5.01877039610834
1570180385044208.0,8.259788561263273,4.771206388980498,4.937511964465116,5.096078656459981,4.321633466787496,8.507542747144576,2.455523909356174,4.8541212854353795
1570180385044208.0,8.220672678474605,4.796789475752059,5.028437979876873,5.183782481140108,4.385604256389448,8.71299803084177,2.4166869349259725,4.705693101934852
1570180385057383.0,8.18123866791767,4.81913152789117,5.11480547345143,5.265786643881098,4.444779133150196,8.930866715258334,2.3845105392366297,4.569425406744243
1570180385057383.0,8.149428028384383,4.830092220945415,5.182754915195547,5.334712865994164,4.498388806854793,9.15646392559624,2.356400375977975,4.452556151793035
1570180385065455.0,8.13748201613475,4.84255735151974,5.2506860939742825,5.401293122279936,4.5555405954708394,9.387043504173741,2.3311434958477024,4.34982671826097
1570180385065455.0,8.1412984076696,4.856731116006313,5.312362359406984,5.459267210395472,4.620895761212102,9.624192278786932,2.3101138325874504,4.268499793301729
1570180385081472.0,8.169059835868891,4.881259048594428,5.371467113834577,5.507855697810373,4.687211323812212,9.870299218922378,2.2972306850307604,4.207069381494691
1570180385081472.0,8.209788055478498,4.906346156002927,5.421505450986701,5.548196975793068,4.746191436571031,10.127543673866274,2.2896995399344293,4.171519827100854
1570180385081472.0,8.273983665906592,4.93720685936126,5.47128831392685,5.590731769209349,4.793983693593103,10.390238000780288,2.285956172526632,4.159507088752291
1570180385081472.0,8.343291569677572,4.968303911808979,5.509173469703269,5.643724183582826,4.842886013292926,10.655608905898184,2.2846142834745207,4.169007211397899
1570180385103045.0,8.412124984451227,5.010795235880252,5.546265880984772,5.707819077963843,4.897703226786749,10.923788971576986,2.2895599410510936,4.192578302683251
1570180385103045.0,8.470744389856995,5.060748022712663,5.585991712937636,5.771057135852535,4.956387713714884,11.184910932982344,2.299116866255592,4.231979242081811
1570180385104161.0,8.553322476005574,5.12525626692301,5.638827741362438,5.831715739073196,5.024419713125429,11.42746047366834,2.3129727069904047,4.2887313341816276
1570180385104161.0,8.64835788160357,5.191848178959931,5.6947641957754636,5.878936281723177,5.101305358479686,11.627466209310157,2.3261310525518932,4.361029917388533
1570180385118050.0,8.761057186403422,5.266870306808781,5.751864508509699,5.912890834512268,5.16950404471744,11.756550513784665,2.344253892307915,4.449927999402607
1570180385118050.0,8.858543259256601,5.336226764927121,5.793027553707234,5.934172773341734,5.222512804450412,11.841852910821009,2.3687649353981555,4.546438426651663
1570180385125287.0,8.926566830037578,5.408309039409733,5.8168879081563825,5.950480751223616,5.270436290911132,11.937919336653216,2.400811642175936,4.6473494381535705
1570180385125287.0,8.955091606534268,5.481031968183746,5.831792982720846,5.968361968711106,5.317434236454432,12.061550168538986,2.4331426821930173,4.747551260203315
1570180385141256.0,8.963570960524553,5.544857986649008,5.836646824709831,5.989042385329667,5.3622220719688825,12.201375482313003,2.4628396729156936,4.841613885892259
1570180385141256.0,8.934444321956095,5.5782111897656215,5.828127660987592,6.006284165227371,5.402103771903818,12.362322125056275,2.4851458022943302,4.920436061266082
1570180385141940.0,8.897753836131564,5.600239156465038,5.818555161499841,6.018780622454722,5.425392733385268,12.545943151077978,2.5085868021535656,4.9879285353905445
1570180385141940.0,8.853804006125108,5.612598897602872,5.810901597157864,6.025111054282279,5.430963007955693,12.737938133379314,2.5304297973570034,5.0445238472987395
1570180385163881.0,8.826068252294785,5.636276798254743,5.811769627570632,6.033185692750422,5.439683167929416,12.936645204239458,2.5560919950716117,5.111894658964487
1570180385163881.0,8.807582422889226,5.669933381304746,5.826423727901688,6.051534749826975,5.462584478248033,13.146740714297431,2.5853731433205502,5.194395994363273
1570180385163881.0,8.81188483004441,5.7119228394589925,5.844785849417759,6.078220981086898,5.492130040004962,13.372387699894647,2.620734512312921,5.290364257862023
1570180385163881.0,8.81386462672251,5.748986038597814,5.850391549642345,6.091131594648312,5.504342905248678,13.6228785932228,2.658516596686142,5.392087737498438
1570180385186241.0,8.80471972624297,5.794440271665935,5.839961716537867,6.067294808306426,5.486582841490338,13.89879916144172,2.703229116910856,5.506118899235347
1570180385186241.0,8.776993507616494,5.844550777994783,5.835187140950891,6.015761456137805,5.438664423833705,14.18659099424514,2.7474149603562665,5.62239248524026
1570180385186822.0,8.779608193266597,5.909515285240086,5.846328485483138,5.962969426546473,5.3754621779914835,14.439365148857089,2.7910702717215705,5.742675268251025
1570180385186822.0,8.80669240989159,5.979001333711661,5.871834829147535,5.922250819859716,5.307613270756387,14.608576500459167,2.828012669373374,5.862820194147726
1570180385200828.0,8.853258319339796,6.048093727542186,5.896970670567329,5.89606464842246,5.247412782289684,14.688147803682268,2.859927494136559,5.992899017215937
1570180385200828.0,8.892205927960028,6.105510568843724,5.91438761926229,5.883364315053602,5.195245539358978,14.700502009789256,2.886970253109008,6.125062969154837
1570180385201778.0,8.950192461604477,6.166221552454337,5.928027898895453,5.8812062209471865,5.152719779710006,14.683289709903711,2.9194876881624228,6.263641133717719
1570180385201778.0,9.013584707376117,6.219067086734585,5.9435127552865366,5.879800531352177,5.11196192749132,14.656061289658824,2.951870813417349,6.40587189593351
1570180385222728.0,9.093449004840473,6.270486500609994,5.944304084599487,5.859041214280258,5.075958630826349,14.626579959028616,2.9836196826779826,6.552190918536893
1570180385222728.0,9.175630340266466,6.329132474664745,5.946511442130516,5.82284744013645,5.039809480993132,14.612564029036648,3.014590640102715,6.688118598776527
1570180385223779.0,9.284493083850595,6.411745138549094,5.959741093903045,5.788747159551507,4.995155814730679,14.586841407662513,3.0506304590069533,6.827275276843429
1570180385223779.0,9.401811413381914,6.507398680895554,5.983631140762246,5.765111878980302,4.938507325481253,14.49054508871835,3.0836577168067762,6.9701540600707785
1570180385245979.0,9.540339617037084,6.616847640228025,6.006636667226882,5.746512191429247,4.886822611172635,14.304433365537932,3.1095475264981944,7.121534959157083
1570180385245979.0,9.67815663888001,6.726284236273363,6.028458997628016,5.734195216917185,4.840694101047501,14.04380586548628,3.1224361548915187,7.272474355811144
1570180385246666.0,9.842240546865826,6.843923103995644,6.037769243117728,5.728187754192884,4.80241759248598,13.741330446790464,3.1292849300925,7.431679123180129
1570180385246666.0,10.00967003742935,6.9656534166680855,6.039566220356848,5.720339872569217,4.76384331565937,13.435696890664188,3.1286139412262397,7.597446987593054
1570180385260930.0,10.188453872665121,7.104511666868033,6.040638782017664,5.702340816180721,4.724613958101088,13.141393402915964,3.1324901454937626,7.775518738410623
1570180385260930.0,10.366481638256337,7.252997210866837,6.0578248249417435,5.671103343749407,4.683584572303853,12.852294849043105,3.146328341163632,7.9592168602157125
1570180385261620.0,10.565923545708571,7.412043255628193,6.081971591169588,5.622732948033344,4.6472851368462145,12.55095056255199,3.1723943027254133,8.159456476047229
1570180385261620.0,10.753611998243631,7.568522961611891,6.119046722491216,5.567172936278658,4.606661129553727,12.226696962292582,3.2014405010399005,8.362590582239342
1570180385283629.0,10.952751423573135,7.726038457364489,6.155040709084038,5.505855299621392,4.560483634249209,11.893564873783312,3.2351499599250335,8.568094393173789
1570180385283629.0,11.155779860023827,7.881266947435003,6.182252833932683,5.4453133957688244,4.502908459356063,11.566000901733481,3.273093193965197,8.76980930517744
1570180385283629.0,11.38774674855574,8.044273353702746,6.188650945738931,5.384581477379016,4.435094115352244,11.250013974013024,3.3183718899042196,8.974162038168252
1570180385283629.0,11.629727045253691,8.203811998315174,6.188656225308605,5.320112738816746,4.354421309788929,10.941906711922304,3.362501774813937,9.180539254142765
1570180385306095.0,11.889205067894885,8.349300339560362,6.169601942714962,5.250990431104861,4.2750989057598,10.634940139457996,3.4029328765491416,9.398207705504122
1570180385306095.0,12.136740835064286,8.440216910763452,6.144413662243374,5.183915688832686,4.19928825362855,10.32940069865878,3.431885168862013,9.613354629954602
1570180385306497.0,12.37920799232628,8.473523479281388,6.101973559648787,5.120839831979608,4.134711634460281,10.029016192666296,3.449490082557062,9.810552078887909
1570180385306497.0,12.587805203694208,8.481761704145379,6.060014127565646,5.07096404892953,4.075266817245834,9.73395860775243,3.4547292785265458,9.981400498776116
1570180385320775.0,12.798813523986276,8.502362776533369,6.022730360069821,5.029905341680151,4.0192497071413635,9.44711821007951,3.463785190190782,10.150494130461333
1570180385320775.0,13.015801522443464,8.537829137641976,5.9987325479938685,4.991582510510656,3.9599516501980787,9.174961657569645,3.4801591030758345,10.301124682048023
1570180385321463.0,13.25875963812462,8.596186488413311,5.96667933613679,4.955012309075148,3.905717879809595,8.925112310392016,3.5057480614456553,10.4314713620968
1570180385321463.0,13.493918442493136,8.673144561023856,5.935001850368898,4.927432889714672,3.855411738675406,8.694309577539086,3.538034019540495,10.556844539198982
1570180385343589.0,13.711000745166222,8.768369605599641,5.894125385071638,4.90094512865731,3.8129259625121876,8.472190843691395,3.577626834280585,10.674049464679815
1570180385343589.0,13.881304575224185,8.868801916308676,5.865943919360074,4.877844304118047,3.7744315236171038,8.253629674554068,3.6089356132675405,10.736828172751121
1570180385344399.0,14.03312831946368,8.974831633851753,5.841485631071327,4.862728731125611,3.7435655034855397,8.033571706704722,3.6318444643260888,10.743405150604124
1570180385344399.0,14.185579010911633,9.08873357483642,5.829119446288463,4.855345410761549,3.714333931628693,7.811916248670222,3.657137873605309,10.736975598759228
1570180385365663.0,14.369336436826075,9.206809198761384,5.81042961686229,4.845095478976048,3.6906194301571715,7.595991600328761,3.694603698249752,10.749800171044413
1570180385365663.0,14.553982462034712,9.307227378131131,5.794820010808954,4.833689509100971,3.673322543313438,7.389513149470873,3.7341052580115814,10.771757271877751
1570180385366346.0,14.73599005415304,9.390284624751603,5.7732064446123506,4.819361646578004,3.66445619354452,7.196806362824444,3.771968609269577,10.796554707315916
1570180385366346.0,14.907421759282316,9.469947055050783,5.759606124996329,4.809046065632256,3.653329408521182,7.01747797701069,3.8073018955491666,10.831090516681828
1570180385381313.0,15.080084949035696,9.566148573652574,5.729135192270646,4.805811635959959,3.647557406272322,6.849217247841637,3.8491937365129836,10.882102476202265
1570180385381313.0,15.240839623443811,9.660919124176,5.697963237592427,4.805232151041201,3.6404619949133727,6.690455528681874,3.894934370325506,10.940284442669743
1570180385381313.0,15.395088902191418,9.706172943611376,5.6528087524169965,4.789554107797311,3.6220724135479156,6.536270732177112,3.942557340660125,11.012347752686239
1570180385381313.0,15.533601517792121,9.684991474625301,5.613821493103428,4.7664295811883095,3.598606424909384,6.3814492613042715,3.982736661030396,11.095191319325805
1570180385403509.0,15.679065663899795,9.652199506036663,5.575088260726679,4.747528775846037,3.5854855004285042,6.22833527991822,4.017257278015393,11.187444017661248
1570180385403509.0,15.778291158642979,9.646983737883797,5.55124871055587,4.737177307380179,3.5746395649522316,6.084378532274894,4.046767957384983,11.259139966712915
1570180385404238.0,15.786291632200589,9.644654238568313,5.524395884208896,4.7321236921782575,3.566203218470159,5.956503882705743,4.07512765166324,11.293240274323237
1570180385404238.0,15.750686940115955,9.61680528994919,5.510273499294509,4.737398519098116,3.5598443339911627,5.8454598437094205,4.094337821731728,11.31365508704546
1570180385426229.0,15.739737227932029,9.577086028428116,5.483093153909388,4.746337470233318,3.5610965134894963,5.747090822423008,4.1054211201771915,11.33532806289791
1570180385426229.0,15.746075606075076,9.543730183412858,5.446702175525869,4.751276088688266,3.5607966207232207,5.652774844194726,4.1129074572269495,11.36254338576347
1570180385426229.0,15.752881179924069,9.517103874312893,5.391436282669143,4.7445648499432345,3.550052512366502,5.559241307221421,4.123474079521523,11.417268752537156
1570180385426229.0,15.730539186907144,9.479356512473515,5.34067064256066,4.733325219681788,3.525627787122311,5.466843932780225,4.1363443963972735,11.498523305138523
1570180385441168.0,15.644312757451367,9.407066349406108,5.276796330302013,4.720464526772373,3.50197102506013,5.380285356000443,4.157216336357794,11.568023180025996
1570180385441168.0,15.501315047274067,9.29208256479187,5.2179485948116495,4.712711357945822,3.484986557358457,5.307197213268571,4.183871413543374,11.592371938153377
1570180385441168.0,15.331640930124282,9.138153474644653,5.1416467953745615,4.703516426065221,3.4803593143129286,5.2511348979438415,4.215532846608698,11.593054259782
1570180385441168.0,15.152976716544101,8.975379603876913,5.068227386076041,4.693443339397188,3.4861672218409394,5.205826057278229,4.247425607073833,11.587884606234407
1570180385463411.0,14.990230014954971,8.821193087052682,4.987971789217285,4.681558248426753,3.5008253972926675,5.1615796669150145,4.284165402437729,11.584037477917644
1570180385463411.0,14.865142346918505,8.679950521929452,4.92211294869972,4.667526885861228,3.5115733937071782,5.115960478661119,4.322128513032552,11.594754531170143
1570180385464079.0,14.777021622289261,8.549179055830281,4.850573446530488,4.642465791253761,3.5177014379278293,5.071925464332742,4.360865860201168,11.617826874313982
1570180385464079.0,14.725900373865771,8.431591540078262,4.79196399243002,4.616641380847496,3.5200943546754813,5.0338017457154,4.398566772172313,11.643311744965562
1570180385486018.0,14.718444024950616,8.33351881256432,4.730345397686304,4.593039663201098,3.523143157953618,4.995663039685769,4.427940289384295,11.652720978069102
1570180385486018.0,14.716982985166549,8.252542934171542,4.681580883372145,4.575079426687709,3.5261941193027893,4.943139907932458,4.435093923566529,11.612807443895374
1570180385487017.0,14.638299742094715,8.156515966607598,4.622041663600277,4.556129989973785,3.5270456751158683,4.881227123284223,4.431130111003947,11.531836177551892
1570180385487017.0,14.465301815703329,8.044593471266122,4.569572103472797,4.529892564386436,3.5209207399161664,4.8232788805651765,4.433981614525849,11.42918212818614
1570180385501087.0,14.188980186973955,7.906146957421331,4.5100528549087056,4.4897789460180615,3.513573165870546,4.769682797345223,4.443588575062268,11.309281003952659
1570180385501087.0,13.853200824728493,7.730423967596746,4.462823540948882,4.444488109991995,3.503748031228871,4.714803054822328,4.43963636420529,11.200515635407827
1570180385501982.0,13.509894719723896,7.5270787312241225,4.400682684753759,4.391685813371891,3.4954393792167475,4.658590759439266,4.415448804446278,11.110836494212164
1570180385501982.0,13.173273918219744,7.3138767156298705,4.337982567919775,4.3376662945256905,3.4887613056988154,4.608647959048832,4.380414966593135,11.019133650318091
1570180385522971.0,12.827797030169737,7.094554199251086,4.2622404998875325,4.2828870998286845,3.486130173819044,4.569662554522191,4.354400398974256,10.921529966544265
1570180385522971.0,12.500990747727492,6.884920466357355,4.199297221498538,4.231615338012384,3.4875147407942846,4.5386604157017345,4.343432476360196,10.843600768956092
1570180385523915.0,12.187883444352593,6.675270079607779,4.1304573343988,4.177660485246671,3.4967972254697868,4.513598781610044,4.3441718390340505,10.79315984264888
1570180385523915.0,11.875918148582599,6.46231812575011,4.0735612381870006,4.128977753240857,3.5108603023485982,4.494074490138267,4.346774595935566,10.74994729879667
1570180385546086.0,11.551750975117043,6.2435935748295375,4.010885608202255,4.082365569029373,3.5270040526236994,4.480373377128148,4.350972609982252,10.706626986459636
1570180385546086.0,11.234338140208317,6.033698816007885,3.9589783722663694,4.0313057982304334,3.540615947853862,4.470933056756524,4.362080477965189,10.675549785618818
1570180385546863.0,10.903355665001445,5.829906603133845,3.895082024545379,3.9712756732703256,3.553476709435548,4.471461574711215,4.376384834899678,10.659088748909506
1570180385546863.0,10.578970259280528,5.636529803204733,3.8411789969842713,3.9118218681617822,3.561028356849086,4.486636985129983,4.38396323777133,10.665458517691498
1570180385568215.0,10.265063796507553,5.448095946779859,3.7784347662311344,3.8472785477572926,3.5700752357432703,4.5111701401540305,4.391614990135953,10.692721160231109
1570180385568215.0,9.978099238085303,5.26500901542469,3.7235738116289143,3.784959095568948,3.5849496395279763,4.544625847863176,4.3895928962545465,10.716732631050762
1570180385568797.0,9.706384775496513,5.075598939770512,3.659442526686246,3.721700287401332,3.6034922907815754,4.584592901894739,4.360002158465974,10.73273602983416
1570180385568797.0,9.457084250905803,4.890276354928144,3.60391116157962,3.6547726087022316,3.620065769926879,4.624375331560983,4.313635811785655,10.757189921362343
1570180385582757.0,9.215778899284317,4.7084805660717155,3.53918788871796,3.580720691167493,3.6427579945451103,4.666360192388719,4.273963397287063,10.778080125057638
1570180385582757.0,8.986318307940152,4.5342376075744015,3.487270325893902,3.510371969329213,3.674316459698986,4.713645266609093,4.243652727561611,10.782400328499085
1570180385584041.0,8.759704181635106,4.362722222055883,3.425956855604236,3.440764488183386,3.71316300564731,4.769522833591125,4.218616793622397,10.784096319658879
1570180385584041.0,8.540580310088503,4.199630760941814,3.372314660320945,3.377649371297951,3.754989424106235,4.834587387132711,4.196817864224815,10.77675376999165
1570180385605964.0,8.302908260343687,4.039455672996168,3.311004747279727,3.318923872679636,3.797971105784263,4.9011018904094925,4.174431299065407,10.728270731957155
1570180385605964.0,8.062852735031484,3.8890717737416494,3.2607370093425563,3.266404109511732,3.8448281285274724,4.966538432885968,4.142362383077772,10.661511321498429
1570180385606703.0,7.822643069138657,3.745635226743397,3.2010720775460917,3.2137114287037303,3.90505619752407,5.040861287790281,4.1021117542446435,10.607253180361646
1570180385606703.0,7.5972178874729925,3.6145420565559148,3.1528620706887907,3.167567310148897,3.9779094815633638,5.130800685007247,4.0601042420385,10.562797340642476
1570180385628806.0,7.379795929057084,3.4924413649261945,3.1005710255004324,3.123719671920136,4.063759762290283,5.231127346970826,4.023293197223083,10.512672941970473
1570180385628806.0,7.17875113063983,3.382315739723136,3.061380112701517,3.082916842256479,4.1509021851476025,5.335174475342376,3.993386666111894,10.451538177257639
1570180385628806.0,6.986033411107855,3.2781446344252476,3.012120781371657,3.0384362899227253,4.224109133972356,5.446430857148262,3.9684149337130044,10.384840778956413
1570180385628806.0,6.8143374815255155,3.184920982033606,2.970721018883771,2.991994504658329,4.281117004746812,5.564488565741481,3.947690431807945,10.327610580997401
1570180385643804.0,6.661025186080175,3.1035517056570185,2.9242247951444074,2.9423146110267266,4.326416333665648,5.670919619322924,3.929974562747902,10.285335577272377
1570180385643804.0,6.528673407077978,3.0380645137806748,2.8907527125193546,2.896736368528573,4.3542295720120725,5.7400384548159895,3.8959352023513754,10.251583674855976
1570180385643804.0,6.415437164331679,2.9827961637354696,2.8471465438064327,2.8485215799976955,4.362826897958586,5.7482063713623806,3.829803334093955,10.191727461898676
1570180385643804.0,6.3314337617494525,2.9359525359490166,2.806708658949637,2.8007857447037683,4.347331351030592,5.7030534021266055,3.749677636818498,10.101411699585807
1570180385665985.0,6.273511648853405,2.8991041983785704,2.754720539889166,2.749901244056557,4.31982606092076,5.642860279914741,3.6745699650570605,10.012170853214853
1570180385665985.0,6.233275793106739,2.875619012064258,2.7127883648483615,2.7005350084658164,4.285064810026164,5.589630834883458,3.6046186979206145,9.938182113878982
1570180385666542.0,6.203734435512101,2.8611188266356677,2.664510888989419,2.6491239981555936,4.239960935897054,5.543163228875026,3.5438828692972484,9.873189085396778
1570180385666542.0,6.191520131697665,2.8556012954915286,2.6266591509733264,2.598830728917824,4.179832719084729,5.499412287298887,3.494642569571357,9.811673694025064
1570180385688605.0,6.189564774724887,2.862810537969448,2.57938164118795,2.5469324807566696,4.117647862131618,5.460943152166092,3.453927894656108,9.724657118676962
1570180385688605.0,6.187312699378573,2.880632439776302,2.5386951552506294,2.498575385230971,4.055149958313127,5.43110488056638,3.4203178250225528,9.6177868487968
1570180385689476.0,6.200031416526662,2.911724551449566,2.487798851479082,2.4495131075885217,3.994406377697166,5.411141774858973,3.395985217298575,9.521545903850441
1570180385689476.0,6.224340449852945,2.9545198304294313,2.443929696184927,2.4051277849186445,3.9355715599076366,5.406469620925013,3.3788900441793737,9.450550096219589
1570180385703634.0,6.248546251132753,3.010039842334819,2.3937460452005834,2.361649634118542,3.8844796459843756,5.418762780411329,3.3651976004397723,9.38606091661489
1570180385703634.0,6.272076332771342,3.075818264503854,2.356717689871125,2.3226196358920292,3.838358203659947,5.441894546717839,3.3494016886037152,9.318043814447146
1570180385704439.0,6.3175494611306995,3.152648180605257,2.3152291790776234,2.28495490214732,3.8023481322599793,5.470854429157921,3.3318724722351236,9.253428768028968
1570180385704439.0,6.3768607474139145,3.233045978929863,2.2812133717763006,2.2514405427465314,3.769618882858605,5.504267691262529,3.318224027811239,9.195336930568086
1570180385725424.0,6.452922386581159,3.3234225827564083,2.2398497026132738,2.218556907711506,3.73910830803615,5.5451721376952445,3.312560497154332,9.135562154995448
1570180385725424.0,6.537673518610453,3.422436508310895,2.2086690581225223,2.191258905507911,3.7095561500370096,5.5974563243494,3.313491002383627,9.068511756284511
1570180385726373.0,6.640486842816387,3.531880609002477,2.1730937305427203,2.1680153426970517,3.690464505850856,5.660228442458123,3.321036035035143,8.976774242525751
1570180385726373.0,6.756101813869676,3.6450047522836795,2.1484566378905914,2.1534591723741325,3.674639504766933,5.719527841690536,3.3282271913069765,8.867333642731088
1570180385748315.0,6.89567730924848,3.76601440664267,2.117460259068185,2.13966127715289,3.6524471190498216,5.759405715122645,3.325394872688236,8.745668093906058
1570180385748315.0,7.0506958026637525,3.889762909007595,2.095436948361202,2.126572578238896,3.6240346652017013,5.781468109846315,3.3088183643778297,8.62360236719631
1570180385749316.0,7.235966480692256,4.0236952815573686,2.07227591684838,2.1128808811759483,3.6055998798433486,5.791592252085389,3.288198088606758,8.509354159455357
1570180385749316.0,7.4340985665360195,4.164658367753184,2.0618951397678247,2.1062438171088,3.5925901370869537,5.798850272441817,3.274124380056754,8.404492579562541
1570180385762278.0,7.660079150195726,4.320780959494651,2.04878176734026,2.1048954743626043,3.5803245425648713,5.812983874000033,3.2677151469725154,8.314206865331384
1570180385762278.0,7.899222515949217,4.486912982913084,2.0433831172413215,2.1083249486751465,3.5636486673254018,5.835578419806797,3.2626936779108773,8.245814341737265
1570180385770256.0,8.161687790323118,4.666031768882737,2.0348680268650736,2.113169714314528,3.554893828120031,5.854361427143791,3.2605057433922173,8.187590539676918
1570180385770256.0,8.435240111678857,4.847941026510911,2.0350864920833294,2.123448588563341,3.544724068444164,5.846507825604381,3.2606849004654133,8.1434895485417
1570180385786221.0,8.737459349090766,5.035944706645238,2.0283450551085016,2.1313704504188196,3.5190911477640583,5.798994197053474,3.262014457789916,8.114633615973608
1570180385786221.0,9.052051135453759,5.225890931372004,2.0252308262237038,2.136736503625884,3.478955526246252,5.705417619896042,3.261054307227342,8.101431707704723
1570180385786484.0,9.390193210089928,5.4271165623453665,2.0160871836947534,2.1382941757269163,3.4374844574753607,5.581535785941621,3.263087658562338,8.10659729950746
1570180385786484.0,9.72856824794008,5.628895259056514,2.0122608500756414,2.140065208691849,3.3908393980793035,5.451487975848052,3.2708818376530506,8.12979219211752
1570180385808155.0,10.081802998407955,5.83576726291652,2.002424322338345,2.140177911555567,3.3473905250539238,5.320820750666105,3.2815811088607663,8.153765606214105
1570180385808155.0,10.440016948736702,6.048879546699462,1.9995643742926796,2.142530123788908,3.307069700397139,5.1918624042878045,3.291047684326299,8.167466841409865
1570180385809154.0,10.82541575958947,6.27662934140381,1.995439386291473,2.142711751623315,3.272431806075301,5.071500265027552,3.305720393706105,8.17393967418646
1570180385809154.0,11.219862057581441,6.511348686207237,1.9977398668708781,2.1426577282060726,3.2335714753303493,4.9639959438125665,3.326999245915088,8.185937139836804
1570180385822123.0,11.635485808381933,6.758315260516464,1.9979280463684144,2.1395303974066873,3.1905697090122067,4.8640491379510085,3.3544099889578023,8.206681471152876
1570180385822123.0,12.055970208715651,7.009011477016257,2.0054155005721364,2.1352054936975398,3.1429057325848238,4.765736987332768,3.3850306760791327,8.241113782277392
1570180385831127.0,12.498797822312504,7.26870517837225,2.010888704629724,2.1283971866993547,3.1004506126452904,4.671308223302557,3.4180864784758906,8.281742824242524
1570180385831127.0,12.953587852256426,7.534836616458641,2.0220642070451587,2.1227408993033743,3.061916811877236,4.579991937019667,3.4506606590186206,8.325561104491191
1570180385846103.0,13.438051260577048,7.81663936218956,2.0319986847074176,2.114386621846878,3.026856981903363,4.491677168926428,3.485511580271189,8.384194732177074
1570180385846103.0,13.932684488389297,8.107559481635553,2.051112134122151,2.1062551018879523,2.98744441439933,4.41039124566088,3.518852226761575,8.473576825017181
1570180385846103.0,14.45235095325379,8.408998164283313,2.07412460760132,2.0970942674957755,2.947550539886682,4.337533163334449,3.5527443852905476,8.590759651922141
1570180385846103.0,14.982869170855281,8.712924690129256,2.1054228200478953,2.0891501333877267,2.9015040652455903,4.2733929998252655,3.5878397150602614,8.728050054409971
1570180385868095.0,15.538443749549032,9.027561216252659,2.1413186425064725,2.0794963720558473,2.852469807767513,4.219518931147495,3.627420624208645,8.876161722777882
1570180385868095.0,16.101636415482574,9.34783932343007,2.1863564231054324,2.070279565642704,2.8007129529085852,4.171131796777347,3.674385527370188,9.005301882524684
1570180385868999.0,16.675555008521165,9.680734717877822,2.231093535349823,2.056366910744002,2.7526203996642455,4.121781905559485,3.7294932621528996,9.075255048985085
1570180385868999.0,17.236593902431924,10.026164260343293,2.281579824307451,2.0426227584959764,2.7049661939226683,4.072533240902979,3.783020132567602,9.089198696227287
1570180385882955.0,17.810678519757417,10.387535526390177,2.3349799110377356,2.0302472814199612,2.66182134005427,4.0260288668902495,3.8343995273267377,9.0717436425868
1570180385882955.0,18.39231832551403,10.756922420642931,2.39470255260564,2.02057036096274,2.617106397962231,3.979262916021146,3.8857774348761382,9.042432009959727
1570180385890933.0,18.98750468598573,11.139616130995076,2.455213007651282,2.007813042011548,2.5745775250874385,3.931066045009504,3.943098747428279,9.012903695191513
1570180385890933.0,19.592947983615502,11.530007224180107,2.517864604586282,1.9955042271302397,2.5315451584679165,3.8836335327621905,4.006565812574498,9.00030008173775
1570180385905956.0,20.23951180043119,11.933642340332694,2.5808448528613988,1.9851947152788976,2.4921874757755442,3.84101369165355,4.07774643695934,9.009968218590501
1570180385905956.0,20.920799173064413,12.347813875820425,2.651742738726259,1.9791578259563,2.451889971602504,3.807510630127859,4.153146506470251,9.033833986482415
1570180385906891.0,21.622922802207437,12.759968873359037,2.729276046597143,1.9732511411848397,2.4144105466078027,3.7796602471457272,4.234418107567712,9.060917008140255
1570180385906891.0,22.30457065092455,13.146848186939083,2.8160238661981025,1.971604610152223,2.3780872531230397,3.7515278495219615,4.3188134125447615,9.098973725464104
1570180385928106.0,22.964939512974965,13.515193743704655,2.9106578993728376,1.9728852954001281,2.3438845906030203,3.72314620942122,4.405660006187549,9.155778606753168
1570180385928106.0,23.540356885852596,13.842697265596547,3.0161979024200534,1.9794063648986262,2.3070354706527696,3.6959518423915285,4.491276342284121,9.225000129845034
1570180385928833.0,23.962904585424777,14.105057705441991,3.129031762450236,1.9914942310210706,2.2755787320947096,3.6747793141983047,4.576167729859636,9.285436645305042
1570180385928833.0,24.238735999422822,14.318534021934902,3.2484743539876235,2.0138271053613104,2.249443688879382,3.666638676381101,4.654543386936038,9.346113055129477
1570180385942795.0,24.462879634049322,14.521238002970552,3.360518550091638,2.0425199311698123,2.2311398898762436,3.6710163631654997,4.717290921256133,9.411877482825071
1570180385942795.0,24.719242500448864,14.732254797333061,3.456218721413994,2.0706638321129303,2.217046103868037,3.6828056442803767,4.742785314250229,9.47222718709585
1570180385951046.0,25.03420054880414,14.957720019172866,3.529560483600466,2.0875662659977996,2.2089325169510197,3.7027892717500874,4.728855929835871,9.526851632000483
1570180385951046.0,25.3659901587695,15.20438984339775,3.6025596242386477,2.0993293914062017,2.200542310802931,3.7300984929490473,4.705309057714393,9.590887876536776
1570180385965803.0,25.619692660599426,15.430627177391642,3.6786578997185506,2.1103043407765285,2.1934425074671453,3.7635800815916736,4.693504491012586,9.646480157011244
1570180385965803.0,25.71162540562743,15.525489994019251,3.739926287257732,2.117843775905871,2.1854677055997804,3.8042246186693394,4.687893128139618,9.641115923361113
1570180385966734.0,25.62849905441235,15.448844714896566,3.7622359231170392,2.1134947371672608,2.1798751293744867,3.8510377732470618,4.687602898714511,9.548899641124839
1570180385966734.0,25.412058208141755,15.286363281457346,3.7698211355721454,2.104929735173329,2.176291663684627,3.9069731884044407,4.694643675731175,9.42468030465501
1570180385988672.0,25.17368580779141,15.135927629362342,3.7764734908453432,2.0967645676785076,2.1781192410986048,3.9742064415179055,4.715931168296286,9.306840083774352
1570180385988672.0,24.97083949519284,15.00368172057788,3.7836854026396347,2.088465070021706,2.1823987380460266,4.047850387104709,4.747714102546039,9.186145242850701
1570180385988781.0,24.7221818890753,14.83840190498726,3.7704373856524818,2.07426605569985,2.1912750755279125,4.1200234244815395,4.786333833130187,9.045084012484597
1570180385988781.0,24.401572267867284,14.643370002413695,3.7499213163081624,2.059845253651107,2.1970866922472965,4.18691216873897,4.833007971185385,8.893336113742995
1570180386002701.0,24.052162063204136,14.453874948641218,3.72602385261781,2.046710412197854,2.19648311315888,4.250744016528054,4.889669949373541,8.74339966618305
1570180386002701.0,23.71123171243257,14.274785341633693,3.706935264733608,2.036848063735934,2.192270648635971,4.316008789198395,4.951525977359073,8.605361160214562
1570180386010712.0,23.378357211110195,14.097355765436411,3.678387511556347,2.0262943289034503,2.192819802737339,4.362976299056682,5.019053665547688,8.475524962049056
1570180386010712.0,23.07210910606749,13.940348613294045,3.6525049388311643,2.0155845765374067,2.19567442507623,4.369614369899876,5.090208989806311,8.359945502686559
1570180386026130.0,22.796704953309728,13.801757333239811,3.620667724744675,2.003338298267874,2.1998525850253805,4.357891397618337,5.158072621091844,8.250405239074938
1570180386026130.0,22.539963618504117,13.650612492472229,3.5902543532276328,1.9942093238059015,2.203862016326782,4.352411577672518,5.217630588006976,8.141419717643837
1570180386026680.0,22.267338076419527,13.46665341414104,3.5517005695031907,1.9842072211393214,2.2116994754606027,4.3578059416368475,5.269739987281672,8.035284070936818
1570180386026680.0,22.017084475219843,13.293097183085475,3.5232922873548325,1.973000578593496,2.21571301037699,4.371648744599084,5.305581348722802,7.94883644442315
1570180386048515.0,21.77872003299076,13.145248747008106,3.49557096797784,1.95617459252669,2.2095539696574398,4.389111331714555,5.302035282396119,7.866060774188281
1570180386048515.0,21.494956962536556,12.975341499912425,3.467192625703496,1.934263559980978,2.1951515269246027,4.415228111814519,5.253370108098467,7.758533275439214
1570180386048948.0,21.122038311500685,12.748900446629618,3.418265171117765,1.9087755410873313,2.184815358479244,4.4512263532288125,5.198351368492015,7.615319811256371
1570180386048948.0,20.701853403466288,12.494541665976323,3.3656950153133898,1.8872081713675197,2.17953145803265,4.476666652201053,5.150513992356619,7.457570103420574
1570180386062483.0,20.260159328868053,12.236404626256137,3.3064581137000664,1.867441584073894,2.1740996591908286,4.47104464657763,5.095363708630643,7.29735348402494
1570180386062483.0,19.81631051021697,11.987559297316057,3.2546552610739132,1.8504101597835845,2.1627450102671792,4.440980805761384,5.037782176550976,7.146967883424571
1570180386070454.0,19.340375663586862,11.725592256369744,3.195493464079882,1.832673244001365,2.1526370485273283,4.399366086821451,4.988736553530159,7.0004431499798025
1570180386070454.0,18.850882205225883,11.449464015654435,3.1400010724357723,1.8155986226108638,2.1425069374521337,4.352326730994877,4.9449463208303035,6.856995356053444
1570180386085414.0,18.35521300904015,11.171767113878142,3.074309339346647,1.7948454218404402,2.1294586760019527,4.310613021106757,4.901482869523603,6.71513937726604
1570180386085414.0,17.878919260833843,10.904816391759562,3.0107886421126664,1.7732610565349622,2.1145795274765122,4.279311128739008,4.8569600695327395,6.581304565850903
1570180386086411.0,17.403201153297612,10.63951289167272,2.9402635927661853,1.7498716902491944,2.103643523740035,4.254631576423593,4.80545049849647,6.4492433626315036
1570180386086411.0,16.942165871793346,10.38126021837566,2.8778677331629714,1.7263624525940104,2.0918936835079722,4.225919268273194,4.744839628881338,6.325660440015131
1570180386108356.0,16.48647000619001,10.127842617365268,2.811963092673153,1.70277743742237,2.0784243539085945,4.186931220673558,4.685697737611116,6.213223443314608
1570180386108356.0,16.05177505887491,9.886214163558455,2.7563610862027303,1.684385334977235,2.060419477707395,4.141729924671573,4.633355547682509,6.11675096617384
1570180386109434.0,15.621330331715212,9.650928446161753,2.6987811660423064,1.6676371645022348,2.0375404367675496,4.089909199717537,4.579663493024484,6.035871235227483
1570180386109434.0,15.211763783887674,9.426949264747865,2.651526778590474,1.6520587545160201,2.010402462928242,4.036187498968425,4.522418344268506,5.972291017268155
1570180386131344.0,14.811531137384442,9.208519456888068,2.6016346379232616,1.635361796787144,1.9824336156524367,3.991974670055897,4.470253312563245,5.912485752362817
1570180386131344.0,14.438468361082966,8.998252958931607,2.56016238952675,1.6208260144422961,1.9550457458978443,3.958774634896154,4.425881088437633,5.859646662304501
1570180386132294.0,14.06740849123134,8.788733256316835,2.5154241857230226,1.6066281858034814,1.9325549882766848,3.9283741344630387,4.384181639374609,5.818018365911758
1570180386132294.0,13.709269414898047,8.588793865008462,2.4825097916462626,1.5952388227066985,1.9122746022125567,3.891213297088349,4.339053271707668,5.78443176769768
1570180386146304.0,13.354444207937348,8.391575543801729,2.446779127801986,1.5841042408020631,1.8935618290337128,3.8440372769417728,4.289376365733369,5.743631767442297
1570180386146304.0,13.022462182665873,8.199588167214243,2.417467572965022,1.574040375910329,1.8729132627441416,3.7916974508147,4.243934035218978,5.701400844142009
1570180386146304.0,12.685968806203771,8.001159308913524,2.382633975104227,1.562637789807413,1.8518653502187037,3.7430878909362457,4.210588385403027,5.663982030347427
1570180386146304.0,12.357632388164847,7.802261685388323,2.356126509354367,1.551555212184627,1.8324379544749902,3.704801760164212,4.188164049475494,5.640772488490482
1570180386168336.0,12.025813006063453,7.602356332634556,2.326104944823452,1.539476258081076,1.8169843661188516,3.679601447449013,4.175635259948552,5.629389562296975
1570180386168336.0,11.709008930717978,7.409491661138405,2.3030128839378183,1.529098129856746,1.8049313357118821,3.6659633790337396,4.172741665508118,5.6274193515430575
1570180386169193.0,11.392176106015267,7.218102232549244,2.272953329464869,1.5164713886078987,1.7971490596152329,3.65794279216422,4.179481880267897,5.63554588709777
1570180386169193.0,11.090489666136698,7.032516341367165,2.2492402221138823,1.5032603029152216,1.7931690903644493,3.6531394391563716,4.199357333894741,5.662331790700004
1570180386191131.0,10.787876572994787,6.847448484690108,2.2202688988184276,1.488969167528893,1.7925218074435962,3.6555279128554363,4.225843190051784,5.70488019445187
1570180386191131.0,10.50005695331225,6.669823897559246,2.1955901157343516,1.4740638987769394,1.7927816753556465,3.656237281921336,4.231405311452165,5.738220225510066
1570180386192129.0,10.19994499536377,6.491535648227864,2.16445030223935,1.4588225635528334,1.7940708781656465,3.6449176460780963,4.20776762917554,5.728638576511684
1570180386192129.0,9.901766989460606,6.31832917922217,2.1414073224554753,1.4477529904698843,1.7972775859744063,3.628237856165832,4.1816024532949205,5.698343009826356
1570180386206097.0,9.59756114960768,6.1438245814867285,2.114158549049964,1.4369556782136552,1.799369546121386,3.6092156015221457,4.163118614252164,5.671384979880291
1570180386206097.0,9.307275000352444,5.975770638176727,2.092752848700459,1.4265552864668922,1.7996294444253826,3.5878066787265275,4.136253868901912,5.633473400963942
1570180386206097.0,9.008779909462055,5.809397577814219,2.065619962073845,1.414370178900024,1.8030569678366766,3.567963130994876,4.097278741010383,5.5595499697183755
1570180386206097.0,8.718910598797397,5.648750899474168,2.044822293382965,1.402687028574281,1.8109077882871272,3.5476272669987456,4.052884794386791,5.4656543350688604
1570180386228351.0,8.427266028866644,5.486311932653697,2.0182719576298487,1.3903096742300136,1.8207683621937445,3.5217524251315835,4.0058579708746604,5.372107807460743
1570180386228351.0,8.153889013287744,5.328750162474893,1.9984262918531035,1.3775451215250307,1.8343403476665316,3.489367177063019,3.961890734464829,5.283235748406012
1570180386229039.0,7.882636144446676,5.1721799877883035,1.9746229226168186,1.3632702333907663,1.8506736329379943,3.451520491236794,3.9197796483059126,5.189959955105982
1570180386229039.0,7.629249981608343,5.024914616564841,1.958644736342377,1.3499837053742338,1.8685771759915633,3.4084530873089935,3.869458056363733,5.097544708508671
1570180386252009.0,7.376755928037212,4.879189394305923,1.9367130017043312,1.3371966424997435,1.886438500940742,3.3646556526268876,3.8130409340465192,5.011839770980243
1570180386252009.0,7.1431862949898965,4.739210222037055,1.9175815701697618,1.3287034673548876,1.906718610483612,3.326629624406446,3.7633613755761415,4.9299890751050555
1570180386252009.0,6.9114786247868825,4.599558887677489,1.8910210704510078,1.3245556583192202,1.929267442797743,3.2978217848661324,3.723289026014011,4.8388913705821315
1570180386252009.0,6.695067178109448,4.4660893659323255,1.868016392825906,1.3229156820788976,1.955569656134521,3.2817106979509196,3.6886260243492903,4.747231434921931
1570180386266072.0,6.476188432797172,4.331504045428772,1.8381450308568152,1.3176269688748954,1.985315221566435,3.2802771031721307,3.659458180121428,4.662346575980819
1570180386266072.0,6.271169500268042,4.202557248217808,1.815174825175613,1.310194659710132,2.0199162910050057,3.293424291443133,3.631530259239158,4.590164026379207
1570180386266931.0,6.0665773903600915,4.073051630119845,1.786665368209251,1.3036951861456747,2.0580846619714013,3.321702587951437,3.605656121474928,4.52651148651207
1570180386266931.0,5.87454486355051,3.9476903471771894,1.7605632189687146,1.2999507663810428,2.1034110962273718,3.363866357704768,3.588723397269205,4.46977417431625
1570180386288043.0,5.677009008498084,3.8208840015043504,1.7266452236576293,1.2971652345528235,2.1531151086131084,3.413455392011331,3.583433722897236,4.422184892778958
1570180386288043.0,5.4936149120006235,3.698486762578684,1.698643114618865,1.296135986914982,2.2070248147912443,3.464328912616628,3.58170235901239,4.383505291334276
1570180386289049.0,5.312185249355829,3.574666303043835,1.6662347793875394,1.2970554846873126,2.262557445098439,3.5196268718197854,3.579333561761529,4.343884970440192
1570180386289049.0,5.145534405809647,3.4568940159636425,1.6391702041661511,1.3029790797686442,2.3222368277812357,3.585232661857639,3.585957927478717,4.306883055645126
1570180386311853.0,4.980211205445327,3.3399919724829648,1.6061878310999416,1.3128836544173015,2.384287035559518,3.6598529587601583,3.607072465551647,4.280661069396509
1570180386311853.0,4.834028519786539,3.228871125811889,1.5778710580192046,1.3242084277365025,2.45252685471329,3.7429508280097195,3.6382910225395255,4.269815607190436
1570180386311853.0,4.694695084205857,3.1174453578507424,1.545970901366495,1.3362344773747064,2.5265047894224715,3.836159480912209,3.6792745747772466,4.2648971154641675
1570180386311853.0,4.573873033118406,3.0112798333809794,1.5218040224805232,1.351365073030127,2.6096874041447142,3.938658903826395,3.7281146708812836,4.260599067904846
1570180386325772.0,4.460175055303354,2.9049180010046634,1.4929365199978348,1.3705577518437229,2.6979981074034836,4.049413929003564,3.7867483344323727,4.261436129337819
1570180386325772.0,4.367905642317783,2.8032515025041365,1.4696330626881746,1.3930936016846034,2.7905907546208053,4.169567046179075,3.8534128795569367,4.2749038059414435
1570180386326776.0,4.280705295062773,2.698988288745693,1.445310119592582,1.4178719480494903,2.8841823867961236,4.2994346506331995,3.926554673810624,4.302162043942704
1570180386326776.0,4.201726799501078,2.5986516905474666,1.4296001451324738,1.4449663869615874,2.9829132667217517,4.439504668908653,4.00886262379238,4.344908473057131
1570180386348714.0,4.1179511941822975,2.5002572286609936,1.4106429700461058,1.4755372621359633,3.083873109273358,4.589321158071334,4.103141771876798,4.4050511597777495
1570180386348714.0,4.038690059363683,2.4112653814077083,1.3980588639780758,1.5115459925307138,3.1893828541685347,4.746470117358354,4.206582043600388,4.479403491257761
1570180386348714.0,3.955294840662307,2.3281466990002513,1.3863009823083103,1.554070419284369,3.2983883560545397,4.906292637171095,4.320573285693671,4.560676990629362
1570180386348714.0,3.8834685679474523,2.255087433737486,1.383998876360695,1.6016298644925926,3.414305008784841,5.06617327573979,4.440724194299713,4.648637981734193
1570180386371854.0,3.823122315315127,2.1837678153360898,1.3801424391968136,1.652342361417911,3.535346285480911,5.230832761849782,4.56551118122622,4.746553927175556
1570180386371854.0,3.7850155393997422,2.117161463764475,1.380730184735253,1.7028553897772871,3.6638999412121582,5.405772204746604,4.69271369570779,4.854752699002901
1570180386372648.0,3.7631312583465952,2.0538480163270236,1.3772756266290676,1.7509454818707089,3.793725045933076,5.587562279024001,4.820881788227906,4.971442038513505
1570180386372648.0,3.765329214184306,1.9994070040310703,1.3774395145634022,1.7977852982343114,3.9255115474782385,5.772230936785457,4.948842849023376,5.09329730791146
1570180386385766.0,3.7868840542037603,1.947954704193557,1.376071411908304,1.8468793372213281,4.060787013749134,5.9591355285047225,5.079444197399122,5.226276921811141
1570180386385766.0,3.828574396783223,1.9028735886312262,1.3817799641173558,1.8986905724232874,4.204420756819354,6.132951924369284,5.205910969838936,5.372681197903443
1570180386386892.0,3.8856302735151607,1.8604761305243842,1.3839621266884776,1.9515373468044352,4.348965420693581,6.2663300658287735,5.306686379525733,5.5255455420795325
1570180386386892.0,3.957520951596878,1.8251111219068497,1.3838268299665577,2.001465358847767,4.496076768915181,6.368038270714892,5.374298595476985,5.677926327549292
1570180386408927.0,4.039798988360377,1.7945728227644324,1.3766566104293654,2.049583422985318,4.650099116515058,6.473576538725548,5.434944123986289,5.833039302891358
1570180386408927.0,4.132267494274141,1.7715812403370115,1.3728269177087733,2.099734085481476,4.810518723143123,6.5862228384521275,5.4937297771851785,5.982703987968731
1570180386408927.0,4.229842752715562,1.7573567437896753,1.368422043340193,2.1540832443879623,4.969208635334872,6.697533979372952,5.546813395084279,6.100536514783927
1570180386408927.0,4.319282983712538,1.756636031303094,1.3696590455990971,2.2102835137595487,5.132388604795816,6.817941462530732,5.605976825638221,6.1591449399350475
1570180386431790.0,4.401660962227855,1.766509412593138,1.3726218078363923,2.266038334349501,5.302224102508888,6.9509732816185394,5.674030561770216,6.1704952584616
1570180386431790.0,4.489477487581264,1.786062498024268,1.382478532693386,2.3195541143139184,5.474836515540432,7.07512778589525,5.742821071276972,6.176732882541057
1570180386432556.0,4.589851872146323,1.8131030783696132,1.392367739709066,2.3706494932311264,5.644851574893346,7.166626054439343,5.809208270980722,6.19578079504628
1570180386432556.0,4.702348062520317,1.850181464195653,1.4066276160503692,2.423427031694017,5.818864960323281,7.23577944384917,5.874322366097191,6.219757592485665
1570180386445457.0,4.832329086792057,1.9004683659752426,1.4208019028473506,2.482030875237886,5.993172001063352,7.293519551099267,5.949950669701349,6.241055823080386
1570180386445457.0,4.974005296970505,1.9644266665655317,1.440949521751945,2.54454963558488,6.156924479076857,7.329957294451535,6.038508388623406,6.262645270097956
1570180386446450.0,5.127170705913672,2.040809376356183,1.4642166615877532,2.6096651760483023,6.305167873307761,7.3553064976333,6.134345480425952,6.289486624384157
1570180386446450.0,5.281721964498905,2.125887002904869,1.4915338073586228,2.679947491807482,6.450544670455607,7.387315196934542,6.2375017795669,6.307874703009812
1570180386468393.0,5.435957734438536,2.2204434081582223,1.5173057373684948,2.750658156945193,6.5847270895777195,7.423802349357216,6.342018260950521,6.308220380537959
1570180386468393.0,5.585595605190034,2.3230660131524883,1.544430542511358,2.811657406418023,6.693791484966839,7.4644092529906505,6.420228303118845,6.300186842474708
1570180386469387.0,5.745036736249688,2.432457644644694,1.5713601427545947,2.8592922707480897,6.768373595520094,7.496740897430414,6.4577275324888825,6.2982990613844985
1570180386469387.0,5.913076768259354,2.544916119229076,1.5951009335082524,2.8849167039022876,6.785485246239629,7.496874223779645,6.466977382311812,6.304917301532818
1570180386491400.0,6.082522265027099,2.663755522945719,1.6057362264848296,2.8859687920441517,6.759355383877719,7.4699920204590455,6.461189681294105,6.297554089966863
1570180386491400.0,6.238788017177119,2.7882283913386563,1.6128424747108983,2.878567529968323,6.716880654761966,7.434008501910237,6.443364218773601,6.266696868284617
1570180386492384.0,6.3974387415433,2.919036541057501,1.6163537274568145,2.866265877314057,6.650364288808795,7.382306085299134,6.411705665536088,6.235005400772736
1570180386492384.0,6.557689352741786,3.0484054302840407,1.6158433893543613,2.84100812117271,6.5540924094064765,7.290070255923619,6.37390578002277,6.212955389516118
1570180386506292.0,6.725649709566526,3.177816419957936,1.613256901774962,2.8032048785986943,6.44410407726263,7.1653741894460445,6.338862374472632,6.195475919069316
1570180386506292.0,6.89622919358505,3.3073537376012534,1.6158513043613432,2.7639606709712505,6.335003725147305,7.046487114564024,6.307363125861742,6.184942093866953
1570180386506360.0,7.067515771033771,3.437797480188504,1.619118296326262,2.727377495698889,6.229989545386191,6.949614380650642,6.281848647511962,6.170717873293342
1570180386506360.0,7.234327429343889,3.5689257422728313,1.6271596388788894,2.694167359191244,6.122654892260311,6.874038290857092,6.265111259029681,6.135653024416681
1570180386528229.0,7.416759999869457,3.709161138983588,1.6359478097459954,2.662740368521566,6.013858507836201,6.810516424552698,6.251093035871506,6.085934769436869
1570180386528229.0,7.612932108879153,3.8553750625336285,1.6440464673085635,2.6323082743906143,5.906719045884958,6.744731266446077,6.229700359139912,6.040232403776418
1570180386529227.0,7.8225867602977495,4.004300519639331,1.647284310969987,2.600146682940392,5.802397732606721,6.678467276288758,6.196186880630175,6.010637842495468
1570180386529227.0,8.039769126755896,4.1509421256345505,1.6485861981836,2.5673683906039244,5.693102480599286,6.617540495682431,6.145885685564884,5.997134229401042
1570180386551294.0,8.279420072170579,4.302957740322417,1.649244496688151,2.535296899943503,5.588250715831863,6.560322518589434,6.069200715293965,5.994551075750861
1570180386551294.0,8.533879119041883,4.460796933368032,1.6551528193316323,2.506901974551428,5.488493301448851,6.498923941206615,5.967371424670344,6.0091558714196385
1570180386552165.0,8.801943140009604,4.626274058776365,1.6636880072529705,2.480245125292999,5.38309941861944,6.426848165380692,5.859274432931643,6.037338278553801
1570180386552165.0,9.075505556921984,4.79760835091198,1.6768924945058772,2.4577297421303346,5.271472654134167,6.3556101085999686,5.763014412511995,6.056697194336854
1570180386566131.0,9.357171552292082,4.976219750803588,1.6943401991767757,2.4376435475475606,5.167056493190267,6.28849404146061,5.677154931819144,6.054706756351519
1570180386566131.0,9.606717321293399,5.150408746362921,1.714031135775731,2.415942924474407,5.068500674501945,6.211931771317728,5.599549472617508,6.039048909431363
1570180386566161.0,9.800858141655237,5.314978734767424,1.7310299589567908,2.389990097302338,4.973124257446685,6.129387239089498,5.529349339604755,6.011382799702137
1570180386566161.0,9.951063304259257,5.468107734226452,1.750454377449401,2.364284378499113,4.873852988655766,6.054447101791129,5.468319855352287,5.9714382637399455
1570180386596047.0,10.094041260824973,5.610739271430533,1.7734744090613688,2.34012196254687,4.773860893644575,5.99114703040351,5.417502269530594,5.92847249897242
1570180386596047.0,10.248638947493337,5.738358471062292,1.7993704946530573,2.3192306928386595,4.670866352299457,5.9378251916428875,5.374612204992901,5.892681458475445
1570180386597150.0,10.418125997668563,5.853412763031699,1.8271654063538356,2.296315233465859,4.567480205506189,5.8957882170172,5.337377180376016,5.87212775578626
1570180386597150.0,10.586823185533422,5.962611241139137,1.859824558767254,2.2716656196396494,4.4636512436197355,5.859789104927259,5.307913629722729,5.870358021743418
1570180386610280.0,10.761861158409893,6.075827905383732,1.8958939492295863,2.246732411462867,4.3618974740477325,5.8198151497626185,5.27646906660589,5.874464668241973
1570180386610280.0,10.939702373520472,6.193425408531275,1.9321627012091764,2.2231009518117184,4.26104594922163,5.78438587849189,5.235176678889662,5.874385550230087
1570180386618025.0,11.127315530069685,6.319792038692562,1.9650756673988012,2.1999923235209176,4.167146032670695,5.763439105950472,5.186711905643989,5.8799869994609555
1570180386618025.0,11.313724305148702,6.446540634640473,1.995172142147516,2.1807987413490206,4.077752070178959,5.75363663949469,5.142802466689451,5.895298241747441
1570180386626208.0,11.487930302260878,6.560077291616568,2.0239142453793377,2.166156974635674,3.9951614753501885,5.75491298894133,5.104391742447516,5.915376597890202
1570180386626208.0,11.644649182397602,6.658373712227691,2.053939821738035,2.157485395398723,3.9160552888474065,5.768539190513781,5.063955063285444,5.93718099807938
1570180386626208.0,11.780541620703154,6.750241438184914,2.086864486618751,2.1520502314690506,3.8455245512309317,5.792656547003573,5.022847840423941,5.957910767230985
1570180386626208.0,11.86458305176478,6.826618117168393,2.1234535660343843,2.14977209980355,3.782396743708864,5.830188172368547,4.990290391842917,5.9776390660012515
1570180386647910.0,11.901228050932383,6.881417807556573,2.1614093166768735,2.150392256911271,3.727317424540654,5.885688597259767,4.9614293095525355,6.002703107559458
1570180386647910.0,11.928327257530833,6.927381253101076,2.2003885628344753,2.155075528065354,3.6732469590464527,5.952812472752041,4.932482159713453,6.041744231847909
1570180386648907.0,11.97725101309892,6.9820084962123365,2.241032437839998,2.160646423912441,3.6189846245825548,6.024609327670479,4.906707081824742,6.09051470256472
1570180386648907.0,12.054694885266288,7.054003890204996,2.283251050123802,2.1682948541202487,3.5635491331452642,6.105391030394012,4.888430467159439,6.138027612752366
1570180386671848.0,12.152481938364746,7.145814226764239,2.3247507917623103,2.1757758487882386,3.5161941055520054,6.187734860992331,4.883217794939325,6.187667057523239
1570180386671848.0,12.257163449387075,7.254687043601353,2.3627457724154732,2.179180879732531,3.4719772742850825,6.24553075431465,4.881907379912032,6.227983270531859
1570180386671848.0,12.366429230775122,7.374424380173476,2.390475600338732,2.1733006525058767,3.423835270809242,6.273318571648252,4.8622233657313645,6.241512063173578
1570180386671848.0,12.477635915245346,7.488421344312377,2.410330555621137,2.16379014840962,3.370762537117176,6.28774429483268,4.83256666281471,6.239952322431563
1570180386685960.0,12.595611218603201,7.591144130627572,2.426786718793026,2.155539124348537,3.3237873225967753,6.2978037527096555,4.8032619936662835,6.240401189719612
1570180386685960.0,12.711630940999905,7.688580623322027,2.445038471460429,2.150636647546609,3.2809841827377997,6.3072860963986805,4.775351560585694,6.254343697604379
1570180386686808.0,12.82822088563187,7.777885014447708,2.4669706500173203,2.145467077973996,3.242039048728448,6.3233221458539335,4.754779487084773,6.286354738066846
1570180386686808.0,12.949751263378873,7.862027748863551,2.4944595259492255,2.1389788853640828,3.200448440599081,6.349845649353902,4.748572831280528,6.325732582276952
1570180386708717.0,13.080745826315777,7.946292021835445,2.5252266525969063,2.1329936913867575,3.159823890796832,6.385357268038465,4.75556178358678,6.3631916524842405
1570180386708717.0,13.23279981522061,8.017948027116658,2.564099134569529,2.131353114498458,3.1191410208601438,6.41828719974358,4.759581872321448,6.398117654623352
1570180386708746.0,13.39947063344536,8.058093667118296,2.6087185074344954,2.1312027406709046,3.0768859482869333,6.437709587451361,4.737725648904301,6.440151344202423
1570180386708746.0,13.552786604754422,8.061151198988597,2.6554233826284928,2.1358649847776032,3.0317167404281355,6.451566140508936,4.701989943671902,6.495297151746562
1570180386731687.0,13.65222256301902,8.030031642239367,2.700485204427251,2.145054949579898,2.9924197981391094,6.461212055635487,4.671159840210694,6.554359550753855
1570180386731687.0,13.669692774009539,7.975928503942146,2.733987275786551,2.151134912990465,2.956549093056823,6.461718263469103,4.638488352435176,6.603825008620987
1570180386731687.0,13.632062625173115,7.909071766690079,2.7460951370377487,2.145126429238597,2.923419986630799,6.449834923447057,4.591156075444424,6.648325532506215
1570180386731687.0,13.594090059366987,7.8404389271396475,2.752594384064039,2.134304543521842,2.8861299191264584,6.410975801451081,4.536979825775357,6.70041338809298
1570180386745821.0,13.553531021323572,7.764305295106337,2.759379836966866,2.1255842389804287,2.8478102981151663,6.349278927539612,4.481586055795525,6.7608514020653105
1570180386745821.0,13.484225644932268,7.6711318277262315,2.764156419166553,2.1187612243467404,2.811255240089094,6.285207363779833,4.428493127491786,6.823442186792324
1570180386753745.0,13.400694475055593,7.570213334269506,2.7614325469349863,2.108599635825434,2.782051179415669,6.225105459378359,4.379323564950459,6.888884242099781
1570180386753745.0,13.3228556133298,7.4728207792818875,2.7591125282242066,2.0965148399574183,2.757128004913605,6.174733225344993,4.337986823902264,6.954857555424066
1570180386768640.0,13.260770794309002,7.379695534001222,2.75929454026582,2.0848432726989454,2.734898514163492,6.132512260053195,4.308131694481116,7.016141069910637
1570180386768640.0,13.232148281576846,7.300801010859798,2.768733194105459,2.077288373889541,2.7079325978184996,6.082466140259444,4.281571987646763,7.067108198270049
1570180386768640.0,13.230326586344212,7.2375226658948595,2.7832071412331887,2.072278155881597,2.6796642129289245,6.027047247374187,4.241738239642633,7.108957538157023
1570180386768640.0,13.216764711159925,7.175721842241523,2.799397095297089,2.0714479336876375,2.65172401867616,5.980182139353104,4.190840059026077,7.153379004027226
1570180386791530.0,13.149779872008812,7.090001168904808,2.808451886664038,2.0741502371537637,2.6296046839258853,5.948052425721493,4.133671013908649,7.196302052958765
1570180386791530.0,13.06753373753069,6.993052038477255,2.813750406270249,2.0819109547138717,2.6116331245834687,5.935515107489822,4.073467885082065,7.2292810174929505
1570180386792523.0,13.00087801746307,6.901625209308298,2.81409485442744,2.091319133403558,2.596252456019637,5.937043220615147,4.010417118566135,7.265660753856319
1570180386792523.0,12.936663793710325,6.816047807335744,2.8185025424901444,2.1017510420387855,2.57359655610488,5.926978327194954,3.947801895228829,7.308832746520206
1570180386805489.0,12.852776889333903,6.735267087841081,2.8218457538124104,2.1091685240055202,2.5437499604053335,5.890160353055,3.885266323745623,7.342331880504688
1570180386805489.0,12.746496684453493,6.666399398250004,2.8238670528818792,2.1111356028037345,2.5100823725435366,5.834196916047718,3.8272766491864227,7.349949055006675
1570180386813675.0,12.61304363882477,6.597799448433618,2.817383619140859,2.1073195249400394,2.481130710177556,5.761368192352837,3.7742557064634386,7.3388481426457295
1570180386813675.0,12.459025572088917,6.512575112488034,2.8030824547214004,2.101270931094617,2.4538201456689435,5.670818536120128,3.721946100640524,7.332306091289963
1570180386828436.0,12.290794155524738,6.404747098581223,2.774176701144025,2.0910318253993987,2.425405627738628,5.572559288165637,3.666735951772502,7.342954818384133
1570180386828436.0,12.129973356891869,6.294495116570034,2.7403362074684674,2.0758276077488005,2.3900320546392377,5.47702286535439,3.6111191409926273,7.367807020513261
1570180386829425.0,11.983341419730333,6.192341902890868,2.7006291703400387,2.055067411103942,2.352736724962164,5.39016014644749,3.5540919993317317,7.399062728401518
1570180386829425.0,11.845713829211622,6.096429227122844,2.664086392237907,2.03335568870948,2.315282796803575,5.313790462465251,3.4993131419087478,7.442774359155245
1570180386851580.0,11.698094498495848,5.996836107469156,2.6271558858593367,2.009470381166654,2.2805420057000725,5.248670976123764,3.4486473172169583,7.507018590947418
1570180386851580.0,11.551615006104003,5.898680755293145,2.595957406669362,1.986540702162259,2.246308641936442,5.1908746382080935,3.4028357518437025,7.586146258834651
1570180386852367.0,11.406505839525709,5.802258382492755,2.5631357209847754,1.964783204902912,2.2154679559693613,5.129447370782523,3.3572988875533607,7.674665001506346
1570180386852367.0,11.260711416857761,5.7062445045504315,2.5333064840385755,1.9430824340994506,2.181717864865891,5.0619732935185615,3.3123003882399407,7.77619210845253
1570180386865356.0,11.105420205953395,5.607035584985803,2.499654228608496,1.919011364949897,2.145370868766918,4.998856532144437,3.2707537118462793,7.889981526119366
1570180386865356.0,10.942406439891295,5.508176856362885,2.4696458336620584,1.897137026698914,2.10769890214747,4.950087411054927,3.239124058475766,7.986031664414649
1570180386873309.0,10.765110722487096,5.404261154761913,2.438540701361413,1.8769651003316872,2.0715199004723,4.918814111439509,3.2194101807947906,8.026137072361973
1570180386873309.0,10.585907984724209,5.296588729408349,2.4098008918622567,1.8572807815664352,2.032560626399175,4.902611712084493,3.214041146456696,8.019276196820618
1570180386888403.0,10.411924945427964,5.18774948493605,2.375729533615528,1.8351486412445943,1.9951045696207008,4.902165544148673,3.2194112758301947,7.996083546942867
1570180386888403.0,10.257848068386549,5.085722054018232,2.3426253445330625,1.8122632305787805,1.959432069817609,4.908084228349588,3.228567809369819,7.964051337566421
1570180386889266.0,10.123411153010123,4.990231473105037,2.3051297538994913,1.7882140206795378,1.9266097945926255,4.893613404484576,3.229828084661747,7.920322271791373
1570180386889266.0,10.011191010349167,4.907127471115964,2.271988602569523,1.7675284525548123,1.892977389723504,4.850623278159545,3.218885652858965,7.863365917313741
1570180386911595.0,9.920570499357725,4.835805359762349,2.236896400633824,1.7487201592993789,1.8607475294258367,4.795271898068517,3.1997379552674783,7.797620470328256
1570180386911595.0,9.859218872040964,4.775006003863343,2.2045542785917087,1.7304812871713922,1.8297675705417191,4.739345066589249,3.180734828623184,7.734202693251669
1570180386912212.0,9.825915488654028,4.719061419914719,2.169262972820525,1.708769067172666,1.8048175356115954,4.688698160863024,3.1625666590968406,7.675040440924588
1570180386912212.0,9.825783856458632,4.672118316964064,2.1406156710246034,1.6850651199437796,1.7848531711706637,4.650447096240699,3.1440160284232466,7.6192530885696845
1570180386925395.0,9.853453591640482,4.635918404907177,2.114293650234381,1.6604566924790218,1.7689616117190736,4.629922648499668,3.125585851661315,7.563352676964098
1570180386925395.0,9.916857841552114,4.614143402316896,2.095520805709438,1.6381509413015996,1.753773005325081,4.624980922544641,3.1094339204517483,7.501856931327286
1570180386933368.0,10.020526161798594,4.603519295239663,2.077042487383251,1.6183830684057054,1.7410621642833488,4.631639710013546,3.096465011131114,7.431129359572896
1570180386933368.0,10.161093374742864,4.606520913872059,2.0654861160560434,1.6035608659530969,1.7323556963543691,4.652912712511311,3.0917253550066084,7.3554482850031855
1570180386948109.0,10.330363044286491,4.6251365382674825,2.0573127694965585,1.5898992388319186,1.7321182810296458,4.689185371858565,3.092256258853931,7.279631804190318
1570180386948109.0,10.529915195836915,4.663363474938168,2.0565313322377805,1.577078848477567,1.739236521931176,4.731877348878236,3.092207769914196,7.214595108680381
1570180386949104.0,10.755561305313092,4.719860575504928,2.0523117166056943,1.5632696461849849,1.7531218050682849,4.773076661661567,3.0907526080325827,7.165675908409553
1570180386949104.0,11.010492186113229,4.79543052214834,2.049660442022764,1.548690596130516,1.7707904718707523,4.812480585669615,3.0955595801379046,7.12526520965667
1570180386971389.0,11.299759744203945,4.890657532457632,2.0424180388865283,1.5302103390990918,1.7898012537432981,4.8586750279946544,3.1096363624546766,7.079657516873473
1570180386971389.0,11.606710747210135,5.002352924024691,2.036472723660429,1.5116094193952956,1.807544148007651,4.921724352563971,3.133016666007853,7.0378284225878165
1570180386972051.0,11.915458240759587,5.118626774823224,2.0307777308732384,1.4959468361830883,1.8274610437143028,4.999569751200905,3.161310254047567,7.002095069073928
1570180386972051.0,12.24729924025724,5.242941900188212,2.0310826349646303,1.4848106098706904,1.8493377780515015,5.072702732904292,3.1849642798832387,6.963283265434224
1570180386985016.0,12.614758917572672,5.382215615912593,2.0291260440938528,1.474687063750451,1.8725137104165914,5.133116231868294,3.1984457523090226,6.919988498808103
1570180386985016.0,12.986405459112355,5.528753134149699,2.033053459716893,1.467832040200628,1.9006155354072598,5.199957817839542,3.210683721135011,6.87280448173398
1570180386993059.0,13.291810352089817,5.658957225918747,2.0377061068916302,1.4621814716537542,1.9354852721627407,5.281953428912988,3.228979811727136,6.819723056718946
1570180386993059.0,13.510615508242028,5.76559278647067,2.044855051752169,1.456106069998003,1.974932481207164,5.373928632999393,3.258322161496539,6.763212898332463
1570180387008116.0,13.70159311438415,5.868009408456869,2.0498321040903527,1.4487088965354313,2.0211460926608233,5.477423567553293,3.298187678392172,6.7116583414800965
1570180387008116.0,13.903443749351691,5.973901438317751,2.0564092874309465,1.439970720228201,2.0740982535007833,5.59248999808158,3.341906078711381,6.669217424596415
1570180387008954.0,14.093668865226736,6.06480202073747,2.0581121155901223,1.4292411796333355,2.1317833693795563,5.722753604100587,3.3863390006493987,6.628498208830381
1570180387008954.0,14.249708100422112,6.13414758420889,2.0616305605426706,1.4205829788871955,2.196143728590427,5.86005779891497,3.4333386008160978,6.596197253269836
1570180387031891.0,14.361938299196257,6.18381531874769,2.059114817196079,1.41147713706323,2.2620292532227384,5.954117411146663,3.4845366474471327,6.580897038028344
1570180387031891.0,14.446674868768701,6.2249856421202,2.052768406432063,1.4021638470007478,2.3198438502290593,5.973325431909715,3.536055774121338,6.584027794523884
1570180387031891.0,14.531046380714347,6.267637043501912,2.0386987371101557,1.393011700073365,2.3689461947849777,5.952219549173329,3.565099210501458,6.588801572479613
1570180387031891.0,14.648568754958998,6.324412178657802,2.02718035034674,1.3876564216754401,2.4126530515583133,5.927680480304137,3.56347528531621,6.579893516336031
1570180387045073.0,14.794469644052922,6.396944855444393,2.015894534938768,1.3863077389374547,2.453045837121468,5.899033390498678,3.5414910974695877,6.557264589244792
1570180387045073.0,14.900822732303416,6.4610835346219675,2.0085276672504495,1.3889024795775695,2.4903577020618943,5.85664429706746,3.507221195450114,6.526166000857159
1570180387053016.0,14.917997399467817,6.493948921150388,1.9984139431841084,1.3923083494265112,2.5267060372894576,5.806867070266239,3.469062128370212,6.48647631221005
1570180387053016.0,14.88677251471206,6.504466700959832,1.9943921938605944,1.3970073789417177,2.56825186418586,5.7556490069139254,3.4327129457844903,6.446640836896054
1570180387068787.0,14.825932259714033,6.500608194129683,1.9918372756644869,1.4022075479220208,2.6179749443574254,5.7052728089454625,3.395920755247908,6.406491499430058
1570180387068787.0,14.750387801041517,6.488915806980788,1.9911122130941603,1.4078515142522698,2.6750500861969666,5.662673070380232,3.35965193613738,6.35783300619405
1570180387068787.0,14.686238639756827,6.4731660055345515,1.981398772735424,1.4118956539989598,2.7375537044219063,5.632200980294575,3.321578837737246,6.3058066490604565
1570180387068787.0,14.651773602347415,6.4594161429272265,1.9676372883606674,1.4132536411081689,2.8048118101848916,5.617069904874483,3.285609920936839,6.26141704582352
1570180387091733.0,14.638089649866904,6.448131329010721,1.949088156714706,1.4137510522850718,2.875039146499034,5.619803904064334,3.2552530498722536,6.225834785926793
1570180387091733.0,14.651171241879243,6.445733389383039,1.9351089601788238,1.4191722537392526,2.9457849684829633,5.635598073267002,3.2312773291194774,6.202614468374324
1570180387092722.0,14.696517122241465,6.458686494297921,1.9193487901955244,1.4301095352982849,3.0175180749919313,5.661869129695471,3.208383646315648,6.185954660539265
1570180387092722.0,14.778857378440842,6.491066454161414,1.9066053045926359,1.4466271457127646,3.0869734825778665,5.6887931867450305,3.178284819836206,6.163015336844377
1570180387113665.0,14.897044097762025,6.536724801396896,1.893736986320105,1.4633615537433655,3.1470575967268895,5.686094410562216,3.137936018901371,6.123055055727758
1570180387113665.0,15.069161005518849,6.59430565319228,1.8862407340060972,1.4777214389579598,3.198966604154479,5.652497177637445,3.0968564707452706,6.077430400329731
1570180387114897.0,15.289842430247935,6.661167599329256,1.873999615895265,1.4921077978055328,3.253152614008002,5.615714408078711,3.057601292659983,6.0402390380609265
1570180387114897.0,15.546356816436566,6.73400579030694,1.8624497218005638,1.5107480832441336,3.3085095288411495,5.586245597061039,3.0155880970868223,6.017325716719072
1570180387128624.0,15.804116867282195,6.80051208018984,1.8520853596803692,1.527460531503545,3.338975326674774,5.5618584037061325,2.972426640485724,6.002954868648711
1570180387128624.0,15.989517099372511,6.84080861442706,1.8485096924280606,1.5350698296358014,3.3266260213571135,5.5287146472259465,2.937040912490334,5.977623401865426
1570180387128624.0,16.048172546849294,6.84350101096545,1.8407189868185727,1.5360716371850573,3.2900409961448065,5.475774330898308,2.910032963425374,5.927953038768918
1570180387128624.0,16.06160191515264,6.8367287883860035,1.8341063892388632,1.5387216054212118,3.252696159993854,5.414587418220486,2.8898365814482547,5.868362986931475
1570180387151902.0,16.089500360536046,6.83846038760833,1.8283755678260458,1.5427968665219816,3.224491067512749,5.35994644853363,2.8759469049289965,5.816928067958765
1570180387151902.0,16.11430954484162,6.8461088590060974,1.8288650609970567,1.5470964060579209,3.2050817295936453,5.315540582174472,2.8670668490537277,5.778124675708168
1570180387152563.0,16.12268862399847,6.857891276687616,1.8278329945638097,1.5507346591657845,3.193895146001818,5.276509379686322,2.8586372971009997,5.744866091054119
1570180387152563.0,16.142712714972138,6.877724800832994,1.827565406448284,1.5542131095593845,3.1900127624646326,5.237246053570625,2.8527814642943796,5.716257211486443
1570180387174537.0,16.17342351548633,6.900536231195711,1.8219006176576824,1.5586544544625038,3.1903230548386605,5.201656977581228,2.8492884770422897,5.685590829097518
1570180387174537.0,16.215309438478794,6.931859913018433,1.8199353639575182,1.565684504350324,3.186871533397664,5.171331009083021,2.8471185606676492,5.648086192074184
1570180387174537.0,16.2468085664701,6.967325441255028,1.8208612341610364,1.5715334591639978,3.1777655126524014,5.143929877145132,2.842035498194734,5.6067402029113556
1570180387174537.0,16.2706815103157,7.0095116089625416,1.828929052868543,1.5779949458894167,3.1669517262677536,5.122962335963401,2.8350677428803146,5.573507848065278
1570180387188478.0,16.272737754613612,7.051847298805457,1.834837592610544,1.5869730220486704,3.159617772149336,5.104607544398719,2.831445691320081,5.551738421677483
1570180387188478.0,16.221641214364585,7.069034911768889,1.8392164628197947,1.598368067618234,3.1573419959858673,5.081556376815165,2.8348786192098707,5.535137908928339
1570180387189469.0,16.10079654617075,7.050881160602931,1.8390560465356047,1.6135481918029042,3.1632918751320354,5.057792285349443,2.8455863299681883,5.518612774495923
1570180387189469.0,15.958611997816318,7.021020064564495,1.8434310025876612,1.6342138231721084,3.174136413785514,5.037257470400176,2.8639234269948317,5.508963015058564
1570180387211590.0,15.824964042103769,6.990318271085372,1.851413188982511,1.6583379025624452,3.184827363809276,5.020077389390202,2.887900691420937,5.514306323284791
1570180387211590.0,15.717651357562366,6.9600046611508635,1.868206281477056,1.6853195670031305,3.1846098242270027,5.002774261067441,2.915504236060037,5.537820576654424
1570180387212402.0,15.618399638705723,6.917323709179872,1.882880773339736,1.7102063631358049,3.1725940539609208,4.982307073202269,2.9431936785480732,5.578721102830215
1570180387212402.0,15.51945784407739,6.862998120388012,1.891700055184286,1.728077917712684,3.159423331580364,4.965189059129821,2.9694735941283983,5.6368741998902046
1570180387234395.0,15.402977043287175,6.802066750322396,1.8845512357268641,1.7363636414674588,3.1509247797134865,4.951306706469326,2.9923183000074336,5.704823114252668
1570180387234395.0,15.27568822964901,6.741851522800297,1.8720276967331027,1.7394459050320419,3.1389274907813456,4.932479604082507,3.016763335364356,5.775789574234593
1570180387235344.0,15.130869650246078,6.684552167098181,1.856752867780165,1.7395758472247382,3.1212129117129472,4.909495189871056,3.0360666960184655,5.82214291949939
1570180387235344.0,14.991118225558191,6.640768518448287,1.844118926878199,1.7395705685524379,3.1015564542548377,4.891177971686519,3.0335390838418346,5.8199698756158575
1570180387248313.0,14.856947345830877,6.610298414187102,1.8308527905842236,1.7393718142009733,3.083776607089582,4.880785330354997,3.0141300998798646,5.79178381652277
1570180387248313.0,14.730839084668212,6.592724975902671,1.824855870213111,1.738273849835986,3.0669919814944433,4.87287830979649,2.993360931501628,5.761053225929625
1570180387249304.0,14.608251336685253,6.579357001570239,1.8210476208301367,1.7390180277965859,3.052474606153321,4.8667342379056,2.974563517238368,5.729483296144678
1570180387249304.0,14.504194008805204,6.562848346546312,1.8221122643906817,1.7452306550210646,3.0398371352104876,4.860993161713619,2.9568680582984275,5.696427818745057
1570180387271410.0,14.39587584900788,6.540348553394294,1.8174104188313556,1.7523928953098205,3.0328881155739644,4.859004747505587,2.933607209268053,5.6599618554240205
1570180387271410.0,14.268328087824088,6.521023546364263,1.8087769695644729,1.7572747030781153,3.029946631809017,4.871862430409347,2.9033883331011654,5.62020499001449
1570180387272249.0,14.120521535959462,6.505202514766928,1.7937916365888094,1.7608379714711828,3.0275455968247296,4.893288556971254,2.8694889986008465,5.571604810942816
1570180387272249.0,13.992151658593611,6.501361859490794,1.7814951471024436,1.766829438231678,3.020709856411987,4.900511713110852,2.835649064739235,5.518595214044888
1570180387294518.0,13.87952261926367,6.508832699354877,1.7665659179710487,1.7732560900741912,3.015719641989548,4.889726428846379,2.803758508777239,5.465018660272654
1570180387294518.0,13.77158290027257,6.519281782518477,1.754623963302356,1.7804491545075105,3.0200984911048594,4.873194282034199,2.7734100465076086,5.407628366521567
1570180387295182.0,13.634644240902967,6.509872537983645,1.7426604980587468,1.784400249940264,3.028955496712669,4.854676731286795,2.7412151472469573,5.337476127040726
1570180387295182.0,13.479309918037254,6.4823147743168725,1.734022843263568,1.7813809636658016,3.02924862471596,4.835178481337137,2.709981894075976,5.255442924904327
1570180387308145.0,13.317437781472815,6.446090792599801,1.7210020768238825,1.7716375544270493,3.0222661745565587,4.817372437938429,2.682656233539117,5.171746869630306
1570180387308145.0,13.169553498536622,6.4106117227422725,1.71052739739214,1.7566803757927172,3.0078935302666125,4.7961447604696765,2.658971329549425,5.0897858120950445
1570180387316213.0,13.024742271991876,6.373464415818388,1.7004205741665022,1.7355866192743368,2.9895296996094274,4.762782834108823,2.6356266911437003,5.005188145638057
1570180387316213.0,12.894548182813342,6.332293741710228,1.6964359528628616,1.7145250544832307,2.9727030715844323,4.720323718486315,2.616984779003672,4.92125434297245
1570180387331094.0,12.771361105484438,6.280049337789615,1.6922962439342886,1.6967155958108502,2.9569997349323276,4.673726328105835,2.602842906757783,4.837961616393964
1570180387331094.0,12.661444533918905,6.225279998772136,1.6915477605229685,1.6813475404366136,2.935354483273369,4.619777035066733,2.589565316680073,4.760773511599334
1570180387333083.0,12.551770858934638,6.171114120220492,1.6858108365656486,1.6627357923516555,2.912814842354736,4.563162314565816,2.5769727129886566,4.6940051637469615
1570180387333083.0,12.448614101382285,6.124566276777057,1.6775016353961076,1.6407807741288118,2.8932526566742545,4.509563953378469,2.565642636874822,4.638067416377651
1570180387354089.0,12.347222151938416,6.085479953060025,1.6647737716998066,1.6164836747039013,2.8779897340676595,4.458836320158104,2.5556694673899134,4.5956054902587224
1570180387354089.0,12.270019572408536,6.057847437229556,1.6565378270431586,1.5929572156438216,2.865957743379551,4.4135863313514685,2.549922553808243,4.570292313420327
1570180387355203.0,12.209191831849461,6.038440802809386,1.6462981382995017,1.5708439143066852,2.8589543026527062,4.373256011596401,2.5463102117810243,4.557161576300519
1570180387355203.0,12.1578313126694,6.022720427485338,1.6361168036336564,1.5509315239224464,2.855116474348516,4.331309256340722,2.544675670733325,4.554312508792773
1570180387368038.0,12.080391098482357,5.9941498157028485,1.6212404814359387,1.5316830825383059,2.8554456314820333,4.286845975936844,2.5495722521793276,4.562385159827662
1570180387368038.0,11.983711360222927,5.953466637927586,1.6089525185963651,1.5162592549080813,2.8611540428487774,4.246013658796538,2.5645542555710232,4.579643563985469
1570180387376962.0,11.875311683264105,5.906492439233955,1.5947233225238673,1.5053371629625725,2.873327185963348,4.208477645412854,2.5871849629701758,4.60267765337412
1570180387376962.0,11.773329992013139,5.86403489544828,1.5839671863354068,1.4973877000541178,2.8849110177046255,4.16793534448467,2.6124162660165986,4.62940674023832
1570180387391945.0,11.668761384599692,5.82562016764481,1.57114532228755,1.4872949637560844,2.8946654864661534,4.125840379367065,2.630726699188408,4.653599169813082
1570180387391945.0,11.56857475519316,5.7961869840467095,1.5596100081993065,1.4756444886931825,2.9073827381349777,4.087419532039846,2.6369977708120103,4.6692383155282675
1570180387393076.0,11.46400778144658,5.7714267612855,1.5451564949879903,1.461778568323076,2.930197101239489,4.0558139937691235,2.635416672165579,4.688593461219804
1570180387393076.0,11.371080770027765,5.75187107805332,1.5353049947308128,1.4480194327215643,2.964817988739023,4.035259459923708,2.634329800588307,4.7227031082003785
1570180387413862.0,11.279817878765162,5.733055082712306,1.5263527100789491,1.4358651240007902,3.011118582204445,4.022108228691824,2.6353102619438755,4.766503357618246
1570180387413862.0,11.19849676648288,5.7160533177972,1.5227452838299949,1.4274091339660493,3.054000124173533,4.000292904593568,2.6347841095496958,4.813938014440909
1570180387415866.0,11.118924095038686,5.693246041764369,1.5154907282471894,1.420918906294443,3.073038897386258,3.9635394185673753,2.6336825923519127,4.867660760545535
1570180387415866.0,11.051786330579914,5.668008903188666,1.5077544220000658,1.4131179374547838,3.058705172639169,3.9194845297353873,2.6385330396193933,4.934402267475738
1570180387428035.0,10.985578330095432,5.63844018941408,1.4983874851135075,1.401571697835929,3.024701469184081,3.876702647065624,2.6508165829021486,5.01693889737348
1570180387428035.0,10.930740360857707,5.606594175576715,1.4935559693764715,1.3916874260222685,2.9833037480965987,3.8404005772498047,2.670342305726972,5.1129929513058086
1570180387436800.0,10.864044724462094,5.561399732027411,1.4880722772049289,1.3853520947014244,2.9427115561158153,3.808884855091956,2.6933691434042566,5.213292703874859
1570180387436800.0,10.789747595223014,5.507215076856222,1.485956262976089,1.3816895371293427,2.9054633525158944,3.7761967132002,2.7139353540866296,5.308136118385192
1570180387451863.0,10.70767519447904,5.450763725593739,1.4814007988926767,1.3771854311177276,2.874641959396914,3.7441325197868105,2.7331428281425967,5.396096571827739
1570180387451863.0,10.620631321390752,5.3929271580966285,1.4786446913903242,1.3730833185101436,2.846518966694195,3.7203676671592127,2.7554922340284764,5.479888148618354
1570180387453062.0,10.518548981438357,5.328356370893403,1.4731180022473218,1.3688265125996235,2.8193090820783056,3.707180358924703,2.7791249039541817,5.573179681594823
1570180387453062.0,10.425801958031903,5.26586274369319,1.468502655970433,1.3639965531878828,2.790679258901312,3.703175603083462,2.805147659071588,5.683311675883895
1570180387473907.0,10.331980608921354,5.201365135385454,1.458319496277793,1.3581011915887717,2.7619524846076184,3.710016044798946,2.838114866858461,5.77859335169756
1570180387473907.0,10.2401697395137,5.137262059668048,1.4475187250230088,1.3529685784498953,2.7313701971565445,3.7262133344391635,2.868990068751189,5.812992302562216
1570180387475868.0,10.139161246927426,5.071708327402604,1.4342458496527088,1.3487370440689364,2.6991653621424194,3.7446713467379045,2.8808612470970987,5.797115917549776
1570180387475868.0,10.038627943660787,5.007728217507592,1.4258456720948482,1.3477626565020742,2.663849698561886,3.7639909841312997,2.879590325362241,5.773207124738644
1570180387487852.0,9.927535232096304,4.941402351675957,1.4186677838222188,1.3489514574671502,2.6321627373109346,3.785566945827429,2.8760515253955927,5.7513453805327295
1570180387487852.0,9.818877938560542,4.877393512933497,1.4143794198268202,1.3519882692181149,2.599948283208098,3.8060316956021825,2.8679766778124476,5.717141718685116
1570180387496787.0,9.704868777196507,4.812750468235935,1.4074816518508801,1.3570714805324031,2.5594408988256983,3.830170557682924,2.8573299714004654,5.671652851590713
1570180387496787.0,9.597137577490436,4.751106270728283,1.403673725603778,1.3648934828879082,2.5115096407288213,3.8555885585445897,2.847327165268064,5.628192251331149
1570180387511805.0,9.488819481146916,4.689620150276608,1.4011012746786315,1.3714284750092935,2.4660079432401507,3.8642630990859312,2.8299020137979167,5.589368562350477
1570180387511805.0,9.39225785212107,4.634085814645182,1.4063134868648477,1.3784376812941133,2.422510528395114,3.855978323778489,2.802396863718127,5.550955584436028
1570180387512603.0,9.29193742461353,4.5805111553668985,1.4142282202193592,1.3871841011026969,2.3827880875142604,3.840915213202846,2.773085161959133,5.508980214414206
1570180387512603.0,9.192582469989187,4.530343596878058,1.424641093874599,1.395844299005587,2.347214210221715,3.8239794370481897,2.7491264310409655,5.468386223663271
1570180387533745.0,9.085832075529929,4.480125507765735,1.4327931271395937,1.4024053507319767,2.317114397124036,3.812665562356133,2.7309562583081046,5.438178541697239
1570180387533745.0,8.986461550638595,4.431531464642532,1.4419647275859286,1.4054053849776404,2.287910431847927,3.8112143054198726,2.7184323670584316,5.421266000859856
1570180387540525.0,8.885515669495447,4.378349056358445,1.4456445882545772,1.4025010413569663,2.2600179593583802,3.822680727434248,2.7102884305932684,5.422712776586339
1570180387540525.0,8.789604636744158,4.325006756323812,1.4476206337028699,1.3983275137394164,2.23264555935645,3.847217407518254,2.7079998842784487,5.442897793607812
1570180387547515.0,8.688551519849725,4.26954660108392,1.444755930811933,1.3962357347682601,2.2072788301469486,3.8820649762581323,2.7116961769348196,5.476507935938111
1570180387547515.0,8.596733088793464,4.216103358557213,1.4410249380066675,1.3962332376910425,2.1829952481727255,3.9303044771219273,2.7211645247558223,5.514929965030363
1570180387556631.0,8.503870052053623,4.1613698233565675,1.4310745892907406,1.3953832025748627,2.163736072134724,3.9929008863221624,2.7339745114916387,5.548674991767017
1570180387556631.0,8.41919217498951,4.109039116147685,1.4182681212202686,1.3951632846890394,2.1488385999850896,4.061161217613966,2.739871666609373,5.575087353845087
1570180387571551.0,8.331495600062752,4.055665601880133,1.401666333188147,1.3945205658861308,2.1362490723836256,4.130401141674978,2.731295595124145,5.59380987139079
1570180387571551.0,8.24701914287059,4.004819435128253,1.3882112215015505,1.3916738493120389,2.121386697328406,4.2073699265777575,2.7185122804874147,5.60422538787192
1570180387573435.0,8.154660152137643,3.9530451320741364,1.3749477995514379,1.3871789419110656,2.105073557606535,4.297798190406605,2.712221233908995,5.6151034631626695
1570180387573435.0,8.06751622441161,3.903604379352141,1.3649492601333921,1.38246821358932,2.0882016342617646,4.398481711369197,2.7103548563724362,5.63284535121888
1570180387594429.0,7.974769881731294,3.853667581359759,1.351682042570469,1.3746241576484453,2.07535510936409,4.503834782033083,2.7082310201334714,5.658751368309823
1570180387594429.0,7.886425776421231,3.8080420951288705,1.3390264080998155,1.3636079484812542,2.068376399727167,4.6162561783385065,2.7089307103850118,5.698368640008551
1570180387595383.0,7.796616589756809,3.7612858352377185,1.324752162233635,1.3487366083174097,2.0703567696788614,4.738639092298616,2.7149864367738346,5.755264993542313
1570180387595383.0,7.720422564520024,3.715986290488053,1.314324257965476,1.333109565329032,2.0758022564042453,4.846450558479069,2.7225521497292418,5.827625099439065
1570180387607711.0,7.649519056005529,3.668889951639345,1.3045243659822838,1.318378641183784,2.0784213740207664,4.9029782641296284,2.716274697054355,5.893757088788661
1570180387607711.0,7.586282201546862,3.6221953395311686,1.2989201939270836,1.3066539047014145,2.076023996254522,4.914602712566264,2.692002860976054,5.930352034743514
1570180387616323.0,7.511300626394156,3.572631271038715,1.2918141755447954,1.2989619253206284,2.0725505236705426,4.918207326572357,2.661425216833822,5.953301234473742
1570180387616323.0,7.4334420845274005,3.5255261783531595,1.2861187157718212,1.2958664604916268,2.072277265324642,4.928913435217486,2.630885175696394,5.975502262193561
1570180387631488.0,7.345492115394857,3.47781526499109,1.279092929620699,1.2959782496822037,2.079553907641069,4.940365196772071,2.599180041967696,5.996299629043305
1570180387631488.0,7.2607586165979905,3.4322024117357888,1.2744580268471422,1.2993524834372296,2.0924884216825297,4.947787465717264,2.5673674736759597,6.022530736377007
1570180387633275.0,7.170826475089291,3.3862729123092774,1.2688347092946042,1.3034578926504867,2.1109206222863346,4.957415957189096,2.5378774009629863,6.061005301311141
1570180387633275.0,7.08636658511417,3.343915419946705,1.2647702556593692,1.3075823188560034,2.134364373556495,4.974670033685906,2.513707798771779,6.113556163097353
1570180387654219.0,6.997830390689432,3.300882398207948,1.2580659547081003,1.310941919143874,2.162723536239673,4.994896391236733,2.4950934523332946,6.1758893342225365
1570180387654219.0,6.918815788389645,3.261794381878574,1.2546750953404555,1.313363406996291,2.1945366797903607,5.016074935323255,2.481264051297164,6.242203904235989
1570180387655216.0,6.843115645796094,3.224562571527956,1.2535467722910434,1.3108426620769118,2.227583424853388,5.037777280680552,2.466924194895816,6.285116466598132
1570180387655216.0,6.776218371781759,3.1914098172915986,1.2566401842831265,1.303175018928056,2.2567025403987775,5.046971043778078,2.4507901626903177,6.272437886561721
1570180387667392.0,6.702461845889377,3.1549858776487927,1.2588284733309012,1.2950598001594982,2.285419912257935,5.032785795162252,2.4314928525420365,6.229318231713671
1570180387667392.0,6.63042916811157,3.1184659918399933,1.2624778066469784,1.2910731292091384,2.3207596393149217,5.005221947341111,2.4054456194402514,6.189734576071588
1570180387676436.0,6.551048948082706,3.082262909950489,1.2657946102273467,1.2914867526225708,2.364147088351799,4.981991644959695,2.3768258259211374,6.15949626413721
1570180387676436.0,6.476441320780465,3.050627013860834,1.2708599258418132,1.297396252744491,2.4114708919862173,4.972647851170887,2.3526143263065973,6.1329096753588805
1570180387691144.0,6.396539947501553,3.0195210102670433,1.274660247237686,1.3078959363952096,2.4628389032470737,4.9817877191534485,2.3333605122056045,6.102290940553136
1570180387691144.0,6.320452638601226,2.9919354123261104,1.280214642090271,1.3216707352343413,2.52213322397279,5.0046870308109135,2.317990844417937,6.077482843335776
1570180387693166.0,6.24006049054764,2.962863363192648,1.2828769926929746,1.3371473910777527,2.591226793331545,5.019398962114602,2.3033989024969426,6.060057173469568
1570180387693166.0,6.167285243314509,2.934472387394946,1.2843983215285038,1.3547330220908254,2.666315974345794,5.002730860293474,2.2848605113868485,6.041116866596672
1570180387714065.0,6.090881964235197,2.9048030798760935,1.2848169270982048,1.3743819701995201,2.744786022930331,4.950728629042317,2.257697515274324,6.031057252425123
1570180387714065.0,6.020027839619329,2.8786528833052785,1.288610927571621,1.39307408354903,2.825695051124991,4.879482728195354,2.228012835702155,6.0371331244048445
1570180387715363.0,5.945877892781816,2.850321743730428,1.290857298319183,1.405524187371719,2.908554034927055,4.809452018149339,2.2021054184348845,6.05314303181559
1570180387715363.0,5.877274896947401,2.8220662800871574,1.2913168183445336,1.4149391643551334,2.9954908823134363,4.7467805931010005,2.179960708699574,6.073007468877957
1570180387728072.0,5.803440018936533,2.792281811001516,1.288483987438588,1.4252215101017074,3.0884781547375164,4.688196863111158,2.1603270278507503,6.097253455670922
1570180387728072.0,5.735243118073718,2.766216432391513,1.2888551895741713,1.4372190798290128,3.189166194333132,4.638426345412321,2.144451089925643,6.130558610044598
1570180387736998.0,5.665012604268904,2.7424335774749715,1.2912922443892845,1.4518448043856185,3.3000249117848206,4.6010784790556425,2.1342806533362784,6.172752783512859
1570180387736998.0,5.605824491834222,2.723131952844469,1.2952735132905058,1.4683488500631254,3.407555593609298,4.567788738956028,2.131399110749361,6.219240858571121
1570180387751960.0,5.548953909617,2.705331138551159,1.2991621511724045,1.4831407218805965,3.489614629374244,4.532670006738914,2.13184904129641,6.255357081921357
1570180387751960.0,5.495904571172389,2.691259640421682,1.3048645086160617,1.4976088234879084,3.5329268782675265,4.495222750992729,2.1314534508453864,6.268699779619459
1570180387753067.0,5.43423628002957,2.673041819067907,1.3065702267635515,1.50874820729157,3.5441045680750363,4.455887294303431,2.131897784895509,6.2766468469860275
1570180387753067.0,5.377841434997981,2.6546360538651848,1.3094828352794523,1.514955902320429,3.5443688188182083,4.420690770276535,2.1363378069841166,6.2953268412614305
1570180387773913.0,5.31699147442456,2.6372698051763868,1.3145079476711352,1.5192775573898782,3.549455903940534,4.396600047586478,2.147844489668241,6.329398177866544
1570180387773913.0,5.262617659914139,2.624654389512515,1.3210057503209862,1.5236007016051587,3.5573641652406267,4.384712301464551,2.1684393808635374,6.382048709719087
1570180387775902.0,5.210864479014113,2.6132162265822276,1.3274454262437807,1.5276945219450957,3.5582232761596826,4.376070967410727,2.196862706965354,6.4524308059380395
1570180387775902.0,5.170412233280628,2.6082433394270232,1.3382023621366677,1.5313693910789579,3.5437950771886366,4.359234556209079,2.220811990209043,6.5178593569499474
1570180387787865.0,5.122945086268481,2.6085709437733544,1.3511137011584549,1.5330082506065907,3.5185485367939067,4.340564370327657,2.228744221513864,6.553868813278557
1570180387787865.0,5.075703698144679,2.6154103328582075,1.365580366199286,1.5328553609615165,3.486142901473555,4.328680128503728,2.227969302996537,6.565072712401099
1570180387796946.0,5.023171725016369,2.620517545684297,1.3756929316821807,1.5313558189048473,3.4507198599253655,4.322675225969884,2.227563521991078,6.5627739320789935
1570180387796946.0,4.9749481434706855,2.6228975093951847,1.38049553823664,1.5275923869338708,3.41593614118956,4.324355949084544,2.231462665176272,6.556487417591915
1570180387811801.0,4.9212294969349575,2.617953430607215,1.3789534029824566,1.5177156825290885,3.3862113625066628,4.336703695992436,2.2406434333638225,6.549902490469045
1570180387811801.0,4.87296029651419,2.608812856477518,1.3766054732651551,1.5058294742241851,3.356734287457853,4.3616579062868714,2.253005013633259,6.5418396976688244
1570180387812853.0,4.8229089963946095,2.5946050553570292,1.3739156477940166,1.4952151230654345,3.324970013291166,4.401172112617185,2.26971032849419,6.538314895772436
1570180387812853.0,4.780482434507828,2.5801121491002212,1.3722209443506732,1.4850064032716945,3.2916064952104254,4.450144956983109,2.2904463273169586,6.545952022767856
1570180387833930.0,4.740503170857141,2.5639156347814516,1.3691483267663391,1.4748054253473764,3.262709834252936,4.501770202513938,2.314293597444735,6.567456888506061
1570180387833930.0,4.7151760802431575,2.550762940507462,1.3695682722577913,1.4686567777475061,3.2372870562669944,4.550231105522982,2.339982226571685,6.587670164538909
1570180387835736.0,4.685986610816045,2.5353506129262313,1.3733852817245495,1.4663276227766906,3.2125463355360955,4.587204862776395,2.3666392021317897,6.590512691211129
1570180387835736.0,4.655616905836346,2.518548611940153,1.3810669668345703,1.4659674112492986,3.1860398996710524,4.612856518304258,2.390986172704261,6.589208366300962
1570180387847865.0,4.620051956143681,2.4992714717123827,1.3888473971063726,1.4648109243306189,3.162212823365188,4.633208786713948,2.409786015068012,6.601398167708849
1570180387847865.0,4.5889843617906365,2.482835842384714,1.3973661335383651,1.4620358749137938,3.1442972192284424,4.654267251204708,2.424581315864167,6.62672669248265
1570180387856685.0,4.553941458346293,2.4652048723686426,1.4046242183724722,1.4565613878077,3.1330490932891992,4.683134024631621,2.4409532545965718,6.659375917158386
1570180387856685.0,4.529172713689892,2.4489535490863403,1.4132950138195746,1.4484801903194207,3.120262371306581,4.717125041529757,2.463328910030992,6.700438868179029
1570180387871685.0,4.5092568776137965,2.4330002431949254,1.422904787262288,1.4383809012349835,3.1071709655691624,4.739015156889902,2.4924043614179676,6.756960347774639
1570180387871685.0,4.5041236716906,2.418175978760934,1.4348715067971576,1.4293904688013614,3.097001399908141,4.740643222113785,2.5272443112944463,6.825873334150636
1570180387872636.0,4.503395406991122,2.3994789217774226,1.4438454138240142,1.4196558070439493,3.091226227530542,4.729206851750878,2.5603804818188216,6.877400657944986
1570180387872636.0,4.50942173878083,2.3815485033583608,1.447831397068079,1.4070707944481868,3.0850038896412117,4.708213981792627,2.5820234302527867,6.892920407325914
1570180387893577.0,4.5117791376150596,2.361565155029753,1.4470193501454327,1.3916673060147289,3.079676338125769,4.67980435328034,2.5993466151841846,6.888169184976795
1570180387893577.0,4.516828023701672,2.3407967876930083,1.4444996616019534,1.3768372274623577,3.0780402888850777,4.64591690467785,2.6226168150727998,6.875772946180021
1570180387895572.0,4.514731394750749,2.317572121145985,1.43763107156361,1.3642956090683396,3.0835977549957123,4.61186101654702,2.651988618605333,6.852700251128575
1570180387895572.0,4.514876822711599,2.2979593766524196,1.4319708915613962,1.356448116715861,3.0951083101597003,4.5822041695817,2.6841205433676674,6.8086324001922565
1570180387907795.0,4.5074161974222156,2.27921955045186,1.4280245193185246,1.3535644497124117,3.115974722872617,4.556173347375806,2.721054750984835,6.754731956495128
1570180387907795.0,4.505311474454383,2.2631611475694293,1.4293785353512594,1.3552712481424027,3.144712419073892,4.532588738737454,2.7564998335269566,6.71482779336484
1570180387916524.0,4.504048608235265,2.246581652567196,1.4340769602671106,1.3578012676624236,3.170941474704566,4.513276513339818,2.7780257315619763,6.681773952528339
1570180387916524.0,4.503840077060964,2.232102088771066,1.4406837639786965,1.3620327827129373,3.1778771596046496,4.499678296628929,2.7877555683843642,6.642226412409513
1570180387931715.0,4.491004812716888,2.2171664765631935,1.4438618787159632,1.3689772832763822,3.1683613733654576,4.487775528733635,2.798266982109927,6.606073693805883
1570180387931715.0,4.4796490465977294,2.206987586010655,1.4450399363583262,1.3779345618145795,3.150757384337677,4.480028406626275,2.8152777210453186,6.579811141961809
1570180387933472.0,4.466170065538327,2.1989622517943426,1.4421644305606414,1.3856062537365421,3.1339778465334396,4.481864149420635,2.8364259462266688,6.561262992925609
1570180387933472.0,4.455654651099741,2.191903617805517,1.4348656972522436,1.3888823607401022,3.1182982609085435,4.487554153635756,2.8607897604386716,6.555570579016807
1570180387953434.0,4.438227892309027,2.181712867254072,1.4215152303056464,1.3868012992585912,3.101677170709384,4.4895594902959175,2.8924192541336646,6.564931569033024
1570180387953434.0,4.424909102116897,2.173307770952891,1.4088803160708747,1.381362531764266,3.081804158484808,4.494096251798104,2.9304253829383993,6.58883114422692
1570180387955414.0,4.409089524918826,2.164381543771164,1.3975441750973931,1.373329669141417,3.061007288038397,4.510294769630171,2.9709756512058885,6.626565599608225
1570180387955414.0,4.400418217883953,2.1562831984257382,1.3893882215166338,1.3664115710470077,3.039350097329328,4.5363208880827015,3.013317663441205,6.671002168339407
1570180387967622.0,4.393338327529975,2.145716899189444,1.3812966334011914,1.3607439368191507,3.020691842591725,4.570012132050928,3.060156059515991,6.710538815528848
1570180387967622.0,4.393474643214046,2.137057363045356,1.3754090037626776,1.3568126892029015,2.9977619847857593,4.5971192006209955,3.09426400133657,6.734374711269205
1570180387976404.0,4.390750691949045,2.129596219376863,1.3697405731571826,1.3563561549612941,2.965427382099828,4.600748110589517,3.097080842426692,6.746299472762334
1570180387976404.0,4.397188615815432,2.1252395860662894,1.365518071716835,1.3602149550017946,2.925183659760552,4.591061936832374,3.0858004281080973,6.76441193002644
1570180387991507.0,4.411143626989767,2.1210330318700206,1.3603924657554292,1.365114413154267,2.8862827162893328,4.578557545604321,3.0809277486927633,6.794797271245139
1570180387991507.0,4.437660190854513,2.119567177044278,1.356586544740341,1.3704902275278892,2.8469797885909025,4.561269837572967,3.0766475138322016,6.806411929443403
1570180387993317.0,4.4501913657735015,2.113440612239636,1.350755666020304,1.3738083515404511,2.8072456876587153,4.544743594106198,3.0633737549842857,6.755697823240108
1570180387993317.0,4.447721583128603,2.1041750241505155,1.3465137005829164,1.3736184843828574,2.765636362380409,4.53195732379256,3.0440473989993735,6.662672881037664
1570180388014451.0,4.432687637272774,2.0943200110449416,1.3432633554648403,1.3713293638995143,2.7241519211951473,4.514960898024261,3.0233795214009205,6.571864893240408
1570180388014451.0,4.421359252166361,2.090147972827717,1.343182260649803,1.370942225576895,2.68037985513245,4.483970122646569,2.996366262304794,6.495102404827853
1570180388015655.0,4.408945436893625,2.0867592197529152,1.3438115689065966,1.3720817486437156,2.6360774442355295,4.4353436251872465,2.9577264001663814,6.430063265937437
1570180388015655.0,4.4020677194616855,2.0824726096193196,1.3446371371355184,1.3724199204847818,2.5909422619288183,4.379783788117236,2.913752381135185,6.376552367294636
1570180388036365.0,4.390530105874426,2.074231785473424,1.346361001473282,1.370724039322529,2.5480860442232176,4.327350738732023,2.8729796897966517,6.336926640335266
1570180388036365.0,4.383807992869613,2.0652578882851644,1.352684032961703,1.3673940841212653,2.5056188092558136,4.2752814537329416,2.8355364128377634,6.305510595216952
1570180388038194.0,4.372267753926015,2.053251970799777,1.358254069959153,1.3621430921256494,2.4666280494853847,4.222013585008531,2.7962645047857144,6.264528665044893
1570180388038194.0,4.355966908905453,2.0422122445357305,1.3630000128075919,1.357799507902506,2.4279349894605673,4.165767014754955,2.7548144364846827,6.211259913754067
