timestamp,emg1,emg2,emg3,emg4,emg5,emg6,emg7,emg8
1570181800312753,1,1,-1,0,-1,-2,-1,3
1570181800312753,-2,0,0,-1,-3,-3,-3,2
1570181800312753,1,0,-1,-2,-1,1,1,-2
1570181800312753,-1,0,1,0,1,-1,0,-3
1570181800314746,0,-1,-1,-1,0,1,1,6
1570181800314746,1,-2,-1,1,0,-1,-2,-4
1570181800315753,-1,2,0,-1,-1,-3,0,0
1570181800315753,-6,0,-1,2,-1,-2,-4,-11
1570181800322734,-4,-2,-2,0,-1,-2,0,-9
1570181800322734,-3,0,-2,0,-1,0,0,-2
1570181800328809,0,-2,-2,0,-1,0,-1,0
1570181800328809,2,-1,0,-2,-1,-1,-2,4
1570181800343674,0,0,0,-1,-2,-1,-2,-1
1570181800343674,3,-3,0,-1,0,0,1,1
1570181800352646,-4,-2,-1,-1,-2,-1,-3,-12
1570181800352646,0,-2,0,-2,-1,0,0,-3
1570181800358630,-1,-2,-2,-2,-1,-1,-1,-3
1570181800358630,1,0,0,-2,0,-1,2,1
1570181800384205,-1,1,-1,0,0,0,0,2
1570181800384205,-2,-2,-2,0,-1,-3,-3,-4
1570181800385558,1,0,-1,-1,1,1,1,1
1570181800385558,-2,-1,0,0,1,-2,-1,-4
1570181800423457,-2,0,-1,0,-2,-1,-3,-3
1570181800423457,-2,0,-1,0,-2,0,-2,-5
1570181800423457,4,-2,-2,-2,0,0,-1,11
1570181800423457,4,-2,-1,-1,0,0,-1,7
1570181800426449,-3,-1,0,-1,-2,-1,-1,-6
1570181800426449,-1,-1,-2,0,0,0,0,2
1570181800427447,-2,0,1,-1,-1,-1,0,-2
1570181800427447,-2,-1,-1,-1,-2,0,1,7
1570181800434436,-1,0,-1,0,-3,-1,-5,-18
1570181800434436,-6,-1,0,-1,0,-2,-3,-9
1570181800441411,-4,0,-1,-1,-1,-1,-1,-5
1570181800441411,0,-1,-1,-1,-1,0,2,6
1570181800456441,-1,-2,-1,-1,1,0,1,3
1570181800456441,1,0,0,0,1,0,-2,1
1570181800463435,-3,-1,0,1,0,0,-2,-5
1570181800463435,-3,-1,0,-1,0,2,-1,-12
1570181800471477,-1,-1,1,-1,1,0,0,4
1570181800471477,4,-2,1,-1,0,-1,0,8
1570181800495264,2,1,0,0,0,0,0,1
1570181800495264,-1,-1,0,0,-2,-2,-2,-4
1570181800495264,0,0,-2,0,-1,0,-1,-1
1570181800495264,2,0,-1,-2,0,0,1,3
1570181800509227,-1,-2,-3,-2,-1,-2,2,0
1570181800509227,1,0,0,0,0,0,0,2
1570181800510224,-2,0,-3,-2,1,12,1,-1
1570181800510224,1,0,0,0,0,-6,0,-1
1570181800532214,1,-1,0,-2,-3,-2,2,1
1570181800532214,-1,1,1,0,-1,1,-2,-4
1570181800533165,1,-1,1,-2,0,-1,2,5
1570181800533165,1,-1,-1,-2,-1,0,-1,2
1570181800555109,1,0,0,0,-1,1,0,-1
1570181800555109,-4,-1,-1,0,-1,-2,-2,-7
1570181800555109,2,0,-1,-1,-1,1,2,-5
1570181800555109,7,0,0,-1,-1,-1,0,10
1570181800569064,1,-1,-1,0,-1,-2,-1,7
1570181800569064,4,1,-1,1,-3,-3,0,1
1570181800570062,-1,-1,-2,0,0,-3,-1,-2
1570181800570062,-4,0,-1,-2,0,-2,-2,-2
1570181800592005,0,-1,1,1,1,1,-2,-5
1570181800592005,1,0,0,-1,1,-2,0,0
1570181800593021,1,-2,1,0,0,-3,-1,3
1570181800593021,2,-2,-2,-1,-1,2,4,3
1570181800614943,-6,-2,-2,-2,-1,0,-4,-14
1570181800614943,-2,-2,-1,0,1,-1,0,-3
1570181800616014,-2,-1,0,-1,-2,-4,-2,0
1570181800616014,-3,0,0,0,-2,1,-1,-4
1570181800628906,3,0,1,0,-1,-1,1,2
1570181800628906,0,-1,-1,-1,-1,-2,1,9
1570181800637882,-3,-1,-1,0,0,-3,-3,-3
1570181800637882,-5,-2,-1,0,-2,-1,-2,-12
1570181800652973,-1,0,0,-1,-1,0,-1,0
1570181800652973,-1,-2,-3,-2,0,5,0,1
1570181800653921,3,-1,0,-1,-3,-9,0,5
1570181800653921,-3,-1,0,0,1,-3,-1,-4
1570181800675019,-1,1,0,-1,-1,-2,-1,1
1570181800675019,-2,0,1,0,0,-4,-3,-1
1570181800676787,-3,0,1,0,-1,1,0,-1
1570181800676787,0,-2,-1,-1,0,2,1,-1
1570181800689014,-1,0,0,0,1,-4,-1,-1
1570181800689014,0,0,1,0,0,2,3,1
1570181800697733,-3,-1,0,-1,0,3,2,0
1570181800697733,-2,-2,-1,0,-1,1,-2,-1
1570181800712683,2,-1,0,0,-1,1,1,13
1570181800712683,-1,-2,-1,-1,-1,0,0,-4
1570181800713825,-4,-1,0,1,0,-2,-3,-6
1570181800713825,0,1,0,0,-1,-1,-1,-1
1570181800735937,5,0,-2,1,0,0,2,11
1570181800735937,-1,0,0,-1,-1,-2,-3,-4
1570181800737235,3,-2,-2,0,0,-1,0,3
1570181800737235,1,1,0,0,-1,3,-1,3
1570181800748765,-5,-1,-1,-1,1,-2,-2,-7
1570181800748765,-2,0,0,-1,-1,1,-1,-2
1570181800757565,1,0,0,-1,1,-1,-1,-1
1570181800757565,1,0,-1,-2,0,0,2,3
1570181800771708,3,0,0,-1,0,-1,3,7
1570181800771708,4,0,-3,-1,-3,-3,-1,1
1570181800778565,-2,-2,-1,0,0,-1,-2,-1
1570181800778565,0,0,-1,0,-1,-1,0,-2
1570181800795464,-6,-1,-1,-1,-2,-1,-1,-11
1570181800795464,-1,-1,0,0,-2,-1,0,1
1570181800796581,1,0,-2,-2,-1,0,1,5
1570181800796581,-3,-1,-1,-1,0,-2,1,-2
1570181800808726,1,-1,-3,0,0,2,-1,-5
1570181800808726,1,0,-1,1,-1,-5,-4,4
1570181800817405,2,0,-1,-1,-2,0,1,1
1570181800817405,-1,-2,-2,-2,-2,-1,-1,6
1570181800832458,-4,-3,0,-2,0,1,-1,-2
1570181800832458,-3,0,0,0,1,0,0,-6
1570181800834359,4,0,-1,1,-1,0,2,8
1570181800834359,0,-1,0,-1,1,0,-1,0
1570181800855303,-2,0,0,-1,-2,0,-3,-6
1570181800855303,5,-1,-3,-1,0,0,0,5
1570181800856435,-3,-1,-1,0,1,1,-1,-4
1570181800856435,0,0,1,0,-1,0,2,1
1570181800868381,-2,-1,-1,0,-2,-1,-4,-7
1570181800868381,-3,-1,0,1,0,-1,0,-5
1570181800877582,-2,0,-2,0,-3,0,0,0
1570181800877582,1,-1,-1,-1,-1,-1,-1,-1
1570181800892216,-1,-1,-1,0,-1,0,1,0
1570181800892216,-2,0,0,0,0,0,0,1
1570181800894200,2,1,-1,-2,-1,-1,-2,-4
1570181800894200,-5,1,1,-1,-1,-2,-3,-10
1570181800915212,3,-1,0,2,1,0,0,4
1570181800915212,-3,1,-1,-2,0,-1,-1,-4
1570181800916141,-2,-3,-1,-1,-1,1,-1,-2
1570181800916141,-3,-1,-1,-1,-1,-2,0,-5
1570181800929117,1,0,0,-2,-1,-2,2,2
1570181800929117,-3,1,0,-1,-1,-1,-3,-5
1570181800937707,6,1,-2,-1,0,1,0,14
1570181800937707,0,-1,-2,0,0,0,-2,-5
1570181800953043,2,1,0,-1,-1,0,5,16
1570181800953043,1,-1,0,0,0,-1,1,-2
1570181800954047,-4,0,-1,-2,0,-1,-2,-8
1570181800954047,-2,0,-1,-1,0,-1,-1,-4
1570181800975092,-2,-1,-3,0,0,1,-3,-6
1570181800975092,-2,-2,-1,0,0,0,2,0
1570181800977037,-1,-1,0,0,1,0,3,-12
1570181800977037,4,0,0,-2,0,-1,1,0
1570181800997968,-3,-2,0,-1,-1,-2,-2,-10
1570181800997968,-2,0,0,-1,-2,-2,-1,0
1570181800999086,-2,-2,-1,-1,-2,-1,0,0
1570181800999086,-3,-1,-1,1,-1,-3,-1,0
1570181801012903,2,0,0,-1,1,4,0,5
1570181801012903,-4,-3,-1,0,1,1,-2,-5
1570181801014151,5,2,0,-2,0,0,1,16
1570181801014151,2,0,-1,0,-3,0,-2,5
1570181801035199,-3,0,1,0,0,-2,-1,0
1570181801035199,0,0,-4,-1,-1,0,2,2
1570181801036818,-2,-1,1,-2,-2,-1,-2,-1
1570181801036818,0,-1,-2,-1,-1,2,-1,-5
1570181801057769,-1,-2,-1,-1,-1,-1,3,13
1570181801057769,2,-2,0,-1,0,-1,-1,1
1570181801058759,-3,-1,0,1,0,-2,-1,-3
1570181801058759,0,-1,-1,-1,-1,0,-2,-4
1570181801072882,0,0,-1,-1,-1,0,0,-6
1570181801072882,0,-1,-1,-1,0,0,-1,0
1570181801073726,3,1,0,1,0,-3,-1,5
1570181801073726,-2,-1,0,-1,2,0,1,5
1570181801094874,-5,0,-2,1,-1,-2,-4,-13
1570181801094874,-1,0,-2,-1,0,-2,0,4
1570181801096665,0,-1,-1,0,-1,-2,-1,-3
1570181801096665,0,-2,-1,-2,0,0,1,4
1570181801116613,-1,0,0,-2,-1,-2,-3,-5
1570181801116613,0,0,1,0,-1,0,-1,-4
1570181801125216,-6,-1,-1,-1,-1,0,-4,-8
1570181801125216,1,-1,1,0,0,-1,0,-6
1570181801132658,0,-1,0,-1,-1,-1,-3,-5
1570181801132658,3,0,0,0,-1,0,0,2
1570181801133702,0,-1,0,-1,-1,1,0,-1
1570181801133702,-1,0,0,0,-1,-1,-1,3
1570181801154501,-1,-1,0,-2,-3,-2,-1,-4
1570181801154501,2,1,0,1,1,-1,-2,-4
1570181801156503,0,-1,0,-2,1,-1,0,0
1570181801156503,2,-1,-2,-1,-1,0,2,6
1570181801177440,6,1,-2,-2,1,0,1,5
1570181801177440,-1,-3,-2,-2,-2,0,-1,0
1570181801179437,-2,-1,-3,-1,-1,0,-2,2
1570181801179437,-5,0,0,-1,-1,-1,-3,-7
1570181801199388,0,-1,-1,0,-1,-1,2,4
1570181801199388,0,-1,0,-1,0,-1,-1,-1
1570181801201430,0,-1,0,1,-1,-1,-1,-1
1570181801201430,-1,0,0,-1,-1,1,1,-3
1570181801214393,-1,-2,-2,0,-1,-1,-2,2
1570181801214393,-6,0,-2,-1,-1,0,-2,-13
1570181801216785,-1,0,-1,1,-2,0,0,6
1570181801216785,2,-1,-2,-1,0,-1,-1,2
1570181801237445,-4,1,2,-1,-1,-1,-1,-6
1570181801237445,8,-2,0,0,0,0,3,30
1570181801239278,-5,-2,0,-3,1,-1,-3,-15
1570181801239278,-4,-1,-3,1,-1,-1,-3,-9
1570181801251320,-1,-2,-2,-1,0,1,1,0
1570181801251320,1,0,0,-2,-1,0,-2,-1
1570181801260222,1,0,1,0,0,0,-1,2
1570181801260222,-1,-1,1,-1,0,1,-1,0
1570181801275180,0,0,-1,1,-1,0,0,-2
1570181801275180,-4,0,-2,-1,-2,1,0,-7
1570181801276233,-1,0,-1,0,-1,-2,0,2
1570181801276233,1,0,-1,-2,-1,0,1,4
1570181801297121,-1,-2,0,0,0,0,-3,-3
1570181801297121,-2,-2,1,-1,-1,-3,-2,-6
1570181801299116,1,2,0,0,0,-1,2,5
1570181801299116,-3,0,0,-2,-3,0,-3,-14
1570181801312083,-1,1,1,0,0,0,-2,-4
1570181801312083,4,-1,-1,-1,-1,-1,-1,9
1570181801318066,-1,-1,0,0,-1,-1,-2,-3
1570181801318066,-2,0,-1,1,0,-3,1,2
1570181801335019,1,0,-3,-2,0,0,0,-5
1570181801335019,-2,0,1,0,-2,-1,0,-17
1570181801336018,-3,1,0,1,-1,0,-2,-12
1570181801336018,4,-1,-2,-1,-1,-1,-1,10
1570181801357578,2,-1,-1,-1,-1,-3,0,10
1570181801357578,4,0,-2,-1,0,0,0,16
1570181801358958,1,-2,-1,-1,0,2,2,9
1570181801358958,-2,-1,-1,0,0,1,0,0
1570181801371959,-4,-1,-2,-2,0,-1,-2,-12
1570181801371959,-3,-2,0,-1,-1,-1,0,-2
1570181801378905,-2,-1,-2,-3,0,-1,0,4
1570181801378905,-3,0,0,0,-1,1,0,-2
1570181801394003,1,1,-1,-1,-2,-2,0,9
1570181801394003,-2,-1,-1,0,-3,0,-1,-3
1570181801402840,1,0,-2,0,-1,-3,0,-3
1570181801402840,-1,-1,-2,0,0,-1,-1,-1
1570181801417803,-2,-2,-2,-1,-1,-1,-1,-3
1570181801417803,-2,-2,-1,-1,-2,0,-3,-5
1570181801418890,2,0,-1,0,-1,0,-1,3
1570181801418890,2,-3,0,-2,0,-1,-1,-3
1570181801439740,-1,-2,1,1,0,0,-1,-2
1570181801439740,-4,-1,0,0,1,-1,0,-5
1570181801441832,3,-3,-1,-2,-1,2,1,-2
1570181801441832,-3,1,0,-1,-1,-1,-2,-2
1570181801453711,-3,-1,-1,-1,1,-2,-1,-2
1570181801453711,-1,-1,-1,1,-2,0,0,2
1570181801462997,-2,-2,0,0,-2,0,0,-4
1570181801462997,-4,-1,-1,1,-1,-1,-1,0
1570181801477641,-2,-1,-1,-2,-1,0,-1,-2
1570181801477641,-3,1,-1,-3,0,-2,0,0
1570181801478979,-2,-1,0,-1,-2,0,-2,-6
1570181801478979,-1,-1,-1,-1,0,-1,1,3
1570181801499682,1,-2,0,2,1,-2,0,3
1570181801499682,-1,0,-1,0,-1,-1,-1,-4
1570181801501573,0,1,-1,0,0,-1,0,0
1570181801501573,0,0,0,0,-1,0,0,1
1570181801522612,-1,0,-1,0,-2,0,-1,-3
1570181801522612,-1,1,-1,1,0,0,1,-2
1570181801524623,2,-1,-1,-2,0,0,-2,-4
1570181801524623,-1,-1,0,2,0,0,-2,-2
1570181801537514,1,-2,-2,-2,1,0,1,1
1570181801537514,0,0,-1,1,0,-2,0,-4
1570181801538766,-8,-1,0,-1,-2,-2,-3,-13
1570181801538766,12,1,-1,-1,0,0,3,23
1570181801567404,2,-1,0,-1,-1,1,0,-2
1570181801567404,3,-2,-2,-2,0,1,0,8
1570181801569394,-3,1,-3,0,0,-2,-1,0
1570181801569394,-2,-3,0,-1,-1,0,1,-5
1570181801582359,-1,0,0,1,-1,-2,-1,1
1570181801582359,-1,0,-1,-2,-1,1,-2,-2
1570181801584352,2,-2,-2,-2,-1,-1,1,6
1570181801584352,1,0,0,-2,-1,-1,-2,-6
1570181801597414,0,0,-1,-2,-2,-1,-2,0
1570181801597414,-3,-1,0,-1,-1,-2,0,-3
1570181801599313,-4,-1,0,0,0,0,0,1
1570181801599313,1,0,-1,-1,-1,-1,3,1
1570181801620256,-3,-1,0,0,-1,-1,0,-6
1570181801620256,0,0,0,0,0,1,1,-2
1570181801622253,-1,0,0,1,-1,-1,0,5
1570181801622253,-3,-3,-2,0,0,1,0,-1
1570181801642199,-1,0,-1,0,-1,0,0,2
1570181801642199,-1,-1,0,-1,-1,-1,-3,-4
1570181801644193,1,-1,0,-1,0,1,1,5
1570181801644193,-6,-1,1,-1,1,0,-2,-11
1570181801657170,0,-2,0,-1,1,-3,-2,-4
1570181801657170,-1,-1,0,-1,-1,-1,2,6
1570181801659152,1,0,-1,0,-1,0,-1,2
1570181801659152,-3,0,0,-2,0,-2,-2,-5
1570181801680117,0,0,-1,0,-1,1,2,6
1570181801680117,-1,-1,-1,-2,-1,0,-3,-11
1570181801681177,0,-2,-2,-1,-1,0,0,-8
1570181801681177,0,0,-2,-1,0,-1,-1,-16
1570181801702062,-1,0,-1,-1,0,0,-2,-11
1570181801702062,-2,0,1,0,-1,0,-1,-7
1570181801704033,0,-3,-2,-1,-2,-1,-2,5
1570181801704033,-1,1,-1,1,-3,-1,-1,8
1570181801716998,1,-2,0,-2,0,-2,1,7
1570181801716998,-2,-1,-2,-1,-1,-2,-1,6
1570181801723980,1,1,1,0,0,0,0,5
1570181801723980,-2,-2,-1,-1,0,-3,-1,7
1570181801739936,-4,1,0,-1,0,-1,-4,-5
1570181801739936,7,0,-2,-1,0,0,2,15
1570181801741940,-3,-1,0,0,-1,-2,-2,-3
1570181801741940,1,-2,-1,-1,-1,1,-3,-7
1570181801762962,0,0,0,0,-1,-1,0,3
1570181801762962,-3,-2,0,0,1,0,-2,-6
1570181801763876,-1,1,-1,-3,1,1,1,-1
1570181801763876,0,0,0,0,-1,0,1,4
1570181801777055,-2,-1,-1,-2,-3,-1,-2,1
1570181801777055,-2,-1,0,0,-1,-1,0,-5
1570181801783818,6,0,-2,-1,-1,-1,1,8
1570181801783818,-5,-1,0,-1,0,1,-2,-8
1570181801800007,6,3,0,0,-1,0,2,20
1570181801800007,-1,1,1,0,0,-1,-3,0
1570181801801780,-1,-2,-1,1,0,0,-1,-2
1570181801801780,0,0,0,-1,-2,-2,2,4
1570181801822715,-2,-1,-2,-1,1,-1,2,-6
1570181801822715,0,-1,-1,0,-1,-1,1,-6
1570181801823713,-2,0,-1,0,0,0,0,0
1570181801823713,0,-1,-1,-1,-2,-2,-1,4
1570181801836921,-1,-2,-2,1,-2,0,-3,-2
1570181801836921,3,0,0,-1,-1,-2,2,10
1570181801844001,0,0,0,-1,-2,-1,-1,1
1570181801844001,3,-1,0,-2,-3,-1,1,5
1570181801859832,1,-1,-2,-1,1,-2,-1,1
1570181801859832,-2,0,0,0,0,-1,0,-5
1570181801861611,2,1,-1,0,-1,-1,-1,2
1570181801861611,-1,-2,-2,-1,-1,0,-1,2
1570181801882871,-5,-2,-1,-1,0,1,0,-9
1570181801882871,2,-1,-1,0,-3,1,3,14
1570181801883555,-2,-2,-1,0,-1,-1,-1,-8
1570181801883555,-1,0,0,-2,0,-1,1,0
1570181801897588,0,-1,0,1,-1,1,0,-3
1570181801897588,-3,-2,0,-2,-1,0,0,-8
1570181801903713,1,-3,-1,-1,-2,0,1,7
1570181801903713,-2,0,-1,0,1,-2,-3,-5
1570181801919534,1,-1,0,0,0,1,2,11
1570181801919534,-2,0,0,1,2,-1,-2,-7
1570181801921491,0,-1,0,-1,0,0,2,-4
1570181801921491,2,0,0,-1,0,-1,0,1
1570181801942433,-1,-1,-1,-1,-1,-1,-1,-4
1570181801942433,-3,-1,-1,1,-2,0,-2,-1
1570181801944391,-4,-1,0,0,-1,-1,-2,-6
1570181801944391,-3,-1,0,0,-1,-1,-2,1
1570181801957361,5,-2,-3,-3,-2,-1,2,5
1570181801957361,1,-1,-2,-2,-1,0,0,2
1570181801963532,-3,1,0,0,-1,0,-1,-4
1570181801963532,2,-1,-2,-1,0,-1,0,12
1570181801980343,-2,-2,1,0,-1,0,-2,-4
1570181801980343,-2,-1,1,0,0,-2,-1,-3
1570181801982290,3,1,1,-2,-1,0,2,7
1570181801982290,-6,-2,-1,0,0,-1,-4,-9
1570181802002281,-1,0,0,0,0,-1,-1,0
1570181802002281,0,-1,-1,-2,1,0,-1,-2
1570181802004235,0,0,1,0,-1,0,-1,-1
1570181802004235,-1,-1,-2,-1,0,0,2,-4
1570181802016197,-4,0,-1,-1,0,-1,-2,-6
1570181802016197,-2,0,-1,-1,-2,-2,-2,1
1570181802025176,-3,-1,0,-1,-1,-2,-4,-8
1570181802025176,-1,0,-1,-1,-2,-1,-1,-1
1570181802040138,-4,0,2,-1,-1,0,-1,-9
1570181802040138,3,0,-1,-1,0,1,1,3
1570181802041132,-1,-2,-1,1,0,-1,-1,-1
1570181802041132,1,0,-1,-2,1,-1,0,1
1570181802062109,-2,-1,-1,-3,-1,0,0,-2
1570181802062109,-1,-1,-3,-1,-1,-1,-3,1
1570181802064269,2,-2,0,-1,-2,-1,-1,6
1570181802064269,0,-1,-1,0,0,-1,0,-2
1570181802076072,-1,1,0,0,-1,-1,-1,-4
1570181802076072,0,-1,-2,-1,-1,0,3,-2
1570181802085015,-1,-1,0,-1,0,-1,-2,-1
1570181802085015,-2,-1,-1,-1,-2,-1,0,-3
1570181802099975,0,-2,-2,-1,-1,-3,-6,-9
1570181802099975,-8,0,-1,0,-1,-2,-1,-9
1570181802101969,1,0,-1,-2,-2,-1,-2,-1
1570181802101969,1,-1,0,-1,-3,-1,0,-2
1570181802121919,-2,-2,-1,-1,2,1,2,6
1570181802121919,0,-1,-1,1,0,0,-2,-2
1570181802123922,-3,-1,-2,-1,1,-1,0,-4
1570181802123922,0,0,0,-1,-1,-1,-1,-1
1570181802136009,1,0,-1,0,-1,1,0,2
1570181802136009,-4,0,0,-2,-2,0,-1,-3
1570181802144895,0,-2,-2,0,0,0,0,4
1570181802144895,1,-1,0,-1,-2,1,1,2
1570181802160019,-1,-1,1,0,0,-2,1,4
1570181802160019,0,-1,0,-2,-1,-2,-2,-10
1570181802161915,0,1,0,1,-1,-2,-3,-3
1570181802161915,0,0,-2,-1,-1,0,0,0
1570181802182846,0,-1,-2,-3,-1,0,-2,0
1570181802182846,2,-1,-1,-2,0,-1,0,3
1570181802183753,-2,0,0,0,-1,0,-1,-3
1570181802183753,-4,-1,0,1,1,1,0,-5
1570181802195903,-1,-1,0,-1,-1,0,1,7
1570181802195903,4,-1,-2,0,1,1,2,5
1570181802204695,-1,-1,0,0,0,0,-3,2
1570181802204695,-1,-2,0,1,0,0,0,0
1570181802219993,0,1,0,0,-1,0,0,-1
1570181802219993,-4,-4,1,0,-1,-2,0,-3
1570181802221732,3,0,-1,-2,-2,-1,-2,6
1570181802221732,1,0,-1,1,-2,-1,-1,2
1570181802242594,0,-1,-2,0,-1,0,-1,-1
1570181802242594,-1,-1,-1,0,0,2,-2,-3
1570181802244588,1,-1,0,1,-1,0,-1,5
1570181802244588,-1,0,-1,-1,0,0,0,-1
1570181802255790,-2,0,-1,1,-1,-1,-3,-5
1570181802255790,3,1,-1,-1,-1,1,2,8
1570181802264574,-6,-1,-1,-1,-2,-1,-1,-12
1570181802264574,2,-2,0,-1,-2,0,-1,4
1570181802280495,2,-2,-1,0,-1,0,0,2
1570181802280495,3,1,1,1,-1,0,4,28
1570181802281643,-3,1,0,0,1,-1,0,-5
1570181802281643,-1,-1,-1,-1,-1,-2,-1,2
1570181802302582,-2,0,0,0,0,-2,-6,-7
1570181802302582,-1,1,0,-2,0,-1,-2,-5
1570181802304428,0,0,-2,-2,-2,0,0,-9
1570181802304428,3,0,1,0,-1,1,2,10
1570181802316568,0,-2,1,-1,-1,-3,-4,-1
1570181802316568,-1,-1,-2,-1,1,-2,-1,-3
1570181802325372,0,-2,-2,1,0,1,2,2
1570181802325372,-1,0,-2,0,0,0,1,-3
1570181802339367,-3,-2,-1,-1,-2,-1,-2,-6
1570181802339367,0,-1,1,1,-2,1,-1,1
1570181802341328,-1,0,0,-2,-1,-1,-1,2
1570181802341328,-2,0,0,0,-1,-1,0,-5
1570181802362480,2,0,0,-1,0,-1,1,3
1570181802362480,-3,0,-2,0,0,-2,-1,-5
1570181802364328,0,0,-2,-2,-1,0,1,2
1570181802364328,2,-2,-2,-2,0,-2,-3,-9
1570181802376390,-6,-1,-1,0,0,0,0,-3
1570181802376390,3,-1,-3,-2,-2,0,-3,-2
1570181802385222,3,0,1,-1,0,1,1,4
1570181802385222,-2,0,-1,1,-1,-1,-4,-2
1570181802400490,-2,-1,-1,-1,0,0,2,-1
1570181802400490,2,-1,-1,-2,0,0,-3,0
1570181802401171,-4,-2,-2,1,0,-2,-2,-3
1570181802401171,0,1,-2,-2,-1,0,-1,8
1570181802422122,1,-1,1,0,0,1,-1,-3
1570181802422122,-2,0,0,2,-1,0,1,-2
1570181802424115,0,0,-1,-1,-1,0,-1,-2
1570181802424115,0,0,0,-1,-3,-1,1,9
1570181802436212,2,-2,-2,-1,0,-1,1,3
1570181802436212,-4,-2,-2,-2,1,-1,0,-10
1570181802445062,2,1,1,1,1,2,0,8
1570181802445062,-3,1,0,0,1,-3,-2,-8
1570181802460187,-3,-1,-2,-1,-1,-1,-1,0
1570181802460187,-3,-1,0,0,-3,-1,-3,-9
1570181802462007,1,0,-2,-2,-1,-1,0,-1
1570181802462007,-2,-1,1,0,0,-1,-2,-5
1570181802482952,-4,0,0,-1,0,-1,-1,-6
1570181802482952,-1,-1,-2,0,-2,0,0,-3
1570181802484312,-4,1,0,0,-1,0,-1,0
1570181802484312,2,0,0,1,-2,-1,-3,-11
1570181802504896,-5,1,0,0,-1,-1,0,-5
1570181802504896,-1,0,1,-1,0,-2,0,1
1570181802506952,0,-2,-1,-3,0,-1,1,0
1570181802506952,-1,-2,0,1,-1,0,1,1
1570181802520068,1,0,-2,1,1,-2,-1,2
1570181802520068,2,-1,0,-1,-1,-1,-3,5
1570181802521846,1,-1,-1,0,0,-2,-1,1
1570181802521846,-2,-3,-3,-1,-2,-2,-1,-7
1570181802542951,1,-1,-3,-2,-2,1,2,1
1570181802542951,0,0,0,0,-1,-1,-3,-1
1570181802544285,-2,-1,1,0,0,0,-1,-2
1570181802544285,-5,-1,-1,-1,-1,1,-1,-8
1570181802564735,5,-1,-4,-1,-1,0,0,5
1570181802564735,-1,-2,-1,-1,-1,1,0,0
1570181802566725,-5,-1,-1,0,-1,0,-2,-9
1570181802566725,0,0,-1,-1,1,1,0,-1
1570181802579744,1,-1,0,1,0,-3,-2,6
1570181802579744,1,0,-2,-2,-2,-1,1,1
1570181802585810,0,-1,-2,-1,-2,-2,0,2
1570181802585810,2,0,-1,-1,-2,0,3,13
1570181802602637,1,-1,-1,0,-1,0,-3,-3
1570181802602637,-1,-1,-1,0,-1,-1,-2,-5
1570181802603628,1,-1,1,0,-1,-1,-2,0
1570181802603628,-2,-2,0,0,0,1,0,-1
1570181802624572,-2,0,1,-1,-2,-2,-1,-4
1570181802624572,-4,1,0,-2,-1,-2,-3,-7
1570181802626721,1,0,-4,-1,-1,-1,-3,-2
1570181802626721,-4,0,-1,0,0,0,-1,-4
1570181802639540,0,-1,0,-2,-2,-1,0,2
1570181802639540,0,-1,0,-2,0,-2,0,4
1570181802646563,2,-1,-1,0,-1,1,2,6
1570181802646563,2,-1,0,-2,-1,-1,-2,1
1570181802662840,-1,0,-2,0,0,1,0,-4
1570181802662840,-6,-2,0,-1,0,0,-1,-9
1570181802663470,1,1,-1,-2,1,0,0,1
1570181802663470,0,0,0,0,0,-1,1,4
1570181802685430,-1,0,1,-1,1,0,1,-4
1570181802685430,-2,0,0,-1,-1,0,-1,-2
1570181802686989,-1,0,0,-1,0,-1,1,0
1570181802686989,-1,-3,-1,1,0,-1,-2,0
1570181802699376,2,-1,-1,-1,0,1,-1,2
1570181802699376,-1,-1,-1,0,0,0,-1,-6
1570181802706403,-3,-1,0,1,-1,-1,-3,-8
1570181802706403,-1,-1,-3,-1,-1,-1,-2,-2
1570181802722597,-1,-1,0,-1,-2,0,0,1
1570181802722597,2,0,-1,0,0,1,0,3
1570181802724311,0,-1,0,-1,-2,-1,0,0
1570181802724311,-1,1,-2,-1,0,-1,-2,-1
1570181802745431,-2,1,1,0,-1,0,-3,-1
1570181802745431,1,-4,-2,-1,0,1,0,4
1570181802746248,-5,-1,-2,-1,-1,0,-2,-6
1570181802746248,-1,-1,0,-1,1,0,0,-5
1570181802759719,0,0,0,1,-1,0,-1,3
1570181802759719,1,1,-1,1,-1,0,3,10
1570181802766199,1,-1,-2,-2,0,0,-2,-7
1570181802766199,1,0,0,0,-1,-1,0,0
1570181802782423,0,-1,-1,1,0,1,0,-1
1570181802782423,-1,0,-1,0,0,-2,-1,3
1570181802784144,-1,0,-2,-2,0,0,2,1
1570181802784144,3,0,0,-2,0,0,1,4
1570181802805096,-1,0,1,-1,-1,-1,0,-2
1570181802805096,-2,-1,0,0,-1,-2,-3,-6
1570181802806313,4,-2,-1,0,2,-1,0,12
1570181802806313,1,-1,-1,-2,0,1,0,1
1570181802819209,-1,-2,-1,-1,0,0,1,0
1570181802819209,2,-1,1,0,-1,0,-1,4
1570181802826083,0,0,1,0,-2,-1,-1,-1
1570181802826083,-2,0,0,0,-1,0,-1,-3
1570181802843028,-1,0,-1,-1,-1,-1,-2,-2
1570181802843028,-1,1,-2,-1,2,1,3,12
1570181802843989,1,-2,-1,0,-1,1,1,7
1570181802843989,1,-1,-1,1,-2,1,0,-7
1570181802865141,3,1,-2,0,0,-2,0,-1
1570181802865141,-1,-2,-1,-1,-1,0,-1,-2
1570181802866925,-3,0,0,0,-2,-1,-2,-3
1570181802866925,1,-1,-2,-1,0,-1,1,7
1570181802879890,-2,0,1,0,-1,1,0,-2
1570181802879890,0,0,-1,-1,-1,-2,0,-4
1570181802886304,-5,-1,-2,-1,0,-2,0,-7
1570181802886304,-7,1,0,0,-1,-1,-4,-10
1570181802902829,1,-2,-2,-2,1,1,-1,0
1570181802902829,0,0,-2,0,-1,2,-1,-2
1570181802903827,-1,0,-2,0,1,0,-1,-2
1570181802903827,-3,-1,-1,-2,0,-2,0,-5
1570181802924771,-2,0,1,-1,-2,0,-1,0
1570181802924771,0,-1,0,0,0,-1,-1,-1
1570181802926768,1,1,0,-1,-1,0,0,-3
1570181802926768,1,0,-1,0,-1,-1,1,5
1570181802939737,0,-2,-2,-1,-2,-2,-1,-2
1570181802939737,1,-3,-1,-2,-1,-1,0,4
1570181802953919,4,-1,0,0,-1,-2,0,10
1570181802953919,3,-1,-1,1,-1,-1,-1,2
1570181802962920,-2,0,-2,-1,-1,-1,0,3
1570181802962920,-2,1,-2,0,-1,-1,-1,-8
1570181802963668,-2,0,-2,0,0,1,-1,0
1570181802963668,-1,0,0,-1,-2,-1,-2,2
1570181802984809,-2,-1,-3,-1,0,-1,2,-3
1570181802984809,-6,-2,-2,-2,-1,0,-4,-22
1570181802986604,0,-2,0,-1,1,0,-3,-5
1570181802986604,0,1,-1,-2,0,-2,1,3
1570181802998678,-3,-1,-1,0,0,-1,-1,-2
1570181802998678,-1,1,-1,-2,-1,0,0,0
1570181803007549,-1,1,-1,-1,-2,0,0,-1
1570181803007549,0,-1,0,1,-1,-2,-2,-1
1570181803022660,2,1,0,-1,0,-1,0,1
1570181803022660,3,1,-1,2,-1,0,0,5
1570181803023515,-4,-3,-1,1,-2,0,-6,-18
1570181803023515,2,0,0,0,-1,-2,0,4
1570181803045495,-2,0,-1,0,-3,-1,-4,-7
1570181803045495,0,-1,0,1,-1,0,-1,4
1570181803046447,0,0,-1,0,-1,1,0,2
1570181803046447,1,-2,-2,-2,-1,1,0,-2
1570181803067617,1,-1,0,-2,-1,1,-1,2
1570181803067617,-1,1,0,-1,0,-1,0,-6
1570181803069383,1,-1,-2,0,-1,-2,-1,0
1570181803069383,-6,-2,-1,0,1,-1,-3,-7
1570181803082354,2,-1,-2,0,-1,-1,1,2
1570181803082354,0,-2,-2,-2,-2,0,-1,0
1570181803084341,-3,0,0,0,0,0,0,0
1570181803084341,2,0,-1,0,0,1,2,5
1570181803105460,-2,0,-1,1,-1,0,-1,-5
1570181803105460,1,0,-1,-1,-1,-2,-1,5
1570181803106556,-2,0,-1,0,0,0,-1,-6
1570181803106556,1,0,1,1,-1,-1,-1,14
1570181803118463,-4,-1,0,-1,0,-1,1,-2
1570181803118463,1,-1,0,-1,-1,0,0,1
1570181803127291,2,1,-1,-2,-1,0,1,6
1570181803127291,-4,-2,0,-1,-1,-1,-1,-6
1570181803142509,-2,-2,-2,0,1,-1,-1,-4
1570181803142509,-1,0,0,-1,-1,-1,-2,3
1570181803144183,-4,-1,-1,-1,-1,-1,-2,-7
1570181803144183,-1,0,-2,0,-1,-1,-1,-7
1570181803165353,-1,-2,-1,-1,0,1,0,2
1570181803165353,0,-1,1,0,0,-1,0,-4
1570181803167121,-1,-2,-2,-1,-1,-1,2,2
1570181803167121,0,0,-1,-2,-1,0,0,5
1570181803179141,2,0,0,0,-2,-1,-1,4
1570181803179141,-1,0,0,-1,-1,0,-1,4
1570181803187363,-1,-1,2,0,0,-1,-1,-9
1570181803187363,1,-1,-1,-2,-1,-1,1,0
1570181803203092,0,0,-1,0,-1,-2,-3,5
1570181803203092,-1,0,-2,1,0,-1,-1,-2
1570181803204025,-3,0,0,-1,-2,-1,0,-2
1570181803204025,-3,-1,-2,-1,-1,0,-2,-3
1570181803232953,-1,-2,0,-3,0,-1,0,0
1570181803232953,1,-1,-2,0,-1,-1,0,-2
1570181803234211,2,-1,0,-1,0,-1,2,10
1570181803234211,-1,0,-1,0,-1,-1,-1,-8
1570181803238942,1,-2,-1,-1,0,0,0,3
1570181803238942,-1,-1,-1,-2,-1,1,0,0
1570181803247911,0,0,-2,0,-1,-1,-3,1
1570181803247911,-3,-1,1,-1,-1,-1,1,-2
1570181803262867,1,0,1,-1,-2,-1,-4,-3
1570181803262867,1,-2,-1,-1,-1,-2,2,12
1570181803263975,1,-1,0,-2,-1,0,0,-3
1570181803263975,-2,0,1,1,0,-1,-2,-4
1570181803285041,-1,1,-1,0,0,-2,1,5
1570181803285041,1,-1,-3,-1,-1,-1,-1,-5
1570181803286503,0,-1,-1,1,-1,-1,-1,3
1570181803286503,1,0,-1,0,0,1,2,3
1570181803298883,0,0,-1,-1,0,1,1,-1
1570181803298883,0,0,0,-1,0,0,0,6
1570181803307749,-3,-1,-2,-1,-1,0,-1,1
1570181803307749,1,-1,-1,0,0,1,0,-2
1570181803322756,-1,1,1,0,-2,0,-1,0
1570181803322756,-4,-2,1,-2,-1,-1,0,-3
1570181803323704,-3,-2,-2,0,0,0,-1,-7
1570181803323704,1,-1,-1,-1,0,-1,0,2
1570181803344957,-3,-2,-2,1,-1,-2,0,-3
1570181803344957,1,-1,-1,0,-1,-1,-2,-7
1570181803346649,-1,-1,1,0,0,0,-1,-2
1570181803346649,1,0,-1,-1,-2,1,0,1
1570181803358794,-1,0,0,0,1,-1,-2,-2
1570181803358794,-3,-2,-1,0,-1,0,0,-3
1570181803367770,1,-2,0,-1,-1,-1,-1,2
1570181803367770,0,-1,-2,-2,1,-2,-2,1
1570181803382850,-4,-1,0,-1,-2,0,-3,-6
1570181803382850,2,1,-1,-1,0,-1,1,4
1570181803383544,1,1,-3,-2,-2,-1,0,-4
1570181803383544,2,0,0,-1,0,0,3,6
1570181803404941,0,0,0,-1,0,-2,-1,-3
1570181803404941,-1,-1,-1,-1,-1,-1,-3,-2
1570181803406484,-1,0,-2,0,0,-1,2,0
1570181803406484,-2,-1,-2,-2,0,-3,-2,-4
1570181803427618,0,-2,-1,-1,0,0,1,-1
1570181803427618,0,0,0,-1,-1,-1,0,4
1570181803429420,2,0,1,-2,-2,-1,-1,-3
1570181803429420,-5,-2,0,-1,0,0,-3,-5
1570181803442602,-2,-1,-1,0,0,0,-2,-1
1570181803442602,2,0,0,-2,-2,-2,-1,3
1570181803444382,-1,-1,-1,0,-2,1,1,2
1570181803444382,0,-2,-2,0,-1,-1,1,0
1570181803465375,2,0,0,-1,0,-1,1,0
1570181803465375,-5,0,-1,0,0,-1,-1,-9
1570181803466324,-3,-1,-1,1,2,-1,0,0
1570181803466324,1,-1,0,0,-2,0,0,-2
1570181803487476,-2,0,0,0,-2,-1,-2,0
1570181803487476,-1,-1,-2,-2,0,-1,0,1
1570181803489348,-1,-2,1,-1,-1,0,-2,0
1570181803489348,-1,0,0,-1,0,-2,0,3
1570181803502233,0,-1,0,0,-2,0,-1,7
1570181803502233,-2,-2,-1,1,-1,-1,-2,-9
1570181803504220,1,0,1,-1,0,0,1,4
1570181803504220,4,0,-1,-2,0,0,0,10
1570181803525368,-3,-3,-2,-2,-2,-2,-1,0
1570181803525368,1,0,1,0,-1,-1,0,0
1570181803526713,3,-1,-1,-3,-1,0,1,3
1570181803526713,-2,-1,-2,2,-1,0,-2,-3
1570181803547104,1,-2,-1,-2,1,2,1,0
1570181803547104,-2,-2,0,-1,-1,0,-1,-2
1570181803549099,-1,-1,-2,-2,-2,-2,-1,-2
1570181803549099,0,1,0,2,-1,-1,-1,-3
1570181803562229,4,0,-2,-2,-2,0,2,5
1570181803562229,-3,-1,0,-1,0,-1,0,4
1570181803564130,2,-1,-2,0,-1,-2,0,3
1570181803564130,-7,-1,-1,-1,-2,-2,-5,-16
1570181803585005,2,-1,0,2,0,0,0,1
1570181803585005,-3,-1,-2,-2,-1,-2,-2,-8
1570181803586130,-1,-1,0,0,-1,0,1,0
1570181803586130,0,-1,-2,-1,-1,-1,0,-2
1570181803606943,0,1,0,0,0,-1,-1,-3
1570181803606943,0,-1,1,0,0,-1,-3,-1
1570181803608942,-3,-1,-1,-1,0,0,-1,-3
1570181803608942,0,-1,-1,-1,-1,0,0,0
1570181803621913,-1,-2,0,-3,0,-1,-1,-5
1570181803621913,0,0,-3,0,0,0,2,0
1570181803628950,-1,-1,-2,-1,0,-1,-1,-2
1570181803628950,1,0,1,-1,-2,0,0,1
1570181803645063,-6,1,-3,0,1,-1,-1,-11
1570181803645063,1,1,-1,-2,-1,-1,1,5
1570181803646839,-2,-1,-1,0,-1,1,0,0
1570181803646839,-1,-1,-1,0,-1,-1,0,0
1570181803667785,1,0,-1,0,-1,2,2,3
1570181803667785,-2,0,1,0,-2,-1,0,-3
1570181803669010,-3,1,0,-1,-1,-1,-1,-5
1570181803669010,-1,-2,-2,-1,-1,-2,-1,-8
1570181803681751,7,0,0,0,-1,-2,-1,14
1570181803681751,0,-1,-2,-1,1,1,-2,2
1570181803688725,1,-1,1,-1,-1,0,-1,2
1570181803688725,1,-1,-1,-1,1,0,-1,-1
1570181803704919,-3,-1,0,0,0,-1,0,-5
1570181803704919,-2,0,0,0,-1,-2,-3,-6
1570181803706690,3,0,-1,-1,0,0,1,4
1570181803706690,-4,-1,0,-2,-2,0,-3,-9
1570181803727675,0,0,-2,-2,-1,0,2,4
1570181803727675,-1,-2,1,-1,0,1,1,3
1570181803728634,-3,-1,-2,0,-1,0,-2,-5
1570181803728634,1,0,0,2,1,-1,-1,6
1570181803741773,-1,0,-2,-1,-2,0,-1,-5
1570181803741773,-4,0,0,0,-1,-2,-3,-6
1570181803748571,4,-1,0,0,0,-1,1,12
1570181803748571,0,-1,-2,-2,-1,0,0,-7
1570181803764871,1,0,1,0,0,-1,-3,6
1570181803764871,-1,0,-2,-1,0,0,0,-1
1570181803766595,-3,1,0,0,0,-2,-2,-9
1570181803766595,0,0,-2,0,-1,-1,1,3
1570181803787474,-3,-3,-1,-1,-1,-2,-3,-7
1570181803787474,0,0,0,-1,-1,0,-1,0
1570181803789460,2,0,-2,0,-1,0,1,4
1570181803789460,1,0,1,-2,0,1,2,5
1570181803801532,-5,0,-2,-1,-1,0,-1,-9
1570181803801532,3,0,0,1,-2,0,2,8
1570181803810402,-2,-2,-1,-1,-1,0,0,-4
1570181803810402,-2,-1,1,1,0,0,1,-2
1570181803825448,0,0,0,-1,0,-2,1,1
1570181803825448,0,-2,-1,-3,0,0,1,-2
1570181803826361,-5,1,2,1,1,-1,-5,-8
1570181803826361,1,0,-1,-1,-1,1,1,2
1570181803847552,-1,1,-1,-1,-1,-1,-3,-6
1570181803847552,3,1,-1,-1,-2,-1,-1,4
1570181803849301,0,0,-2,0,0,-1,2,-2
1570181803849301,-1,-1,0,-2,0,1,-1,15
1570181803861588,-1,1,-2,0,-2,-1,0,0
1570181803861588,0,0,-1,-1,-1,2,1,-2
1570181803870240,2,-2,-3,-3,-1,-1,-1,4
1570181803870240,-2,1,2,1,0,-2,-3,6
1570181803885249,3,-3,-1,0,1,-1,-1,-5
1570181803885249,-2,0,-1,1,0,1,-1,0
1570181803886263,-2,0,-1,0,-3,0,0,-5
1570181803886263,1,0,-2,-1,-1,-1,-1,-2
1570181803907358,1,1,-1,-1,0,0,-1,5
1570181803907358,-1,-1,-2,-1,0,-2,-2,-5
1570181803909140,-4,-2,0,-1,0,-1,-4,-13
1570181803909140,-2,-2,0,0,0,-1,-1,-4
1570181803921108,0,0,1,1,-1,0,1,0
1570181803921108,0,-1,-2,-1,0,-2,0,-1
1570181803930089,0,-2,0,-1,-1,-1,0,7
1570181803930089,-1,-1,-1,1,-1,-2,-2,-4
1570181803945201,-2,-1,0,-1,-1,-1,-1,-2
1570181803945201,0,0,-1,-1,-1,0,1,16
1570181803946050,-3,-1,-2,-3,-2,2,0,-5
1570181803946050,5,0,-2,0,0,-1,-1,0
1570181803967115,1,0,-1,-1,-1,2,1,5
1570181803967115,-1,-1,-1,0,-1,-1,-2,-3
1570181803973963,0,0,-1,1,0,0,-3,-3
1570181803973963,-1,-1,-1,-3,-2,-1,2,1
1570181803981315,0,-1,0,0,0,-1,-1,-3
1570181803981315,-1,-1,0,0,-1,1,-1,-6
1570181803989920,-1,0,-1,-1,1,-1,-1,-1
1570181803989920,-3,0,-1,-1,0,0,-2,-11
1570181804005357,0,0,-3,-1,-1,-1,-1,1
1570181804005357,-1,-2,-1,-1,1,1,-1,-2
1570181804006876,0,-1,0,1,-1,0,1,2
1570181804006876,-4,-2,-2,0,0,-1,-4,-16
1570181804027873,-4,-1,-2,-1,-1,1,-1,-5
1570181804027873,0,-2,0,-1,-2,0,-2,-4
1570181804029341,3,0,-2,-1,0,-1,1,6
1570181804029341,-1,-1,-2,-2,1,-1,0,3
1570181804040904,-2,0,-1,0,-2,-1,-1,-12
1570181804040904,-1,0,-2,-2,-1,-1,-2,-4
1570181804049822,6,-1,-1,-1,-1,-1,1,7
1570181804049822,-1,-1,0,-2,-1,0,2,1
1570181804065846,-3,-2,-1,-1,-1,-2,-1,-2
1570181804065846,-1,1,1,1,-1,-1,-1,4
1570181804067002,-1,-1,-1,-1,1,-1,1,0
1570181804067002,-3,0,0,0,-1,-1,-3,-2
1570181804087668,0,-2,-1,-2,1,0,-2,-2
1570181804087668,1,-2,-3,-2,0,-1,2,4
1570181804088656,-2,0,2,2,-2,-2,-1,0
1570181804088656,2,-1,1,-1,0,0,-1,-1
1570181804101690,2,-1,0,0,-1,-1,3,9
1570181804101690,-4,0,-3,-1,0,-1,-2,-1
1570181804109811,0,-1,-1,-2,-1,-1,0,-3
1570181804109811,0,0,-1,-2,0,-1,0,-2
1570181804125559,0,-1,0,-1,0,0,-2,1
1570181804125559,-3,-2,-1,0,2,0,-2,-8
1570181804127023,-2,0,1,-2,0,2,0,5
1570181804127023,-2,0,0,1,-1,-1,-1,3
1570181804147772,-3,0,0,-1,0,0,-3,2
1570181804147772,1,0,0,1,-2,-1,2,3
1570181804149259,-7,0,-4,-1,0,0,-4,-10
1570181804149259,2,-1,-1,1,0,0,2,1
1570181804161543,-1,-2,1,0,0,1,0,1
1570181804161543,-1,0,1,1,-1,0,-2,-8
1570181804170437,-1,-3,-1,-1,-1,-1,0,9
1570181804170437,0,0,-1,-1,-1,1,-1,2
1570181804185439,4,-1,-2,0,0,-1,0,7
1570181804185439,0,1,0,-2,0,-1,0,-1
1570181804186397,-1,-1,0,0,-1,0,0,-1
1570181804186397,1,1,-1,-1,-1,0,1,10
1570181804207394,-1,-1,-1,-2,-3,-2,-1,-6
1570181804207394,1,0,1,1,0,0,2,2
1570181804209356,-2,-2,-1,1,0,-2,-1,-3
1570181804209356,0,-3,-1,-1,0,0,0,1
1570181804221301,-2,0,-2,-2,0,1,-2,-2
1570181804221301,1,-1,-1,-1,-1,-1,-2,0
1570181804230278,2,-1,-2,-1,1,1,-1,-1
1570181804230278,3,0,-1,0,0,0,1,5
1570181804245253,-3,-1,1,-1,-1,-1,-2,-3
1570181804245253,-1,-2,-1,0,-1,-1,0,0
1570181804246410,3,0,0,0,-1,0,-1,-3
1570181804246410,-3,0,0,-1,-1,-1,-1,-2
1570181804267414,1,-1,-1,0,0,-1,2,5
1570181804267414,-2,-2,-2,-1,-1,-1,-1,-11
1570181804268644,3,-1,-1,-1,-2,-1,1,4
1570181804268644,2,0,-2,1,0,1,4,15
1570181804281182,0,0,0,0,1,0,0,-4
1570181804281182,-2,-1,0,-2,-1,-1,-2,2
1570181804290126,0,0,-1,-2,0,0,1,3
1570181804290126,-7,-1,-2,-1,0,-1,-2,-16
1570181804304247,0,-2,-2,1,-1,0,-2,0
1570181804304247,0,0,-2,-1,1,2,0,-1
1570181804313064,-3,1,0,-1,1,-1,-3,-8
1570181804313064,2,0,-2,-1,-1,-1,-1,0
1570181804327022,-3,1,0,0,0,-2,0,-4
1570181804327022,0,0,0,-1,-1,-2,0,-3
1570181804329014,-1,-1,-1,1,0,1,0,-1
1570181804329014,0,-2,-1,-1,1,1,-1,6
1570181804341086,-1,0,0,0,1,-3,0,1
1570181804341086,3,-2,1,-1,0,0,-1,9
1570181804349957,0,0,-2,0,-1,-2,0,1
1570181804349957,-3,-2,0,0,-3,-2,-2,-9
1570181804363970,4,0,-1,-1,-2,0,1,5
1570181804363970,-1,0,0,-1,-2,-1,-3,-7
1570181804371118,-2,-2,0,0,0,-1,-1,-1
1570181804371118,1,-1,-1,-1,-1,0,1,-1
1570181804387994,-5,0,-1,-1,0,-1,-2,-8
1570181804387994,0,0,0,-1,-2,0,1,-4
1570181804389852,-1,0,-1,-3,-1,-1,0,-1
1570181804389852,1,0,0,-1,0,-1,-1,1
1570181804410020,-1,-1,-2,-2,-2,-2,1,-2
1570181804410020,0,-2,-3,-2,0,-1,2,3
1570181804411793,2,-1,-1,0,-1,-1,-2,-1
1570181804411793,-4,-2,-1,-1,0,-1,0,8
1570181804424907,0,-2,-1,0,0,0,-2,-2
1570181804424907,-2,1,-2,0,0,0,-3,-1
1570181804426752,-1,-1,0,-2,-1,-1,0,-1
1570181804426752,-2,-1,-3,-3,-1,0,-1,-5
1570181804446747,-2,-1,0,-3,0,-2,-2,-3
1570181804446747,2,-2,-2,-2,-1,0,1,5
1570181804454681,0,-1,-1,0,-2,-1,-1,-1
1570181804454681,-1,-1,0,-1,-1,1,-1,-5
1570181804470638,-2,-1,0,0,0,1,3,11
1570181804470638,-1,-1,-1,1,0,-1,1,2
1570181804471632,-1,-1,1,-1,-1,0,0,1
1570181804471632,1,0,0,-1,-1,0,-1,-1
1570181804484813,0,-2,-3,1,-1,1,0,0
1570181804484813,-6,2,0,-1,0,-1,-1,-7
1570181804486890,-1,0,1,1,0,-1,1,5
1570181804486890,-1,-2,-1,-1,-1,-1,-3,-16
1570181804507761,3,0,-1,0,-1,-2,-2,3
1570181804507761,0,-2,0,-2,-1,-2,-3,-1
1570181804509024,-3,-1,0,0,-1,-1,-2,-6
1570181804509024,0,-1,-1,0,-2,0,2,5
1570181804529647,-1,-1,0,1,-2,-2,-3,-4
1570181804529647,3,-2,-1,-2,0,0,1,5
1570181804529647,-2,-1,-1,1,-2,-2,-1,-3
1570181804529647,-2,-2,1,-1,-2,-1,-3,-8
1570181804543685,2,-1,-1,-1,0,0,1,3
1570181804543685,-1,0,-1,-1,0,-1,0,0
1570181804551711,-1,-1,-2,-2,1,-2,-3,1
1570181804551711,0,2,0,0,1,0,1,0
1570181804567378,-1,1,0,1,-2,-1,-1,-1
1570181804567378,-1,-1,-1,-1,-2,-1,-1,-8
1570181804567378,3,-1,-2,-1,0,0,2,8
1570181804567378,-1,1,0,0,-1,-2,-1,0
1570181804589601,-2,0,1,-2,0,0,1,1
1570181804589601,-1,-1,-1,-1,-2,-1,-1,0
1570181804590325,-3,2,0,-1,0,-1,0,-6
1570181804590325,-1,-1,-1,-1,-1,-1,-2,2
1570181804603405,-2,-3,-1,-3,-1,1,-1,-3
1570181804603405,-2,-1,0,0,-1,-1,-1,-3
1570181804619251,-1,-1,-1,0,-1,0,-1,-2
1570181804619251,0,0,0,-1,0,-2,2,1
1570181804627247,8,1,-1,0,0,1,3,24
1570181804627247,0,0,0,1,1,0,0,2
1570181804627247,0,0,-1,0,0,0,-1,0
1570181804627247,2,0,-1,-1,-1,-1,1,3
1570181804649321,-2,0,-1,0,-1,1,-2,-15
1570181804649321,-1,0,1,0,-1,-1,-1,2
1570181804650167,0,-2,-2,-2,1,1,0,8
1570181804650167,0,0,-1,1,0,-2,-2,-3
1570181804663127,-5,-2,-1,-3,-1,1,0,-13
1570181804663127,1,0,-1,0,0,-2,-2,4
1570181804672215,-3,-2,1,-1,0,-1,-2,-9
1570181804672215,0,-1,-1,-1,0,1,0,-2
1570181804687059,-2,0,0,-2,-1,-2,-2,-4
1570181804687059,-1,-1,-1,-1,-1,0,-1,-4
1570181804687281,-1,1,2,0,0,0,2,5
1570181804687281,5,-1,-2,0,1,-1,1,7
1570181804709033,-2,-1,0,0,0,1,-2,-2
1570181804709033,-1,-2,0,-1,0,-1,0,2
1570181804709996,0,0,0,0,-1,-1,-3,-6
1570181804709996,-2,0,-1,-2,-1,1,1,2
1570181804724014,0,-1,-1,-1,-2,0,0,-1
1570181804724014,0,0,-2,0,1,1,-1,-3
1570181804732148,2,-2,-1,-2,-2,2,1,2
1570181804732148,-3,-1,1,-1,-1,0,0,-4
1570181804746902,-3,0,1,0,-1,-3,-2,-5
1570181804746902,-4,-1,-2,-2,-2,-2,0,-7
1570181804747893,2,0,-1,1,0,-1,1,3
1570181804747893,-1,0,0,3,0,-1,-2,-5
1570181804769389,-1,0,-2,0,-1,-1,0,-1
1570181804769389,-2,0,1,0,-2,0,0,0
1570181804769837,-3,0,-1,0,-2,-1,0,-6
1570181804769837,-2,-2,1,-1,-2,-2,-3,-1
1570181804784865,1,0,0,-1,0,-1,0,0
1570181804784865,0,-1,-1,0,1,0,0,1
1570181804791783,0,-1,-2,0,-1,1,-2,2
1570181804791783,-3,0,-1,-1,1,0,-2,-3
1570181804806776,1,-2,-2,-1,0,0,2,5
1570181804806776,0,-1,-1,0,-2,0,0,-3
1570181804807733,-2,-2,0,-2,0,-2,-2,-6
1570181804807733,1,0,-1,-1,-1,0,2,2
1570181804829676,-1,-1,-1,0,0,0,-1,-1
1570181804829676,1,-1,0,-1,0,0,-2,1
1570181804829676,0,0,-1,1,-1,-1,-2,2
1570181804829676,-3,-1,-2,-1,-1,-2,-2,-1
1570181804843874,-1,-1,-1,0,0,-1,-1,-2
1570181804843874,1,0,1,0,0,1,0,1
1570181804851722,-6,-3,-1,-2,0,1,0,-9
1570181804851722,3,-1,-1,-1,-1,0,-1,3
1570181804866732,1,0,1,-2,-1,-2,-2,-6
1570181804866732,0,1,0,0,-1,0,-2,-1
1570181804867578,-1,0,0,0,-2,-1,-1,0
1570181804867578,-1,-3,0,0,-2,-2,-1,-13
1570181804897741,-1,-1,0,0,-1,0,-1,1
1570181804897741,0,-1,-2,-1,0,0,1,0
1570181804898494,-2,-1,-1,0,0,2,-1,-5
1570181804898494,-1,2,0,0,1,1,1,9
1570181804903522,1,0,0,-1,-1,-2,-1,3
1570181804903522,4,-1,0,-1,-1,-1,0,5
1570181804911466,-1,0,-2,0,0,-1,-1,-6
1570181804911466,-2,-1,0,-1,0,-1,0,-7
1570181804927420,-1,0,-1,0,-1,0,0,0
1570181804927420,1,-3,-1,-1,-1,-1,2,6
1570181804927420,1,-1,-3,-1,-3,-2,0,5
1570181804927420,1,-2,-1,-1,1,-1,0,3
1570181804949485,-3,-1,-2,-1,-1,1,-1,-1
1570181804949485,-2,2,-2,-1,0,-1,-2,-5
1570181804950354,3,-2,1,-1,-1,-2,-2,3
1570181804950354,0,-1,-1,0,1,0,0,1
1570181804963366,-1,-1,-1,0,-1,-1,-2,-10
1570181804963366,-2,-1,0,0,1,-1,-1,-4
1570181804971860,2,2,0,-1,-2,0,1,2
1570181804971860,-2,0,-2,-1,-2,0,1,-2
1570181804986265,-1,-1,0,-1,-1,-2,-2,2
1570181804986265,-3,-1,0,-1,-1,-2,1,-1
1570181804987257,-3,-2,-1,-1,1,0,-2,-2
1570181804987257,1,-2,0,-1,-1,0,-1,1
1570181805009196,1,0,0,-1,-2,0,1,5
1570181805009196,-3,-1,0,0,-2,-1,-2,-7
1570181805010208,0,0,1,0,-1,-1,-1,1
1570181805010208,-3,-1,-1,-1,1,-3,-2,-6
1570181805024195,0,-2,-1,2,1,-2,1,4
1570181805024195,-2,-1,1,-2,-2,-1,-2,-2
1570181805032200,-1,-2,1,0,-1,0,-1,1
1570181805032200,0,1,0,-1,-1,-1,0,-2
1570181805047274,1,-1,-1,-1,1,0,5,14
1570181805047274,-4,-1,0,0,-2,0,-1,-8
1570181805048093,-4,0,-2,0,-1,-1,-1,-2
1570181805048093,6,-1,-1,0,-1,0,1,14
1570181805069043,-1,0,1,-1,1,1,-1,-3
1570181805069043,-1,-2,-1,0,0,-1,0,2
1570181805070205,4,0,-1,-1,0,0,2,6
1570181805070205,-2,1,2,0,0,-2,-2,-4
1570181805083999,-3,-1,0,0,-2,-2,-1,-10
1570181805083999,4,0,2,1,-2,-2,0,7
1570181805092188,-2,-1,-1,-1,-1,-1,-1,-5
1570181805092188,-1,1,-1,-2,1,-1,0,1
1570181805107256,0,0,-1,-2,-1,-2,-2,-5
1570181805107256,-1,0,-1,-2,1,1,1,-1
1570181805107934,-1,-2,0,-2,0,0,-1,4
1570181805107934,0,-2,0,-1,-1,0,0,0
1570181805129122,-3,-2,0,-1,-1,0,-2,0
1570181805129122,1,0,-1,-1,-1,0,1,-4
1570181805129879,-1,-2,-1,-2,0,0,-1,4
1570181805129879,-3,-1,-2,-1,-1,-1,-2,-10
1570181805152897,-1,-3,-2,-2,0,-1,-1,0
1570181805152897,-2,-2,-2,-2,0,-1,-1,3
1570181805152897,-1,3,1,2,-1,-2,1,1
1570181805152897,-1,-1,-1,0,-1,0,0,-4
1570181805166774,0,0,-2,-1,-1,-2,-1,1
1570181805166774,-1,1,-2,-2,-1,-1,-1,1
1570181805167769,-1,-1,-2,0,-1,-2,-1,-6
1570181805167769,0,2,0,0,0,0,-2,-1
1570181805188748,-1,0,-1,-1,-1,-1,0,-2
1570181805188748,2,0,0,0,1,1,-1,3
1570181805189981,0,0,0,-1,0,-1,-1,-3
1570181805189981,0,-1,-2,0,-1,-1,0,5
1570181805204198,1,-1,0,0,2,1,-1,-10
1570181805204198,-4,-1,0,0,-1,0,-3,-7
1570181805211690,1,-1,0,-2,0,0,3,2
1570181805211690,-2,0,0,-1,0,-1,-1,-2
1570181805226917,0,1,1,1,0,-2,-1,0
1570181805226917,-3,-2,-2,-2,-1,-2,-1,-2
1570181805227650,1,-2,0,0,-2,-1,1,0
1570181805227650,-5,-2,-2,-2,-2,0,-3,-17
1570181805249641,-1,-1,0,0,-1,0,0,1
1570181805249641,2,0,0,-1,2,0,0,0
1570181805249641,0,-1,-1,-2,0,-1,0,4
1570181805249641,-1,-1,0,-1,1,-1,-1,3
1570181805263674,-2,0,-1,1,-2,0,0,5
1570181805263674,-1,1,-1,0,0,-1,-2,-2
1570181805271563,-2,-3,-1,-1,0,-1,-1,-6
1570181805271563,1,-1,0,-1,-2,-1,1,2
1570181805286540,3,0,-2,-2,-1,0,0,2
1570181805286540,1,-1,0,-1,-1,-1,-1,4
1570181805287485,-1,0,0,-1,-2,-1,-3,-1
1570181805287485,5,1,-1,0,-1,1,1,6
1570181805309711,0,-1,0,0,0,-3,0,1
1570181805309711,-2,0,0,-1,-1,0,3,-2
1570181805310426,-1,-1,-1,-2,0,0,-2,0
1570181805310426,-3,-1,1,0,0,0,0,1
1570181805332547,-3,0,-1,-1,1,1,0,-6
1570181805332547,2,1,0,-1,0,-2,0,4
1570181805333365,-3,-1,-1,0,-1,-1,-2,-8
1570181805333365,0,-1,-1,-1,0,0,0,9
1570181805347327,5,0,-1,-1,0,0,1,14
1570181805347327,-2,0,1,0,-1,0,-2,-5
1570181805347327,0,-1,-2,0,0,0,-2,0
1570181805347327,2,-1,-1,-2,-2,-1,1,4
1570181805369276,-3,1,0,-1,-2,0,-1,-3
1570181805369276,0,0,-1,0,-2,-2,2,3
1570181805370264,0,0,0,0,-1,-1,1,0
1570181805370264,0,0,-1,1,1,0,1,-5
1570181805392662,0,-1,-1,-2,0,-3,-1,1
1570181805392662,-5,-2,-2,0,1,0,-1,-4
1570181805393207,0,0,1,1,0,-1,-4,-6
1570181805393207,-1,-2,-2,-2,-2,-2,0,0
1570181805407261,-1,0,-1,-1,0,-2,-1,-4
1570181805407261,-2,1,0,-2,1,1,0,2
1570181805407261,0,0,-1,-1,0,-1,1,-3
1570181805407261,3,-1,0,-2,1,0,-1,17
1570181805429152,1,-2,1,-1,-2,0,0,-6
1570181805429152,1,-1,-1,-1,-1,-1,-2,0
1570181805430105,2,0,-2,-1,0,1,3,8
1570181805430105,-4,0,0,0,0,-1,-1,-5
1570181805452049,4,0,-1,0,0,-1,2,5
1570181805452049,3,0,0,0,0,-1,0,7
1570181805453051,-2,0,-1,-2,1,0,-1,-3
1570181805453051,-3,0,-1,-1,-1,-2,-3,-20
1570181805475269,0,-1,-1,1,-1,0,1,6
1570181805475269,0,-2,0,-1,-1,1,1,1
1570181805476006,-3,-1,1,1,1,0,-1,-1
1570181805476006,-1,0,-2,0,-2,-2,-3,-5
1570181805489157,-3,-2,-1,-1,-1,-1,0,-4
1570181805489157,-1,-1,-1,-2,-1,0,-1,5
1570181805489951,1,0,-1,-1,-1,-1,0,0
1570181805489951,0,-2,0,-1,0,0,0,-2
1570181805512933,-3,-2,0,-2,0,2,-1,-2
1570181805512933,-1,0,0,0,-1,-1,-2,-1
1570181805512933,-2,-1,0,-1,-1,0,-1,-4
1570181805512933,0,0,-1,-1,-1,0,0,3
1570181805526861,0,0,-2,-1,-1,0,0,0
1570181805526861,0,-1,-2,-1,0,-1,-1,-4
1570181805528206,-1,-2,-1,-2,-1,0,-2,4
1570181805528206,0,-1,-2,0,-1,-1,-2,-4
1570181805549112,-1,0,1,-1,-3,-3,-5,-1
1570181805549112,2,1,-1,0,-1,-1,-1,-2
1570181805549788,1,1,1,-1,-1,-2,-1,-1
1570181805549788,-1,0,0,1,1,-2,1,2
1570181805572828,-3,0,-1,-1,1,-1,-1,-6
1570181805572828,-1,0,0,0,0,2,5,23
1570181805572828,1,0,-1,1,-3,0,0,-6
1570181805572828,-2,-1,-1,-2,-2,-1,0,-3
1570181805586845,2,-1,-1,-1,0,0,-3,-4
1570181805586845,-1,1,-1,-1,-3,-2,-5,-8
1570181805587698,0,-1,-1,0,-3,-1,1,1
1570181805587698,0,0,0,-1,0,0,1,0
1570181805609749,0,-1,-1,0,-2,-2,1,3
1570181805609749,1,0,-1,-2,-2,-1,-1,-3
1570181805609749,-2,0,0,-1,-1,-1,1,0
1570181805609749,-1,0,1,2,-1,1,-2,-3
1570181805632891,-3,-1,-1,-1,0,0,-1,-1
1570181805632891,-3,-1,0,1,1,-2,-2,-6
1570181805633562,-1,-1,-2,-1,0,-1,0,0
1570181805633562,2,-2,0,0,0,0,0,4
1570181805646660,-2,-2,-1,-2,-1,0,-1,1
1570181805646660,-1,1,-1,0,-1,-3,-1,-3
1570181805647533,1,0,-1,0,0,0,4,18
1570181805647533,0,-1,0,0,-1,-1,-3,0
1570181805669463,-3,-1,0,0,-1,-2,-1,-4
1570181805669463,-1,1,1,-1,0,1,1,-4
1570181805669712,1,-2,0,-1,-1,-2,-1,-3
1570181805669712,-1,0,-1,-1,1,-1,-1,1
1570181805692405,0,-1,-1,0,-1,-1,2,1
1570181805692405,-2,-1,-1,-1,-1,-1,-2,-7
1570181805693515,3,-2,-1,-1,-1,0,-2,4
1570181805693515,-1,0,-3,-1,-1,-3,-1,-3
1570181805706365,4,0,-3,-2,-1,-1,-2,8
1570181805706365,0,-1,-3,0,0,1,1,0
1570181805707363,-1,0,0,-1,0,1,-2,-3
1570181805707363,-2,-2,-1,-1,0,0,-3,-3
1570181805729312,-3,1,-1,-2,1,1,-1,-10
1570181805729312,1,-1,0,-1,-1,-1,0,-1
1570181805730303,-6,1,-1,-1,0,0,-2,-6
1570181805730303,1,-2,0,-1,-1,0,-2,-4
1570181805752241,0,1,0,0,-1,0,1,-1
1570181805752241,0,-1,0,-3,-1,0,0,-1
1570181805753468,-3,0,0,-1,0,-1,-2,-7
1570181805753468,-1,-2,-1,0,-2,-2,-1,2
1570181805766204,-1,-1,0,1,-2,1,-1,-2
1570181805766204,-1,-1,0,1,-1,-2,-2,-1
1570181805767285,-3,-1,-1,-1,-1,-2,0,-7
1570181805767285,5,1,-1,0,0,1,4,13
1570181805789149,-1,-2,-1,0,1,1,1,6
1570181805789149,-1,1,-1,0,-1,0,0,-4
1570181805790241,0,-1,-1,-2,-2,0,0,-1
1570181805790241,3,0,0,-1,-2,-2,1,3
1570181805812083,-2,0,0,0,-1,-1,0,-3
1570181805812083,-3,-3,0,-1,0,-1,-1,-4
1570181805813080,6,-1,-1,-1,-2,0,-1,7
1570181805813080,-5,0,0,-1,-1,0,-1,-5
1570181805827042,1,-1,0,-1,-1,-2,-1,-1
1570181805827042,1,-1,-1,0,0,0,-1,-1
1570181805827226,-2,-1,-2,0,0,-1,-1,0
1570181805827226,-4,0,-1,0,1,0,-4,-5
1570181805848990,0,0,-1,0,0,0,-1,-3
1570181805848990,-3,-1,-1,0,-1,1,-2,0
1570181805849980,-2,-1,0,-1,1,-1,0,0
1570181805849980,1,-1,-2,1,0,-1,1,1
1570181805871957,-2,1,-1,0,0,0,0,-1
1570181805871957,0,-2,-3,-1,-1,0,1,0
1570181805872925,-4,-2,0,1,0,0,-2,-2
1570181805872925,1,-1,-1,0,0,-1,-1,1
1570181805894861,0,-1,2,1,0,-1,-1,-1
1570181805894861,2,0,-2,-2,-3,-2,0,4
1570181805895858,0,-1,0,-1,0,1,-2,-1
1570181805895858,3,-1,-2,-3,0,1,2,6
1570181805908829,0,1,1,-3,0,-1,0,-3
1570181805908829,3,1,1,-1,-2,-1,2,6
1570181805909823,-2,0,1,-1,1,-1,-5,-6
1570181805909823,-2,0,-1,1,-1,0,-2,-4
1570181805932759,-1,-2,-2,-1,-1,-1,0,4
1570181805932759,0,-1,1,0,0,-3,-3,-8
1570181805932759,3,2,0,-1,0,0,5,13
1570181805932759,-5,-1,0,0,-1,-1,-1,-13
1570181805945725,0,-1,-1,-1,-1,-1,-1,2
1570181805945725,-5,-1,0,1,2,1,-1,-1
1570181805953841,-1,-1,-1,-2,0,0,0,-4
1570181805953841,-2,-2,0,-1,-1,-2,-3,-1
1570181805969661,1,-1,-1,1,-1,0,2,1
1570181805969661,-1,0,-2,-2,0,0,-1,0
1570181805969661,-1,-2,-3,0,-1,-1,0,-4
1570181805969661,-2,-1,0,-1,-1,1,0,4
1570181805992600,-1,-3,0,-1,-3,1,-1,-4
1570181805992600,3,-2,1,0,-2,-1,-1,6
1570181805993582,-1,0,-2,-1,0,-2,0,0
1570181805993582,1,0,0,1,-2,0,0,1
1570181806006295,-2,-1,-1,-1,-1,-1,-1,4
1570181806006295,-1,0,-1,-1,0,0,-2,-5
1570181806014542,2,1,-1,0,-1,-2,0,5
1570181806014542,-2,-1,0,-2,-2,-2,-2,-5
1570181806029502,0,-1,0,-2,1,1,1,2
1570181806029502,-6,0,-3,-1,0,-2,-1,-7
1570181806029502,0,0,0,0,0,0,-1,-2
1570181806029502,-1,-2,-1,1,0,0,2,1
1570181806052438,0,0,-2,-2,0,1,-2,-3
1570181806052438,-2,-1,1,0,0,-4,-2,-1
1570181806053524,-1,-1,-2,-1,-2,0,-1,-1
1570181806053524,1,-1,-1,-1,-1,0,0,3
1570181806066406,-1,-2,-1,1,-2,-2,-1,-4
1570181806066406,0,-1,-2,-1,-1,2,0,2
1570181806074380,-1,-2,-1,-1,0,-1,-1,-1
1570181806074380,1,-1,-1,-2,1,1,-1,8
1570181806089351,-3,0,-1,-1,1,-2,-6,-22
1570181806089351,-2,-2,-1,0,-2,-2,-4,-8
1570181806096871,5,0,0,1,-1,-1,1,7
1570181806096871,-4,0,0,0,-1,0,-1,-5
1570181806112049,-1,0,0,1,0,-1,0,-1
1570181806112049,2,0,0,-1,1,1,1,7
1570181806113163,-1,-2,0,0,-3,0,-3,-1
1570181806113163,0,0,-1,-1,0,-1,-1,0
1570181806126372,0,-1,-1,-1,0,-1,2,1
1570181806126372,-1,-1,0,-1,-1,0,0,4
1570181806133912,-3,-3,-1,-2,-1,0,-2,1
1570181806133912,1,0,-1,1,0,-3,0,1
1570181806149442,-2,-1,0,-1,0,-2,-2,0
1570181806149442,0,0,-1,-2,-1,-1,0,7
1570181806150439,-2,-1,0,-1,2,0,-1,-7
1570181806150439,3,-2,1,-1,0,1,-1,-4
1570181806172675,2,0,-1,1,-1,1,2,7
1570181806172675,0,-2,-1,2,-2,0,-1,-2
1570181806173049,-6,-3,-2,0,-1,2,11,-14
1570181806173049,-2,-2,-1,-1,0,-1,-1,1
1570181806186013,1,-1,-2,-3,-1,-1,-1,1
1570181806186013,-1,0,-1,-1,0,-2,-5,-2
1570181806194129,-2,0,-1,1,1,-1,-1,1
1570181806194129,-1,-1,-1,0,-1,0,2,1
1570181806209270,-3,-1,-1,-2,0,0,0,-2
1570181806209270,-1,1,-3,-1,-2,0,0,-3
1570181806210088,0,-2,-1,-1,-1,-1,-5,-5
1570181806210088,0,0,-1,-1,-1,-1,0,10
1570181806232034,1,-1,0,-1,1,0,-1,5
1570181806232034,-1,-1,1,-1,0,0,-3,-2
1570181806233026,1,0,-1,0,-1,-1,0,9
1570181806233026,-3,0,0,0,-1,-2,-2,-8
1570181806246354,0,-1,-1,-1,-1,1,3,3
1570181806246354,-2,-1,-1,-1,0,0,0,-9
1570181806254685,1,-2,0,0,-1,-3,-3,-4
1570181806254685,-1,-1,-1,-1,-1,0,0,-1
1570181806269186,-2,-1,-2,1,-1,-3,-3,2
1570181806269186,-3,-1,1,1,-1,2,0,0
1570181806270185,0,-1,-2,-1,0,0,-1,0
1570181806270185,-5,1,0,0,-1,-2,-2,-15
1570181806292303,4,-1,-1,-1,0,1,2,7
1570181806292303,1,0,0,-1,-2,-1,-1,3
1570181806294514,-3,-1,-1,-1,-1,0,-1,4
1570181806294514,1,-1,-3,-2,-1,-2,0,3
1570181806314947,-4,0,0,1,-2,-1,-3,-5
1570181806314947,-3,0,0,-1,-1,0,0,-5
1570181806315944,3,0,0,-1,-1,-1,-2,2
1570181806315944,0,-2,0,-2,0,0,-1,2
1570181806329103,0,1,1,0,-1,-1,-2,-1
1570181806329103,-2,0,0,1,0,-1,2,3
1570181806329961,1,-1,-2,-1,-1,-2,0,-1
1570181806329961,1,-1,-1,-2,-1,0,0,1
1570181806351902,-3,-3,1,1,-2,-2,-3,-6
1570181806351902,0,1,-1,-2,0,0,0,-3
1570181806353177,1,-1,0,-1,-2,-1,-1,-2
1570181806353177,0,-1,0,1,-1,0,0,2
1570181806374913,-5,-2,-1,-2,0,0,-1,-8
1570181806374913,3,-1,-2,0,-2,0,2,6
1570181806375838,-2,1,0,-1,0,-1,-4,-17
1570181806375838,0,1,0,0,0,0,-2,1
1570181806388804,2,-1,-2,-2,-1,0,-1,3
1570181806388804,-1,-1,0,-1,0,-1,-2,3
1570181806389801,-3,-1,0,1,1,-1,0,0
1570181806389801,-2,0,0,1,1,-2,0,-4
1570181806412310,-4,0,-1,-1,0,0,1,-6
1570181806412310,0,-2,-1,-1,-1,-2,-2,-7
1570181806413308,0,0,0,1,-1,1,0,5
1570181806413308,2,-2,-1,-1,-1,-1,0,2
1570181806435313,3,0,-1,-1,-2,-1,-3,2
1570181806435313,-2,0,-1,0,2,0,0,-3
1570181806435313,-3,-2,-1,-1,-1,-1,-4,-2
1570181806435313,2,-2,-1,0,-1,-1,2,8
1570181806449211,0,1,0,0,-1,-1,1,5
1570181806449211,-2,-2,-2,-1,-2,-1,-1,-4
1570181806450475,1,3,-1,0,-1,-3,-1,-1
1570181806450475,3,0,-2,-1,0,1,-2,5
1570181806472148,-1,-1,0,0,0,-3,-2,2
1570181806472148,-1,-2,0,0,-2,0,1,3
1570181806473146,-5,-2,0,-2,1,-2,-3,-4
1570181806473146,-1,0,0,0,-1,-1,0,-8
1570181806495089,1,-2,0,-1,0,1,0,3
1570181806495089,0,0,1,0,-1,0,0,2
1570181806495089,0,0,-1,0,0,2,1,11
1570181806495089,-3,-2,0,-2,0,-1,-1,-5
1570181806509245,-5,0,-2,-3,-1,2,13,-14
1570181806509245,1,0,0,-1,0,-1,1,3
1570181806510047,2,1,0,1,0,-1,-10,9
1570181806510047,-3,0,-2,-2,0,0,-4,-3
1570181806532041,1,-2,0,0,0,-1,-2,2
1570181806532041,-1,-1,-1,-2,-1,0,0,-5
1570181806533203,1,-2,-1,0,0,0,5,4
1570181806533203,-2,-1,0,-1,-2,-1,1,-7
1570181806554928,4,0,-1,0,-1,-2,-4,13
1570181806554928,-1,1,-1,0,-3,-2,-2,-5
1570181806554928,-2,0,-1,-2,-1,-1,-3,-4
1570181806554928,1,1,0,-2,-1,0,-2,4
1570181806568890,-6,-2,0,-1,0,0,-2,-3
1570181806568890,1,-1,-1,-1,-1,0,0,5
1570181806569888,-3,-2,-1,0,1,1,6,-5
1570181806569888,0,-2,-2,-1,-1,0,1,-2
1570181806600096,3,1,0,-1,-2,-3,-5,-9
1570181806600096,1,-1,0,1,0,-1,-2,2
1570181806600805,2,-1,-1,-3,-2,1,0,2
1570181806600805,0,0,1,0,0,-2,2,13
1570181806614832,-1,0,-1,-1,0,0,0,2
1570181806614832,1,-2,-2,-2,0,0,1,13
1570181806615765,1,0,0,-2,-2,0,-1,-4
1570181806615765,-3,-1,1,1,-1,-1,-2,-3
1570181806628731,-3,1,-1,1,0,-1,1,-2
1570181806628731,-1,0,-1,1,-1,0,-1,-5
1570181806629730,-1,-1,-2,-2,-2,-1,-1,1
1570181806629730,1,1,-2,-1,-1,0,1,4
1570181806652872,-5,0,-1,-1,-2,0,-4,-12
1570181806652872,0,0,-1,0,0,0,0,3
1570181806652872,-3,-2,-3,-2,-2,1,13,-18
1570181806652872,1,0,0,-1,0,-1,-6,-2
1570181806675188,0,0,-2,-3,0,1,0,6
1570181806675188,0,0,-1,0,0,-1,-1,2
1570181806675810,-1,-1,2,2,0,-3,-1,-2
1570181806675810,-3,-2,-1,-1,-1,0,0,-3
1570181806688775,0,-2,-3,-1,-1,0,0,2
1570181806688775,-4,0,-1,-2,0,-1,-4,-23
1570181806689772,-2,0,-1,-4,-1,-2,-4,7
1570181806689772,-1,-1,-2,1,-1,0,-2,-7
1570181806712762,0,-1,1,0,0,-1,-3,-3
1570181806712762,1,0,-2,-3,-2,-1,-2,2
1570181806713707,-1,0,-2,-1,2,-1,-2,-1
1570181806713707,0,0,0,-2,-1,0,-1,1
1570181806734653,-1,-3,-1,-1,0,0,1,-1
1570181806734653,-1,-2,-2,0,-1,-1,0,3
1570181806735652,0,-2,-1,-1,-1,-1,-4,-8
1570181806735652,0,0,0,0,0,-1,0,-1
1570181806748613,0,1,0,0,-1,0,-2,-1
1570181806748613,2,-1,0,0,-1,0,1,3
1570181806749611,1,-1,0,1,-1,1,0,6
1570181806749611,-1,0,0,1,-1,-2,0,-3
1570181806772549,1,-1,-1,-1,0,0,0,0
1570181806772549,0,1,-1,-2,-3,-3,-17,-1
1570181806773296,-4,1,-1,0,0,0,-1,-3
1570181806773296,0,-3,0,-2,1,0,-2,0
1570181806794590,1,-1,0,-1,1,-2,-1,3
1570181806794590,-1,-2,-1,1,-1,-1,3,1
1570181806795487,-2,-1,-1,0,0,0,0,-1
1570181806795487,3,1,0,-1,-2,-1,1,9
1570181806809453,1,-2,-1,-1,-2,-2,1,-1
1570181806809453,-5,-1,0,-2,-1,1,2,-2
1570181806809453,-1,-1,1,0,-3,-1,-4,-14
1570181806809453,2,1,-2,-1,0,1,3,2
1570181806831391,-1,-2,-2,-2,0,0,0,2
1570181806831391,-2,-1,0,-1,-1,-1,0,0
1570181806839369,2,-1,0,-1,-1,1,1,9
1570181806839369,-3,-1,-2,0,-1,0,-1,-3
1570181806854329,-1,1,-1,-2,0,-1,-3,-11
1570181806854329,3,0,0,-2,0,2,4,10
1570181806855424,-3,-2,-4,-2,-1,1,14,-8
1570181806855424,1,-2,-1,0,-1,-1,-3,0
1570181806868293,1,1,-2,-1,-1,1,0,8
1570181806868293,-3,-1,-1,0,0,-1,2,-5
1570181806876274,0,0,-1,-1,-1,-2,-2,3
1570181806876274,-2,1,0,-1,1,0,0,-4
1570181806892230,-1,-1,0,1,-2,0,-1,2
1570181806892230,0,-1,-2,1,0,0,0,-7
1570181806893226,0,0,1,1,0,-1,-7,8
1570181806893226,0,-1,0,-1,-1,0,-1,0
1570181806915168,-2,1,0,0,-1,-1,-3,4
1570181806915168,-1,1,0,-1,-1,0,0,-5
1570181806915168,0,-1,-1,-1,-2,0,-3,3
1570181806915168,-2,-1,-2,-2,-1,0,-1,-3
1570181806928133,-2,-2,-1,-1,-2,-2,1,-2
1570181806928133,-2,1,-1,-1,-1,-1,1,-5
1570181806937109,-1,0,-1,1,-2,-2,-6,1
1570181806937109,5,-1,-3,-1,0,2,5,7
1570181806952068,-2,-2,0,0,0,-2,-4,-14
1570181806952068,0,-1,0,-1,1,-3,2,5
1570181806953066,-2,1,0,-1,0,1,-3,-3
1570181806953066,-3,-1,-1,-1,-2,-2,-2,-10
1570181806975007,-5,-1,0,-1,-1,1,8,-3
1570181806975007,-1,-2,-1,0,-1,1,0,-1
1570181806976005,3,1,-2,-1,-1,0,1,4
1570181806976005,-2,-2,-1,1,-1,-2,-2,1
1570181806987976,0,-1,-2,-1,-1,0,0,-1
1570181806987976,-1,0,1,-2,1,-1,-1,-2
1570181806997946,-1,0,-1,0,0,0,0,0
1570181806997946,-1,-1,-3,-1,-1,1,3,8
1570181807011909,-1,-1,0,-2,0,-1,-2,6
1570181807011909,-3,-3,-1,0,-1,-1,0,-2
1570181807014056,3,-1,-1,0,-1,-2,-3,-6
1570181807014056,-3,-1,2,0,1,-2,1,-7
1570181807034854,-1,-2,0,0,-1,0,-2,-1
1570181807034854,0,0,-1,-1,-2,1,-2,14
1570181807036842,1,-2,-1,0,-1,-3,1,0
1570181807036842,-4,0,1,0,0,0,-3,-10
1570181807048810,5,-1,-2,-1,-1,0,1,1
1570181807048810,-3,0,0,0,1,-1,-1,-8
1570181807057814,-1,0,0,-2,-1,0,-3,2
1570181807057814,-1,1,0,-3,-1,0,0,0
1570181807072749,-1,-1,-1,0,0,1,-1,2
1570181807072749,2,-1,-2,-1,-1,-2,0,3
1570181807073746,-3,-1,1,1,2,1,-2,-8
1570181807073746,-2,-1,-1,1,-1,0,-4,1
1570181807094690,-5,-2,1,-1,-1,-1,-3,-9
1570181807094690,1,1,0,0,-1,-1,1,2
1570181807096685,0,0,-1,0,-2,-2,0,1
1570181807096685,-2,-2,-1,-1,-1,-1,1,-4
1570181807108759,4,2,-1,0,0,-4,-16,7
1570181807108759,-1,-1,0,-1,-1,-1,-2,-4
1570181807117628,0,1,-1,0,0,-1,3,9
1570181807117628,4,0,-1,-1,0,-1,3,9
1570181807132803,-2,0,0,0,-1,-2,2,-9
1570181807132803,0,0,-1,0,-2,-2,0,-1
1570181807138572,-1,-2,-1,0,1,-1,-3,1
1570181807138572,-1,-2,-1,1,-1,0,0,-4
1570181807154528,-1,1,1,0,-2,-1,0,0
1570181807154528,2,-1,-1,-2,-2,-1,4,9
1570181807156526,-1,-2,0,0,-1,-1,2,-4
1570181807156526,0,0,0,0,-1,-1,-1,-2
1570181807168495,2,0,-1,1,0,-2,2,2
1570181807168495,-1,0,-1,-1,-1,0,0,-2
1570181807177477,-3,-2,0,0,-1,-2,-1,0
1570181807177477,-1,1,-2,-2,0,0,-2,2
1570181807191434,0,-1,-2,-3,-2,0,0,4
1570181807191434,-5,-1,0,0,-1,1,-3,-9
1570181807200413,1,-2,-2,-2,-2,-2,-2,-3
1570181807200413,-4,0,0,-1,-1,-1,-4,-5
1570181807215367,4,1,0,-1,0,0,-6,16
1570181807215367,0,0,0,-1,0,-2,0,1
1570181807216364,0,1,1,0,0,1,-1,0
1570181807216364,1,0,1,0,0,-1,-4,-2
1570181807237316,-6,-1,0,-1,-1,0,4,-9
1570181807237316,0,-2,0,-1,0,-2,-2,-3
1570181807239306,0,0,0,0,0,0,-1,8
1570181807239306,-1,-2,-1,-2,-1,-1,1,-4
1570181807252271,-1,0,1,1,-2,1,0,0
1570181807252271,-1,1,-1,-2,-1,0,-2,-2
1570181807254263,-1,-1,1,-2,0,1,1,-1
1570181807254263,-2,-1,-1,0,0,-1,-1,0
1570181807275209,3,-1,0,-1,0,0,2,1
1570181807275209,-1,0,-1,0,-2,-1,-3,-3
1570181807276877,-4,0,-1,-1,-1,-1,-2,-5
1570181807276877,-2,1,0,-1,-2,-2,-4,-5
1570181807297155,2,-1,-3,0,-1,0,-1,7
1570181807297155,0,-2,0,0,0,0,1,0
1570181807299142,-7,1,1,0,-3,-1,-2,-9
1570181807299142,7,0,0,1,0,0,2,13
1570181807312353,-9,-1,-3,-2,1,1,12,-20
1570181807312353,2,-1,0,0,-1,-1,-2,7
1570181807314103,-1,0,0,0,-1,-1,0,-5
1570181807314103,-2,-3,-1,0,-1,1,-3,-2
1570181807335047,-2,0,1,0,0,-4,-2,-2
1570181807335047,0,-2,-2,0,1,1,0,0
1570181807336043,-1,1,0,-2,0,0,-1,-9
1570181807336043,-6,-3,-2,-3,-2,-1,-1,-19
1570181807357986,-1,-1,-1,1,1,0,-3,-1
1570181807357986,0,0,1,0,-1,-1,1,-1
1570181807358982,-1,-3,-2,0,0,0,-2,2
1570181807358982,-2,-1,-2,-2,0,0,-1,-6
1570181807372050,1,0,-1,1,-2,-2,-5,-2
1570181807372050,-1,-2,-2,-2,0,-2,-1,3
1570181807378930,1,0,-1,0,0,-2,1,1
1570181807378930,2,1,1,1,-1,-2,-2,4
1570181807395130,0,-1,-1,-1,-1,-1,-2,3
1570181807395130,-1,-1,-1,-1,-2,0,0,-4
1570181807396882,2,-1,-1,0,-1,0,0,6
1570181807396882,2,1,2,0,1,-2,-15,13
1570181807417824,6,0,-2,-1,-1,-1,0,9
1570181807417824,1,1,-2,0,0,-1,3,3
1570181807418822,-3,0,-1,0,0,-1,-5,-8
1570181807418822,0,0,-1,0,0,1,5,12
1570181807432029,-1,0,-1,-2,-1,0,0,-10
1570181807432029,-4,0,-1,-1,-1,-1,-5,-4
1570181807438768,4,0,-2,-1,-1,-2,2,4
1570181807438768,-3,-1,-1,-1,-1,-1,1,-9
1570181807454728,1,-2,-1,0,-1,0,-1,3
1570181807454728,-1,-1,-1,-2,-2,0,2,1
1570181807456724,1,-2,0,-1,-1,0,-2,-1
1570181807456724,-2,-1,0,-1,-1,0,2,-4
1570181807477663,0,-1,1,0,2,-1,-2,0
1570181807477663,0,-2,-2,-1,-2,0,-1,-1
1570181807478660,-4,-2,-1,0,-1,-1,-2,-1
1570181807478660,1,-1,-3,0,-1,-1,1,4
1570181807491626,-3,-1,1,-1,0,-1,0,-1
1570181807491626,0,0,-1,0,0,0,-3,-3
1570181807498608,-3,-2,-1,-1,-2,-1,2,3
1570181807498608,1,-1,-1,-2,0,-1,2,-3
1570181807514585,-2,-2,-1,0,-1,-2,-2,-5
1570181807514585,-2,0,0,0,1,-1,0,-2
1570181807516559,1,-2,-1,-1,-1,0,-1,3
1570181807516559,-2,-2,0,-1,-1,-1,-2,-3
1570181807537503,-3,0,-1,0,-1,-1,-2,-8
1570181807537503,-1,0,-2,-1,-2,-1,0,-3
1570181807538500,0,0,-1,1,-1,1,-7,5
1570181807538500,1,0,0,-1,-1,0,3,6
1570181807551467,0,-1,0,-1,0,0,0,-1
1570181807551467,0,-1,-1,-1,0,-1,-2,0
1570181807558453,-2,1,-1,-1,0,-1,2,-4
1570181807558453,-2,-1,-2,-1,-2,0,-1,-6
1570181807574415,-2,0,-2,-1,-2,1,0,1
1570181807574415,-3,-1,1,-1,0,-2,0,-8
1570181807576400,-1,0,0,0,0,-1,0,-1
1570181807576400,1,0,0,0,-1,0,0,-1
1570181807597343,0,-1,-2,-1,-2,0,-1,0
1570181807597343,-4,-1,-1,1,0,1,-1,-4
1570181807598344,1,-1,-1,-2,1,-1,1,1
1570181807598344,-3,0,-1,-2,-1,-2,-1,-1
1570181807611412,2,1,-1,-1,-1,0,3,6
1570181807611412,0,-1,0,-1,-2,-1,-2,-3
1570181807618382,-3,-1,0,-1,-2,1,0,-8
1570181807618382,1,0,-1,-1,-1,3,3,2
1570181807635242,-6,-2,-1,-2,-2,-3,-4,-19
1570181807635242,1,-1,-1,-2,-1,-1,0,5
1570181807636245,1,-1,0,0,0,-1,0,1
1570181807636245,-1,-2,0,0,0,-2,0,-3
1570181807657189,1,0,0,1,0,0,1,4
1570181807657189,-1,-2,0,-1,0,0,-1,-5
1570181807659214,3,-1,-1,0,-1,0,1,6
1570181807659214,0,-1,0,-1,-1,-1,-2,-3
1570181807671148,0,0,-1,1,0,-1,-1,3
1570181807671148,1,-1,-1,-1,-1,-1,2,5
1570181807678190,0,-1,-1,-2,-2,0,1,1
1570181807678190,-3,-1,-1,0,-1,0,-1,-1
1570181807695084,3,0,0,-1,1,0,1,8
1570181807695084,-3,-2,-3,-1,0,-1,-1,-5
1570181807696229,1,0,-1,3,-1,0,-1,-1
1570181807696229,-6,-3,0,0,-1,0,1,-7
1570181807717030,2,1,1,1,1,-2,-17,6
1570181807717030,1,1,0,-2,0,0,1,1
1570181807719020,-2,-2,-1,-3,-1,-3,-1,2
1570181807719020,0,0,-1,-1,-1,0,0,0
1570181807731027,-2,0,-1,-1,1,1,6,3
1570181807731027,2,0,0,-1,-2,0,0,4
1570181807739963,1,0,0,-1,-1,-3,-3,-2
1570181807739963,0,0,0,0,1,-1,0,-1
1570181807755377,-5,-2,-1,-2,-2,1,8,-7
1570181807755377,5,1,0,1,0,-4,-18,9
1570181807755921,-1,0,0,0,0,-1,3,-1
1570181807755921,-4,-1,-1,-1,0,-2,-3,-5
1570181807777140,0,0,-2,-2,-2,-1,1,-3
1570181807777140,-1,-2,0,-2,-1,1,4,-4
1570181807778862,0,1,-1,0,-1,-1,-1,-2
1570181807778862,2,0,1,1,0,-2,-4,-2
1570181807790826,-1,0,-2,-2,-1,0,-1,-1
1570181807790826,-2,-1,-1,0,-1,0,5,0
1570181807799879,-1,-1,-1,-1,1,0,-3,1
1570181807799879,0,1,-1,1,-1,1,2,-8
1570181807814765,-5,-2,0,0,-2,-3,-3,-18
1570181807814765,1,0,1,0,1,0,3,2
1570181807816761,0,0,-1,-1,-2,-1,1,1
1570181807816761,0,-2,0,-1,-2,-2,1,9
1570181807837778,-4,-1,1,-1,-2,0,-1,-4
1570181807837778,3,0,0,-1,-1,-1,-1,2
1570181807838700,0,0,0,2,0,0,-1,-3
1570181807838700,1,0,-1,-1,0,-1,-1,1
1570181807850969,1,0,-1,0,-1,1,1,6
1570181807850969,-3,0,-3,-1,0,-1,1,0
1570181807859645,0,0,0,-1,-2,0,0,0
1570181807859645,1,-1,-2,-1,-1,0,0,4
1570181807874603,3,-1,1,0,1,0,0,5
1570181807874603,-4,-1,1,0,-2,1,-1,-1
1570181807876602,-2,-1,-1,-1,0,0,0,-7
1570181807876602,5,1,0,0,-1,-3,-17,8
1570181807897563,-2,0,0,0,-1,0,-3,6
1570181807897563,2,-2,0,0,0,0,2,1
1570181807899539,1,-2,1,-2,0,1,0,3
1570181807899539,-5,0,-1,-1,-1,0,4,-7
1570181807910597,0,-1,-1,0,1,0,1,8
1570181807910597,2,0,0,-1,-2,-3,-3,1
1570181807919513,-5,-2,-2,-1,0,0,2,-9
1570181807919513,1,0,1,0,-1,1,3,0
1570181807935260,-1,-1,-1,-1,0,-1,-2,-3
1570181807935260,-2,-1,-1,-1,-1,0,2,3
1570181807936641,0,0,-2,-1,-2,0,-1,-1
1570181807936641,-2,-2,-1,-2,-2,0,1,-2
1570181807957381,0,-1,-2,-2,-1,1,0,3
1570181807957381,-3,-1,-1,-1,-1,0,1,-8
1570181807959442,-1,0,0,0,0,-2,0,2
1570181807959442,1,-2,0,-1,-2,0,1,4
1570181807971354,0,0,1,0,-1,-1,0,-1
1570181807971354,-2,0,0,0,-1,0,-2,-4
1570181807980321,-2,-1,-2,0,-1,-1,-2,-6
1570181807980321,0,-1,-2,0,0,-1,2,-2
1570181807995439,-5,-4,-2,-1,0,-2,-2,-9
1570181807995439,-1,1,0,-1,0,-2,-2,-3
1570181807996278,0,-2,-2,-1,0,-1,0,-1
1570181807996278,1,0,-2,0,2,0,-1,-1
1570181808017228,4,0,1,1,-1,-2,2,0
1570181808017228,-1,1,-1,0,0,-1,-2,-3
1570181808019216,-1,-2,-2,-2,0,1,0,5
1570181808019216,-1,0,-1,-1,0,-1,-2,-4
1570181808031184,-1,-1,-1,0,-2,1,7,-7
1570181808031184,2,-1,-1,1,0,-2,-9,4
1570181808040164,1,1,-1,-1,-1,0,0,2
1570181808040164,-2,-1,-1,0,0,1,1,0
1570181808054126,-1,-1,1,-1,-1,1,0,-2
1570181808054126,-1,-2,-1,-1,-2,0,4,0
1570181808062108,-1,0,1,-1,-1,-2,-1,-2
1570181808062108,-1,-1,-1,1,-1,-1,-1,0
1570181808077061,1,-1,0,0,-1,-2,-2,2
1570181808077061,-1,0,0,-1,-2,-1,1,-6
1570181808079056,3,-1,0,0,-2,-2,-1,7
1570181808079056,-4,0,-1,-1,0,-1,-1,-6
1570181808091024,-1,-1,-1,-1,1,3,-3,5
1570181808091024,-4,-2,0,-1,0,0,0,-3
1570181808100212,0,-1,1,-2,-1,-1,-1,-2
1570181808100212,-2,-1,-1,-1,0,-2,2,-4
1570181808114962,0,-1,-1,-1,-1,0,-2,-1
1570181808114962,-3,-1,-2,-2,-1,-2,-3,-12
1570181808116322,-1,1,-1,0,0,-1,-1,-1
1570181808116322,0,-1,0,0,-1,-1,-1,-1
1570181808137024,0,-1,-1,-1,0,0,-2,0
1570181808137024,-2,-1,0,-2,-2,0,1,-2
1570181808138898,0,-1,-2,-2,0,-1,-1,1
1570181808138898,2,-1,-1,-1,1,-1,0,3
1570181808150862,-1,0,-2,0,-2,1,1,-2
1570181808150862,1,0,0,0,-1,-1,0,3
1570181808159842,-1,-2,0,-1,0,0,0,-1
1570181808159842,-2,0,1,0,0,1,0,3
1570181808174800,-1,1,0,-3,-1,-2,-2,0
1570181808174800,-1,1,0,0,1,-1,2,2
1570181808176795,-2,-1,-3,0,-1,0,-1,-2
1570181808176795,1,-1,-2,-1,-1,0,-1,-2
1570181808197739,0,0,-2,-1,-1,-2,-2,-1
1570181808197739,-1,-1,-2,-1,-3,0,-1,1
1570181808198736,1,-1,0,0,-1,0,-1,0
1570181808198736,-1,-1,1,1,-1,0,0,3
1570181808227716,-5,0,0,-1,-1,-2,-1,-4
1570181808227716,-2,-1,-2,0,0,-3,0,-5
1570181808228657,2,0,0,0,-2,1,0,4
1570181808228657,0,-1,0,-2,0,1,-1,5
1570181808234640,-3,-1,0,0,0,-2,-6,-7
1570181808234640,-1,0,-1,0,1,0,2,3
1570181808236635,-4,0,-1,0,0,-2,-1,-4
1570181808236635,-1,-1,0,0,-1,-2,-1,0
1570181808257711,2,-1,0,1,1,-1,1,3
1570181808257711,1,1,-2,0,1,2,1,3
1570181808258582,-2,0,-1,-2,-1,1,-1,1
1570181808258582,-2,-1,-1,0,-1,-2,-1,-3
1570181808279888,0,1,-1,-1,-2,0,-1,-1
1570181808279888,0,-2,-1,0,0,0,-1,3
1570181808281742,0,-2,0,-2,0,-3,-1,-1
1570181808281742,3,-1,0,0,0,0,0,3
1570181808294481,-1,1,0,-2,-1,-2,-3,-7
1570181808294481,2,0,-1,0,-3,-2,-2,0
1570181808300471,-4,0,-1,0,0,-1,-2,-3
1570181808300471,-1,-1,-1,0,0,-1,-1,-5
1570181808317509,2,-1,-1,-1,-1,0,2,4
1570181808317509,-3,-2,1,-1,-1,0,-1,-2
1570181808318973,0,-4,-3,-1,-3,1,13,5
1570181808318973,1,0,0,0,-2,-1,-1,4
1570181808339360,-1,0,0,1,0,0,-1,1
1570181808339360,-4,0,1,0,0,-3,-4,-6
1570181808341357,-3,1,0,1,0,-1,0,-3
1570181808341357,0,0,-2,-2,0,-3,-2,-1
1570181808354319,2,0,-2,-1,0,0,1,4
1570181808354319,-3,-1,-1,0,-1,0,0,-13
1570181808361304,7,1,1,-2,1,1,0,9
1570181808361304,0,-2,-1,-1,-1,0,0,-2
1570181808377345,-1,-1,-1,-1,0,0,-2,-2
1570181808377345,0,0,0,0,1,0,0,8
1570181808379256,-1,-1,1,2,-1,-3,-4,-6
1570181808379256,-1,0,-1,-1,-1,-1,-1,1
1570181808400246,1,-1,-1,-1,-3,0,1,2
1570181808400246,2,0,0,-1,-1,0,1,5
1570181808401195,-3,-1,-2,0,0,0,-3,-5
1570181808401195,-2,1,-1,0,0,-2,2,-2
1570181808414159,-4,-2,0,-1,0,0,-1,-3
1570181808414159,4,-2,-2,-1,-1,0,-1,6
1570181808421143,-1,-1,-1,-1,-2,-3,-3,-1
1570181808421143,-2,-1,0,1,-1,0,-1,-4
1570181808437162,1,0,0,-1,-1,-1,-3,-1
1570181808437162,-3,-2,-1,-2,-3,-1,-3,-6
1570181808439093,0,0,-1,0,-3,1,1,10
1570181808439093,1,-1,0,-2,0,0,-2,-4
1570181808460134,-3,0,0,1,-1,-2,1,3
1570181808460134,1,-1,-1,-1,0,0,2,5
1570181808461034,-3,-1,-1,0,-1,-1,-3,-7
1570181808461034,-3,0,0,-1,0,-1,-2,-3
1570181808473999,1,-1,-1,-1,1,-1,1,0
1570181808473999,1,0,-1,0,0,0,0,2
1570181808481040,-1,0,-1,-1,-2,0,-1,-2
1570181808481040,0,1,0,-1,0,0,0,2
1570181808495944,0,-1,-1,1,-1,0,0,0
1570181808495944,0,0,1,-2,1,-1,-2,0
1570181808505047,0,1,-1,-2,0,-1,-1,0
1570181808505047,0,-2,-1,-1,-2,1,1,8
1570181808520138,-3,0,1,-2,-2,-2,-4,-4
1570181808520138,2,-2,-1,0,-1,0,1,0
1570181808521954,1,0,0,1,0,0,0,2
1570181808521954,-2,-2,-2,-1,-2,-1,-2,-6
1570181808534392,1,0,-1,-2,-1,1,-1,1
1570181808534392,-2,-4,-1,-3,-2,2,9,1
1570181808540822,0,1,0,-3,-2,-2,-1,-6
1570181808540822,-2,0,-1,0,0,0,-2,-2
1570181808556846,0,-1,1,2,-1,-1,-2,-3
1570181808556846,-1,0,0,-1,0,-1,-2,-5
1570181808558774,1,-1,-1,-3,-2,-1,1,6
1570181808558774,-2,0,1,-2,-1,-1,0,-6
1570181808579728,-1,-2,-2,-1,-2,1,2,2
1570181808579728,-2,0,0,0,0,0,-3,-1
1570181808581745,-1,-3,-1,1,1,0,-1,-4
1570181808581745,1,2,1,1,-1,-1,-1,0
1570181808593682,-1,0,-1,-1,-2,-1,-1,2
1570181808593682,2,-1,-1,1,-1,-1,-1,1
1570181808600662,0,1,0,1,-1,0,1,15
1570181808600662,0,-2,-2,-2,0,0,0,1
1570181808617617,-4,1,0,0,0,0,-1,-2
1570181808617617,-2,1,-1,-1,-1,1,-2,0
1570181808618614,-1,-1,-1,0,0,-2,0,-1
1570181808618614,-2,-1,0,0,-2,-1,0,-1
1570181808639559,3,0,0,0,1,0,3,5
1570181808639559,-1,0,0,-1,0,-3,-4,-1
1570181808641553,-1,-1,-2,-1,1,1,-2,1
1570181808641553,-1,-1,-1,1,-1,1,-1,-1
1570181808654766,3,1,-1,-1,-2,0,-1,-1
1570181808654766,-9,-3,1,0,1,1,6,0
1570181808661674,0,0,-1,0,-1,-1,-2,-6
1570181808661674,3,1,0,0,-2,1,1,4
1570181808677516,-1,-3,-2,-2,1,1,-1,0
1570181808677516,-11,-1,-2,-2,-1,-2,-1,-6
1570181808678453,5,-2,-2,-2,0,-1,-1,-7
1570181808678453,-3,-1,-1,0,1,-1,-3,-3
1570181808699398,1,2,-1,-2,-1,-1,3,-6
1570181808699398,6,0,-2,-1,0,0,-1,2
1570181808701395,-6,-1,1,-1,1,-1,-2,-9
1570181808701395,1,-1,-3,-1,-1,-1,0,0
1570181808722663,2,-1,0,0,1,-3,1,6
1570181808722663,1,-1,-1,0,-1,0,0,1
1570181808724336,0,-2,-1,-1,-2,-2,-3,-1
1570181808724336,1,1,1,-1,-1,0,1,7
1570181808737584,-3,-1,-2,-2,-3,0,-3,-2
1570181808737584,3,-1,-1,-1,-1,-1,-4,-2
1570181808739291,-2,0,0,1,-1,-2,0,2
1570181808739291,2,0,-3,-3,0,-1,0,-3
1570181808759279,-3,-3,-2,-1,1,0,0,2
1570181808759279,2,2,0,-1,-1,-1,-2,-1
1570181808761232,-2,-1,0,-2,-1,-1,3,-4
1570181808761232,-1,-1,-2,-1,-1,-1,0,0
1570181808782311,1,-1,-1,-2,-1,-1,-1,-2
1570181808782311,-1,-2,0,1,-1,0,-2,-4
1570181808784171,-5,0,-1,-1,-1,0,0,-1
1570181808784171,5,-2,-2,0,-1,-1,0,3
1570181808797138,-10,0,0,0,-1,0,-4,-16
1570181808797138,2,0,1,-1,1,-1,0,3
1570181808799132,0,0,-2,-1,0,0,-1,1
1570181808799132,-2,0,1,0,0,-1,-3,-2
1570181808820079,0,0,-1,0,-2,-1,2,-3
1570181808820079,0,0,-2,-2,1,0,0,-5
1570181808821072,0,-1,-1,-1,0,0,-1,4
1570181808821072,-1,0,1,-2,1,-1,-3,-15
1570181808834040,0,-1,-1,0,-1,0,-1,4
1570181808834040,-2,-2,0,0,-3,-2,-3,-3
1570181808842196,-1,0,1,0,-2,-1,0,-1
1570181808842196,3,-1,-1,-1,-2,0,0,11
1570181808856977,1,0,0,-1,0,-1,-2,1
1570181808856977,2,0,0,1,-1,0,-1,0
1570181808858975,-2,-1,-1,0,0,1,-1,-3
1570181808858975,-3,1,1,0,-1,0,-2,-4
1570181808879915,-1,-2,0,0,1,-1,-1,1
1570181808879915,1,1,-2,1,-1,-3,0,3
1570181808881910,0,-1,0,0,-1,-1,-1,-4
1570181808881910,-4,0,-2,-1,0,-1,0,1
1570181808893879,1,-1,-1,-1,-1,-1,1,3
1570181808893879,3,-1,-1,-3,0,1,1,2
1570181808902854,-5,-2,-1,-1,-1,2,15,-2
1570181808902854,-5,-2,-1,0,1,-4,-5,-9
1570181808916817,7,0,-1,0,-2,-1,2,20
1570181808916817,0,-1,-2,-1,-2,-1,-4,-5
1570181808918857,1,1,-1,0,-1,1,-1,1
1570181808918857,-3,1,-1,-2,-1,2,2,-1
1570181808939758,-3,-1,-1,-1,-1,-1,-2,-3
1570181808939758,-2,-1,0,0,0,1,-1,-1
1570181808941749,1,-1,-1,-1,-1,-2,-5,4
1570181808941749,0,-2,-1,-1,-1,0,-1,-2
1570181808953717,-2,-2,0,-1,-1,0,-2,-4
1570181808953717,-2,0,-1,2,0,-2,-2,0
1570181808962899,-1,0,-1,-3,-1,-1,-5,-4
1570181808962899,1,-1,0,-1,-1,-1,0,2
1570181808977835,1,1,-1,-4,-1,-1,3,1
1570181808977835,-2,-1,0,0,-1,-1,1,0
1570181808978651,-1,0,-2,0,-1,-1,-1,1
1570181808978651,1,-1,0,-1,-1,1,1,-2
1570181808999596,-2,0,-2,1,-1,0,-1,-1
1570181808999596,0,-1,-2,0,-2,0,-1,1
1570181809001589,1,-1,0,0,0,-2,-3,-2
1570181809001589,2,-1,-1,-1,-2,0,1,3
1570181809013561,-3,0,1,-1,1,-1,-2,-3
1570181809013561,6,1,-3,-2,0,0,3,10
1570181809022533,-2,-1,0,0,-2,-1,-4,-15
1570181809022533,0,0,-3,0,-1,1,3,9
1570181809037496,-5,0,1,-1,0,-3,-5,-11
1570181809037496,-4,0,-1,0,-1,0,1,-2
1570181809038492,3,-1,1,-1,2,0,0,2
1570181809038492,-1,1,-1,-2,-2,-3,-1,-1
1570181809059436,-1,-1,-2,1,-1,0,-2,-2
1570181809059436,-3,0,0,0,-1,-1,-1,-4
1570181809061434,-2,-1,0,1,-2,0,0,2
1570181809061434,-2,-1,0,0,0,-2,-1,-5
1570181809073397,2,0,-1,-2,-1,1,1,0
1570181809073397,-2,-1,-2,-1,0,-2,-1,-7
1570181809082415,3,-1,0,0,-2,1,1,15
1570181809082415,-4,-3,-1,0,-1,0,5,-11
1570181809097333,1,0,-1,-1,-1,-1,-10,-1
1570181809097333,0,0,-1,0,0,-1,0,5
1570181809099582,-1,-1,0,-1,0,-1,-2,-6
1570181809099582,1,-1,0,-1,0,-1,-1,7
1570181809120290,-3,-1,1,-1,-1,1,4,-6
1570181809120290,-2,-1,0,0,0,0,-2,-1
1570181809121270,2,-1,-1,-1,0,0,-3,2
1570181809121270,-1,0,0,2,-2,0,-3,2
1570181809142215,-1,-1,0,0,0,-2,0,-2
1570181809142215,3,0,1,-2,1,1,3,18
1570181809144305,-3,-1,-3,0,0,-1,2,-3
1570181809144305,1,-1,-2,-2,-1,-1,1,-1
1570181809157176,-1,0,-1,0,0,0,2,7
1570181809157176,0,0,0,0,-2,-2,-1,-18
1570181809159168,0,0,0,-1,0,0,-3,-1
1570181809159168,-3,0,1,-1,0,1,-3,3
1570181809180111,1,-1,-2,0,-1,-2,0,2
1570181809180111,-3,0,0,-1,-2,-1,-2,-4
1570181809181113,-1,-1,0,-1,-2,1,-2,-5
1570181809181113,5,-1,-2,-3,-1,0,0,6
1570181809202093,0,-2,-1,0,-3,-1,2,-1
1570181809202093,-3,-1,-1,-2,-1,1,-2,-8
1570181809204052,11,3,-1,0,-1,-2,-15,21
1570181809204052,-4,-2,0,0,0,-1,-2,-4
1570181809217060,-1,0,0,-2,1,0,1,3
1570181809217060,0,-1,-1,0,0,-1,-1,0
1570181809219009,-1,0,1,0,-1,1,6,5
1570181809219009,1,0,-1,0,0,-1,-4,-1
1570181809239953,0,0,-1,0,0,-1,-3,0
1570181809239953,-4,1,-1,-2,-1,-2,-2,-6
1570181809240949,-3,-1,-1,-1,0,1,2,-9
1570181809240949,0,0,0,0,0,-1,-1,-1
1570181809262198,-1,-1,0,-1,-1,-1,3,-2
1570181809262198,-1,-2,0,0,0,-1,1,3
1570181809263888,-2,-1,0,-2,-2,-1,1,-5
1570181809263888,2,0,-2,0,0,-1,-1,1
1570181809276890,-3,0,-2,-1,-1,0,-2,-7
1570181809276890,2,0,0,-1,0,-2,-1,3
1570181809283873,-2,-2,0,0,-2,0,0,-2
1570181809283873,-1,0,0,0,0,0,0,1
1570181809299792,-2,0,-1,-1,-1,-1,-3,-3
1570181809299792,-1,0,-2,0,0,-2,-1,-3
1570181809301787,-2,-1,-3,-1,-1,0,1,-3
1570181809301787,0,0,-1,-1,-1,0,-2,1
1570181809322465,-5,-3,-1,-1,0,1,14,-14
1570181809322465,0,-1,-1,-1,0,-1,-2,8
1570181809324268,2,1,-1,0,-1,1,3,6
1570181809324268,-1,-2,-2,0,0,-2,0,0
1570181809337402,-2,-2,-2,-2,-2,-2,-3,-5
1570181809337402,0,-1,0,0,0,0,1,-4
1570181809343978,-2,0,0,0,0,-1,-2,-8
1570181809343978,-1,-1,-1,-1,-2,-1,0,-3
1570181809359389,-1,0,-1,-2,0,0,-1,4
1570181809359389,1,-3,-3,2,-1,0,1,1
1570181809361586,-2,-1,-1,0,0,-2,-4,-1
1570181809361586,-3,0,0,-1,-2,-1,-2,-5
1570181809382494,3,-1,0,0,-2,-1,-4,0
1570181809382494,-1,-2,-1,0,-2,0,-3,3
1570181809383412,-1,-2,-1,-1,0,0,1,-1
1570181809383412,1,1,0,1,-1,2,2,0
1570181809396431,-1,-2,-1,0,0,0,-2,3
1570181809396431,-2,-1,-1,-1,-1,0,1,-2
1570181809403595,-4,-1,-2,0,-1,-1,-1,-5
1570181809403595,1,-1,0,-1,1,0,1,11
1570181809420461,1,-1,-1,0,0,-1,-3,4
1570181809420461,4,2,1,-1,1,-3,-13,11
1570181809426495,-4,0,-2,0,-1,-3,-1,-12
1570181809426495,7,-1,0,0,-1,0,0,11
1570181809442658,2,0,1,-1,1,1,-2,5
1570181809442658,-3,-1,-1,0,0,1,3,-6
1570181809444204,-1,-2,-1,0,-1,0,1,0
1570181809444204,-4,-3,0,-1,-2,-1,-3,-8
1570181809457412,-2,0,-1,0,0,0,-1,-5
1570181809457412,1,1,-1,-1,-3,0,1,3
1570181809463271,-1,-1,-1,-2,1,-1,-3,-1
1570181809463271,0,1,0,2,0,0,1,-5
1570181809480304,-1,-1,-2,-1,1,-1,-2,-2
1570181809480304,-2,-2,0,-2,0,0,2,-5
1570181809481300,-1,1,-1,-2,-1,-1,-3,3
1570181809481300,-3,-1,-2,-1,0,-1,-2,-12
1570181809502572,1,2,1,1,1,-1,3,13
1570181809502572,1,0,-1,-1,-1,-1,1,3
1570181809503535,-2,-1,-1,0,0,-1,1,-2
1570181809503535,8,-1,0,-1,-1,0,0,9
1570181809517160,-1,-1,0,-1,-1,-1,-2,-3
1570181809517160,-3,0,-1,1,-1,0,-2,-2
1570181809523570,-3,-3,-1,0,-2,-1,0,-3
1570181809523570,-4,0,-2,0,-2,-1,-2,-4
1570181809540406,2,0,-1,-2,-1,-1,-3,2
1570181809540406,-4,-2,-1,-1,-2,-1,2,-3
1570181809541390,1,0,1,-2,-1,-1,-2,-2
1570181809541390,-3,1,-1,0,-1,0,-3,-5
1570181809562669,-3,-1,0,1,-1,1,1,-5
1570181809562669,0,-1,-2,-1,0,-2,2,-2
1570181809564109,0,1,-2,0,-1,0,-2,-7
1570181809564109,0,-4,-2,-1,-1,-1,1,2
1570181809576506,0,0,0,0,0,1,-1,-1
1570181809576506,-3,-1,-1,0,-1,-2,-2,-6
1570181809583830,7,0,-1,0,-2,-1,1,19
1570181809583830,0,-1,-1,-1,0,-2,1,0
1570181809599557,0,-1,1,1,-3,-3,-2,-7
1570181809599557,1,0,0,-2,0,-1,-1,-1
1570181809601509,-1,-1,0,0,0,0,4,3
1570181809601509,-3,1,0,0,-2,-1,-2,-3
1570181809622462,2,-1,-1,-1,-1,-2,-1,3
1570181809622462,0,0,0,1,0,1,1,1
1570181809624444,0,-2,-3,-2,-1,-1,2,-5
1570181809624444,-5,-2,0,-1,3,-1,0,-7
1570181809636572,-8,1,2,2,1,1,-4,-28
1570181809636572,7,-1,-1,-2,-3,0,0,8
1570181809645391,1,0,-3,0,2,4,2,8
1570181809645391,2,-1,-1,2,6,4,8,6
1570181809660358,-1,-2,-3,-3,-10,-6,-6,-1
1570181809660358,-4,-3,-4,-4,-4,-5,-3,-4
1570181809661461,-10,-3,-2,-4,-11,-6,-5,-4
1570181809661461,16,-4,-5,-12,-5,-3,-4,11
1570181809682288,4,-7,-21,-7,4,1,5,16
1570181809682288,6,-6,-22,-8,5,3,4,17
1570181809684283,5,3,-4,5,5,-2,0,7
1570181809684283,1,22,33,23,-6,-2,-1,-9
1570181809696302,-1,22,64,22,9,5,6,-4
1570181809696302,20,24,2,4,-1,2,0,-8
1570181809705283,-44,-24,10,5,11,5,-17,-35
1570181809705283,-3,4,3,1,-1,-3,0,10
1570181809720188,3,-20,-20,-3,-7,-4,-4,1
1570181809720188,-27,-33,-33,-14,-7,-5,-7,-32
1570181809722182,1,-4,-18,-12,-4,0,4,-11
1570181809722182,-1,-9,-20,-15,-5,-3,-1,-8
1570181809742128,-2,12,1,-6,0,1,-3,-3
1570181809742128,13,4,24,14,5,3,9,20
1570181809744123,-15,3,6,2,-2,-5,-7,-39
1570181809744123,-6,-9,-7,-11,1,1,-3,1
1570181809756090,1,-1,-21,-17,-5,-2,0,-2
1570181809756090,3,-1,-18,-1,-3,-3,-1,6
1570181809765067,10,13,17,11,-3,-2,2,8
1570181809765067,-9,-11,34,13,3,1,-1,-8
1570181809780028,-3,1,0,4,1,1,2,-4
1570181809780028,-7,-10,-5,-10,-4,-3,-2,-6
1570181809781168,7,14,2,0,-5,-1,0,15
1570181809781168,0,7,-6,-1,2,1,-2,-6
1570181809802168,-1,-13,2,1,-2,-2,1,8
1570181809802168,-5,1,13,8,3,0,-1,0
1570181809803965,13,-2,-22,-9,-1,1,5,11
1570181809803965,9,19,3,5,1,-1,2,3
1570181809815930,-8,-5,5,3,1,1,-2,-2
1570181809815930,-10,-9,2,-2,-1,1,-4,-6
1570181809825152,5,1,-1,-5,-2,-2,1,5
1570181809825152,-4,-12,-10,-11,-6,-3,-1,-1
1570181809840053,0,-1,-12,-2,-3,-3,-2,3
1570181809840053,2,11,20,6,0,0,0,0
1570181809841862,6,-17,-17,1,4,0,8,13
1570181809841862,0,-1,-3,2,2,-1,-5,-4
1570181809861850,4,15,3,5,10,1,0,-1
1570181809861850,1,-3,17,2,-8,-1,2,4
1570181809864211,-9,5,3,-3,0,1,3,-1
1570181809864211,6,-11,-24,-1,6,8,4,3
1570181809875769,-1,-4,0,2,20,3,-2,-5
1570181809875769,-12,2,-1,0,-18,-8,-6,-13
1570181809890755,3,-14,12,-3,-21,-9,2,7
1570181809890755,-7,-4,-9,0,-7,-5,-1,-8
1570181809898708,8,-7,-16,-9,1,3,3,4
1570181809898708,8,6,-5,-1,15,6,1,6
1570181809905688,4,27,16,6,1,0,1,1
1570181809905688,-7,-25,-7,-5,-4,-3,-2,0
1570181809922646,2,-8,3,6,-3,1,8,7
1570181809922646,18,35,-1,-11,7,4,2,9
1570181809923716,-16,-11,19,7,4,3,-11,-14
1570181809923716,-9,-6,-5,-3,0,0,2,-1
1570181809935611,10,4,12,4,-8,-4,-5,7
1570181809935611,-18,-15,-11,-1,-3,-2,0,-17
1570181809945772,17,17,-10,-5,7,3,8,6
1570181809945772,4,19,14,3,1,-3,-9,5
1570181809959549,-3,1,-14,-9,-17,-7,-4,0
1570181809959549,-7,14,16,5,1,-5,-9,-24
1570181809966546,23,-24,-9,-6,-4,-3,-1,10
1570181809966546,-32,-32,-14,0,6,2,1,-14
1570181809982589,-4,8,-8,-5,-3,-1,-3,-3
1570181809982589,-12,5,3,-2,16,11,0,-3
1570181809983483,6,-22,-8,15,42,29,6,16
1570181809983483,13,23,7,3,-6,-12,2,-2
1570181809995990,-8,-6,4,-12,-69,-27,-2,-6
1570181809995990,-15,-11,-13,-15,-21,-12,-9,6
1570181810004968,15,26,1,12,72,37,11,-1
1570181810004968,-6,-28,13,11,39,20,18,-13
1570181810018935,4,14,-20,-25,-73,-70,-56,-14
1570181810018935,-3,-27,-5,-11,-23,-15,3,28
1570181810026296,-23,-14,-3,-10,-16,-19,-28,-47
1570181810026296,9,0,-12,2,45,31,15,20
1570181810041987,0,16,15,10,17,17,19,13
1570181810041987,15,6,4,4,6,7,5,13
1570181810043866,-7,8,-4,3,10,2,-2,-3
1570181810043866,15,38,8,-2,-34,-15,-2,6
1570181810064807,-39,-52,0,-11,-17,-4,-3,-22
1570181810064807,14,-2,0,24,100,48,5,10
1570181810066809,-21,-11,-2,6,-5,9,9,-2
1570181810066809,9,22,2,-12,-65,-39,-20,-27
1570181810079813,59,8,-9,-27,-59,-18,5,38
1570181810079813,-61,-26,-7,-9,-13,-20,-11,-52
1570181810085761,2,0,1,5,37,10,2,-2
1570181810085761,3,9,-2,3,10,13,10,37
1570181810102712,-11,-10,-3,20,68,21,4,-14
1570181810102712,30,23,3,2,-18,-4,1,18
1570181810103704,6,-19,4,0,-14,0,8,33
1570181810103704,-18,0,5,0,-19,-14,-19,-40
1570181810124807,9,20,6,7,47,23,13,9
1570181810124807,27,25,-2,-3,-45,-14,3,1
1570181810126643,-11,-19,8,-13,-46,-24,-4,14
1570181810126643,-6,-46,-21,-9,1,2,-7,4
1570181810139629,-21,8,25,25,70,28,17,-7
1570181810139629,1,-13,0,9,-13,-8,2,18
1570181810145758,-19,18,-18,-20,-27,-18,-9,-16
1570181810145758,4,-1,2,1,-5,3,0,-18
1570181810161593,-11,-5,-11,-4,-14,-6,-5,-4
1570181810161593,42,4,-7,0,40,7,8,32
1570181810170524,-4,19,18,13,-25,5,11,21
1570181810170524,-22,6,5,-8,-27,-12,-7,-28
1570181810184490,5,-10,-27,-10,15,13,-3,5
1570181810184490,-3,-11,16,3,-7,-6,-7,-25
1570181810191469,11,-2,-10,-5,-7,-10,-6,-3
1570181810191469,21,2,7,-1,27,15,11,34
1570181810199446,7,6,-4,5,-6,5,8,14
1570181810199446,-12,-9,12,7,20,-1,-8,-19
1570181810207427,2,0,-9,-1,-5,-5,-1,2
1570181810207427,-11,-5,-17,-16,-20,-3,-2,5
1570181810222821,9,7,1,-3,-8,1,6,-14
1570181810222821,-3,-5,-8,-7,-9,1,-2,-2
1570181810224381,10,8,8,8,42,8,8,15
1570181810224381,-23,6,-5,-2,-23,-10,-9,-22
1570181810244423,-36,-12,1,-6,-1,-1,0,8
1570181810244423,-8,-11,-1,-1,-14,-3,-4,-20
1570181810246515,-7,-1,-5,-13,-19,-13,-11,-26
1570181810246515,4,-4,-2,4,16,7,10,19
1570181810258290,7,-1,-6,1,10,2,-7,-14
1570181810258290,-4,19,18,-2,-9,1,6,8
1570181810267355,6,-17,-18,-11,-21,-3,3,9
1570181810267355,23,41,13,8,24,3,-1,6
1570181810282225,-24,-32,20,23,22,7,-5,-29
1570181810282225,11,4,-16,-7,-25,-5,8,17
1570181810284222,9,3,0,-5,-8,-2,-8,-10
1570181810284222,24,-5,0,-2,10,5,12,45
1570181810305288,18,8,3,-4,-8,-7,-9,-4
1570181810305288,4,5,8,18,41,7,8,10
1570181810307160,-10,3,-4,-12,-43,-9,-2,-14
1570181810307160,3,-4,-2,-4,-2,-1,-9,30
1570181810318170,13,12,6,1,-2,1,-3,-18
1570181810318170,43,2,-2,-1,-7,3,10,40
1570181810333093,-24,-4,-5,4,22,-2,-8,-43
1570181810333093,8,-7,2,10,23,5,1,16
1570181810342065,0,0,1,-12,-52,-12,-1,5
1570181810342065,4,11,-5,-4,-6,2,3,23
1570181810344069,-22,-13,-10,-4,-10,-10,-7,-19
1570181810344069,-9,3,21,12,2,-4,-1,-14
1570181810365006,-5,3,-10,-1,24,8,0,4
1570181810365006,-2,-11,-1,0,-6,3,4,-5
1570181810366226,-20,-7,-10,-9,-16,-9,-9,-7
1570181810366226,2,-3,-6,-1,10,2,0,-16
1570181810379238,-5,8,5,6,8,0,1,8
1570181810379238,-47,-8,-6,-11,-18,-7,-9,-42
1570181810387945,19,2,5,1,11,5,4,16
1570181810387945,-3,-1,-2,1,3,-4,-3,-11
1570181810402908,6,1,0,7,-2,8,6,7
1570181810402908,-30,-16,-16,-12,-16,-8,-14,-25
1570181810403944,27,9,13,9,0,-2,7,28
1570181810403944,-12,-7,-16,-15,-17,3,1,-23
1570181810424854,26,7,4,7,25,2,9,38
1570181810424854,2,5,6,9,4,5,0,-2
1570181810426839,15,10,19,10,10,9,4,11
1570181810426839,-4,1,8,5,1,-4,0,-5
1570181810439276,-6,-13,-16,-7,3,3,1,-5
1570181810439276,-9,-6,-8,-5,6,3,-7,-14
1570181810447784,6,4,3,-5,4,3,3,11
1570181810447784,7,8,18,12,-6,-2,-2,1
1570181810461751,1,-1,0,2,10,7,5,13
1570181810461751,-24,-7,-2,-6,-13,-9,-9,-30
1570181810469724,-2,-9,-21,-9,-6,-5,-6,-14
1570181810469724,-1,-27,-65,-54,-23,-12,-7,0
1570181810484689,-13,22,62,33,1,-12,-10,-17
1570181810484689,9,2,8,14,38,3,0,7
1570181810486678,2,21,-6,-6,-35,-9,-12,-33
1570181810486678,-16,-42,-22,-27,-10,11,13,18
1570181810498651,24,21,8,18,4,-8,-5,-14
1570181810498651,-3,-26,15,18,6,1,0,12
1570181810507624,-13,0,5,4,31,1,-1,3
1570181810507624,4,5,10,12,-2,2,-1,-9
1570181810522746,31,9,-42,-52,-30,2,12,10
1570181810522746,-5,21,48,50,4,-7,1,15
1570181810523580,5,0,12,20,8,1,4,4
1570181810523580,10,12,9,4,-16,-10,13,-1
1570181810544529,-27,-17,-4,11,9,2,-5,-7
1570181810544529,35,5,-46,-69,-28,3,5,4
1570181810546520,15,5,36,68,28,3,2,23
1570181810546520,21,29,46,37,11,-2,0,2
1570181810558491,-51,-23,-24,-34,-18,-6,-6,-33
1570181810558491,9,12,4,3,4,3,3,7
1570181810567467,24,-14,-17,-37,-15,-1,5,8
1570181810567467,-1,-3,-9,1,38,10,-6,-10
1570181810582428,-9,-14,6,15,-9,-7,-2,14
1570181810582428,20,16,-16,-29,-36,-9,1,8
1570181810584418,-40,-14,-4,-6,-2,-1,-2,-7
1570181810584418,-15,5,0,6,7,-5,-12,-20
1570181810612350,54,-24,-13,-13,3,1,7,23
1570181810612350,-10,-6,-14,-6,0,-1,-3,4
1570181810614341,-3,15,11,1,14,5,0,11
1570181810614341,-15,19,3,-2,-35,-14,-1,6
1570181810618326,11,-3,16,1,5,3,-3,-16
1570181810618326,6,-6,-7,1,3,-1,-4,-4
1570181810627309,12,-7,-7,-1,0,-5,-27,-83
1570181810627309,24,1,-9,-12,0,3,4,21
1570181810642299,-11,14,0,10,9,-1,-3,0
1570181810642299,-4,-15,-5,0,0,-2,-3,-3
1570181810644259,-59,-20,-2,-9,-7,2,6,9
1570181810644259,30,15,-13,-7,-6,-5,-7,-17
1570181810665201,-56,-3,14,0,-2,-5,-8,-19
1570181810665201,16,-4,1,14,23,12,17,31
1570181810666199,-8,-5,-15,-6,-9,-4,-8,-21
1570181810666199,-9,-8,5,5,0,-1,-4,-5
1570181810678170,4,10,0,5,5,4,13,52
1570181810678170,44,8,6,2,15,-3,-19,-43
1570181810687149,-36,-10,-14,-14,-24,-5,6,16
1570181810687149,-14,-1,9,4,1,-3,-3,0
1570181810702147,20,6,0,-5,-3,-1,1,-4
1570181810702147,-27,0,3,3,-4,2,17,47
1570181810704098,41,9,8,3,6,2,-2,-9
1570181810704098,-8,7,-7,-1,10,3,-5,-13
1570181810725094,24,1,-12,5,7,6,10,24
1570181810725094,-22,-40,7,2,6,-1,-1,-2
1570181810726039,25,16,6,0,-3,2,10,24
1570181810726039,-3,-4,-1,-1,-1,1,-4,-14
1570181810739007,0,2,-10,-9,-5,-2,-2,6
1570181810739007,-17,9,-8,-3,-2,-1,-3,-17
1570181810747980,7,-14,-14,-7,-7,0,3,13
1570181810747980,10,4,17,3,15,3,-13,-37
1570181810762253,-12,-5,-3,-2,-19,-12,-9,-18
1570181810762253,-6,5,1,7,11,1,-4,-17
1570181810763940,22,19,14,-2,0,0,5,14
1570181810763940,-16,-14,-8,-5,-9,1,8,23
1570181810784892,-9,-2,3,1,5,1,-3,-3
1570181810784892,-12,-2,0,-1,1,-3,-12,-34
1570181810786956,15,5,-1,0,7,0,8,32
1570181810786956,-14,-5,-4,5,7,2,1,1
1570181810798929,11,-9,-7,0,5,4,4,2
1570181810798929,-23,-4,-6,-4,-13,-4,8,-6
1570181810807821,-9,-12,-29,-8,5,-3,-11,11
1570181810807821,-5,10,32,0,-5,-1,-5,-10
1570181810821923,-7,-3,-4,-2,0,-3,2,2
1570181810821923,17,13,10,6,-4,0,10,23
1570181810828763,10,1,-1,-3,4,3,3,-25
1570181810828763,-3,-9,-16,-2,6,-2,-2,26
1570181810844722,-16,-5,-5,-8,-16,-6,-4,5
1570181810844722,5,4,1,-1,4,1,1,20
1570181810846719,-11,-4,-2,-2,-2,-4,-3,-12
1570181810846719,15,-3,-4,-4,-11,3,12,32
1570181810858686,-5,0,2,-1,0,-2,-6,-27
1570181810858686,-15,-1,-9,-4,-5,-5,-10,-16
1570181810867665,9,3,7,4,11,0,-1,5
1570181810867665,-3,-5,-2,5,12,6,8,1
1570181810881764,0,0,0,-4,-31,-4,-5,-8
1570181810881764,11,6,1,-4,1,1,0,0
1570181810888734,-7,-2,2,-2,1,1,2,1
1570181810888734,-6,-2,-2,-1,-1,-5,-6,-5
1570181810904565,-6,-6,-6,2,14,3,-5,-4
1570181810904565,2,-6,-11,-7,-9,-1,0,9
1570181810906556,3,6,9,4,-8,1,4,2
1570181810906556,3,4,6,9,10,-1,-1,3
1570181810918528,-5,0,2,-4,-8,-2,-2,-3
1570181810918528,1,-1,-5,-3,1,4,4,6
1570181810927501,0,9,0,3,6,0,-1,5
1570181810927501,-15,-19,-4,-1,-7,-2,7,-14
1570181810942459,6,7,5,7,11,2,2,7
1570181810942459,-4,4,12,6,11,5,2,-1
1570181810943462,1,-6,-13,-14,-23,-4,1,-3
1570181810943462,11,4,-2,5,12,2,1,4
1570181810964404,-20,-11,-15,-14,-12,-5,-5,1
1570181810964404,2,3,11,11,2,1,2,3
1570181810966397,-7,-8,-24,-18,-7,-8,-5,-5
1570181810966397,-2,1,14,7,-4,-7,-5,-7
1570181810978366,-8,1,11,13,18,5,0,-3
1570181810978366,7,2,-26,-23,-17,-9,-4,6
1570181810987342,-5,-13,6,11,-1,-2,-2,-6
1570181810987342,-15,-4,-2,0,-4,3,-3,-8
1570181811001312,-3,7,11,11,10,-3,-6,0
1570181811001312,-9,10,-7,-3,-5,-4,-6,-24
1570181811008286,-5,-10,15,12,4,0,4,11
1570181811008286,10,-8,-24,-22,-21,-7,-8,5
1570181811025245,5,-5,-15,-15,-11,1,15,12
1570181811025245,0,11,-2,-15,-8,-2,2,-7
1570181811026242,-15,-17,2,9,17,-1,-9,-2
1570181811026242,5,2,0,1,-15,-6,-19,7
1570181811047180,14,10,-5,-2,3,-5,-11,-1
1570181811047180,-5,-16,-8,-14,-12,-6,-7,-10
1570181811049186,60,32,25,23,14,7,5,39
1570181811049186,-36,-8,-1,-3,6,-1,5,-37
1570181811062140,16,-1,-4,-1,-10,-5,4,-31
1570181811062140,-1,-1,15,13,12,1,-18,1
1570181811068354,7,-4,4,0,4,6,10,1
1570181811068354,0,2,-10,-1,4,0,0,10
1570181811085084,9,4,-1,-8,1,5,3,2
1570181811085084,18,2,11,14,6,-1,2,7
1570181811086878,-11,3,-1,-9,-9,-2,3,-21
1570181811086878,18,9,-5,-3,2,0,4,-4
1570181811107211,-23,-6,9,1,2,0,-12,-44
1570181811107211,-7,-1,2,4,-4,-1,5,19
1570181811109015,-8,5,-14,-8,-11,-4,-3,-5
1570181811109015,7,-31,-11,3,9,4,5,10
1570181811121980,11,29,13,4,11,2,4,22
1570181811121980,14,-4,6,4,0,4,9,35
1570181811135947,-15,-6,-11,-10,-2,-5,-12,-24
1570181811135947,0,10,6,3,2,3,13,45
1570181811144934,39,-10,-4,8,7,1,-16,-64
1570181811144934,-14,1,-5,-1,-21,-9,-4,-7
1570181811146913,-2,4,4,-1,8,2,3,14
1570181811146913,-7,4,-4,-17,-23,-1,21,40
1570181811167173,0,-5,2,6,16,3,-14,-50
1570181811167173,-7,-4,-7,-4,-10,-11,-18,-51
1570181811168857,-14,2,-1,-2,-4,3,1,0
1570181811168857,8,18,6,2,2,-1,-4,-20
1570181811180906,-22,-29,-5,-1,3,7,23,81
1570181811180906,2,1,6,5,9,1,-9,-38
1570181811190796,-7,11,4,-3,-9,-2,4,1
1570181811190796,24,-4,7,10,17,6,-3,-7
1570181811204758,-13,8,-15,-9,-23,-9,-9,-6
1570181811204758,-1,-1,1,-4,7,7,10,19
1570181811206754,0,-16,-24,-8,8,1,5,29
1570181811206754,-7,8,32,8,-17,-12,-27,-86
1570181811227705,3,-3,-4,0,-10,-3,5,26
1570181811227705,18,-6,-25,-7,2,4,8,19
1570181811228798,-19,20,28,5,0,-3,-7,-15
1570181811228798,-8,-3,-12,-2,14,3,1,3
1570181811249682,-8,-12,-4,-6,-15,-7,0,4
1570181811249682,-12,-8,-1,-5,-4,0,-2,-16
1570181811251855,13,-6,-13,-1,10,3,0,3
1570181811251855,4,6,2,-1,-11,-4,-2,2
1570181811264606,-4,5,1,-2,6,0,0,4
1570181811264606,6,-4,0,3,4,3,1,-7
1570181811266596,0,-1,4,4,8,0,-2,-9
1570181811266596,-20,-1,0,-1,-4,-3,-3,3
1570181811287622,-1,0,-13,-11,-4,4,13,45
1570181811287622,-13,0,6,9,13,2,-7,-24
1570181811288538,16,6,4,-1,-3,0,2,-7
1570181811288538,-1,-6,-6,-1,-9,-1,1,18
1570181811300679,-2,0,-2,-2,4,-1,3,-1
1570181811300679,-7,-5,-1,-4,-2,-4,0,17
1570181811310476,31,-3,2,1,-4,2,15,36
1570181811310476,-10,-2,-3,4,4,-2,-15,-49
1570181811324442,1,-1,1,2,11,3,2,3
1570181811324442,-4,-3,2,0,-2,0,2,6
1570181811326438,-5,0,-5,-1,-6,-5,0,0
1570181811326438,-2,-1,-7,-8,-1,-2,0,0
1570181811347819,0,5,5,7,6,0,-5,-5
1570181811347819,-6,-6,5,2,0,-1,-6,-23
1570181811348376,-10,-7,-5,-4,5,4,0,-7
1570181811348376,6,5,-1,-3,-7,1,5,-15
1570181811361341,1,-7,3,3,3,2,15,4
1570181811361341,-4,0,0,1,-5,-3,-9,-21
1570181811370383,-8,-3,-1,1,4,-2,-9,-57
1570181811370383,0,-7,-5,0,1,-3,-3,16
1570181811385276,8,10,1,0,-9,2,15,44
1570181811385276,-8,3,-1,0,2,0,-2,-7
1570181811386275,9,-14,-8,-7,-6,-3,4,-6
1570181811386275,2,2,4,-2,1,2,1,25
1570181811407217,-15,5,9,7,7,-6,-14,-7
1570181811407217,1,2,-1,-1,-5,-1,4,16
1570181811409304,-8,4,3,1,-7,-3,-10,-31
1570181811409304,3,-7,-5,-1,16,4,4,10
1570181811421182,1,-6,-4,-3,-17,-5,-6,-14
1570181811421182,5,9,-8,-3,4,2,3,1
1570181811428252,-13,-3,24,4,-10,-4,-4,-18
1570181811428252,-3,-5,-9,1,13,4,15,-16
1570181811445117,10,-6,-10,-11,-15,-6,-10,2
1570181811445117,-10,6,13,8,6,-1,-2,2
1570181811446114,1,-1,-8,-4,1,1,0,-1
1570181811446114,-4,0,-1,1,2,-3,0,19
1570181811468137,0,9,-11,-5,0,0,-6,-26
1570181811468137,-3,-16,10,-1,-8,-3,4,19
1570181811473141,0,1,1,4,20,4,-3,3
1570181811473141,-5,-6,-5,-8,-30,-5,-7,-12
1570181811482027,9,21,3,4,18,4,1,3
1570181811482027,3,-18,-9,-10,-22,-2,3,2
1570181811489000,9,1,-8,-1,3,6,10,-1
1570181811489000,-22,6,20,16,20,3,-13,10
1570181811504957,-15,-10,-2,-5,-11,-3,-5,15
1570181811504957,9,4,-13,-4,10,7,10,28
1570181811507000,-12,4,1,-4,-3,-7,-12,-10
1570181811507000,10,-2,5,8,-23,-8,1,27
1570181811526903,10,-2,13,5,8,2,4,20
1570181811526903,-5,3,-2,8,19,2,-1,3
1570181811528891,5,2,-14,-10,-17,2,0,18
1570181811528891,-3,-5,-5,-13,-16,-8,-4,5
1570181811540862,-19,8,8,-2,3,-7,-9,13
1570181811540862,-1,-12,8,13,0,0,0,23
1570181811557814,5,-1,-11,-3,-2,-1,-1,89
1570181811557814,33,11,-5,-10,-3,1,6,74
1570181811564802,-12,-21,-14,4,17,2,-1,22
1570181811564802,-4,4,-11,-15,-30,-8,-5,-27
1570181811566890,0,8,4,2,-9,-6,-1,-23
1570181811566890,6,-5,5,1,7,3,0,-54
1570181811587776,12,2,3,2,-6,-1,-1,-39
1570181811587776,15,-2,-13,-8,8,1,1,-42
1570181811588901,15,11,20,9,1,-1,-1,-54
1570181811588901,-32,-23,-21,-13,-8,-2,-3,-44
1570181811601056,8,7,2,7,-7,-8,-6,-7
1570181811601056,-7,-9,6,4,9,1,-2,-6
1570181811609676,24,29,-5,-6,-15,-1,1,15
1570181811609676,-24,-24,8,12,10,1,-3,-11
1570181811624641,-12,-2,-14,-15,2,6,3,7
1570181811624641,-7,-10,6,0,-4,-1,0,9
1570181811626630,-13,-8,-8,-1,0,-3,-1,11
1570181811626630,14,15,3,4,5,2,3,14
1570181811647579,-6,-1,3,2,3,5,9,-2
1570181811647579,-1,8,0,3,-1,-4,-6,31
1570181811648706,13,-15,2,2,9,7,7,17
1570181811648706,-7,-7,-2,-1,6,-1,-5,14
1570181811660539,8,-4,-8,-8,-10,-2,-1,34
1570181811660539,-7,18,4,0,-4,-1,10,117
1570181811670576,-19,-11,3,2,1,-1,-5,43
1570181811670576,2,12,-2,-3,6,7,22,101
1570181811684482,-4,-13,0,11,7,-3,-28,-95
1570181811684482,12,9,4,0,12,5,0,-32
1570181811691464,-1,4,0,-7,-19,-9,4,36
1570181811691464,1,-9,-13,-5,7,3,3,-10
1570181811707414,0,5,9,2,-3,-6,-14,-73
1570181811707414,1,-9,-3,-3,-9,-3,-4,-49
1570181811710067,-5,4,-7,-2,8,2,2,-37
1570181811710067,11,7,-3,-6,-8,-2,2,-23
1570181811721380,10,-3,6,1,2,2,6,-16
1570181811721380,21,8,-5,0,6,2,11,7
1570181811730358,-69,-23,-7,-5,2,-7,-22,-103
1570181811730358,11,0,-11,-9,-20,-3,15,40
1570181811744479,7,-12,-6,-1,-4,-9,-32,-69
1570181811744479,-19,6,11,-3,-3,-2,6,-15
1570181811746335,20,-2,-1,3,12,4,5,34
1570181811746335,-6,-5,-1,1,5,2,-2,-4
1570181811775366,-6,5,-2,-9,-20,0,8,42
1570181811775366,6,0,-8,1,2,-1,-2,-2
1570181811776230,-7,0,16,4,4,-1,-1,-3
1570181811776230,-4,0,4,7,16,2,-11,-36
1570181811781217,5,2,-1,1,0,1,13,51
1570181811781217,-7,-7,-6,-7,-15,-6,-8,20
1570181811790194,5,-5,-1,0,-6,2,12,28
1570181811790194,7,4,-4,1,3,-2,-12,-26
1570181811804156,-12,6,17,9,7,3,8,17
1570181811804156,6,-5,-3,1,6,3,-3,0
1570181811811272,-5,-4,-8,-2,0,-1,5,12
1570181811811272,-6,13,6,0,-4,0,-2,-32
1570181811828187,27,3,3,2,4,5,13,4
1570181811828187,-4,-23,-21,-11,-3,-2,1,-7
1570181811829091,19,21,33,16,5,-4,-36,-93
1570181811829091,-2,-1,-3,-1,6,2,0,-15
1570181811841059,2,3,1,-7,-24,-3,8,14
1570181811841059,0,4,-3,-1,0,0,-4,-12
1570181811850033,2,-8,-12,-5,-5,1,8,15
1570181811850033,7,2,6,3,8,1,-1,-7
1570181811864998,-5,3,-2,1,9,0,-6,-19
1570181811864998,3,6,2,1,0,4,5,0
1570181811870978,-12,-9,-6,-4,1,-1,1,0
1570181811870978,-14,-8,-3,-2,-8,-3,1,-19
1570181811887935,-8,-7,-1,-2,1,1,7,27
1570181811887935,2,1,1,1,-2,0,-2,-12
1570181811888929,6,8,10,4,6,1,0,12
1570181811888929,3,-5,-12,-6,-10,-4,-4,-3
1570181811901013,-12,-4,5,-2,-6,-3,0,3
1570181811901013,6,9,1,1,6,1,-2,-7
1570181811909885,1,-20,-8,-2,0,-4,-1,-3
1570181811909885,-2,0,3,0,-3,2,3,10
1570181811924835,4,3,3,-1,5,3,5,14
1570181811924835,8,3,2,1,-1,0,7,-13
1570181811931367,-31,-11,-11,-5,-4,-6,-15,-6
1570181811931367,4,3,-1,-1,-2,-4,-8,-1
1570181811947782,-3,-3,-2,1,4,2,2,3
1570181811947782,-5,-6,0,-1,-3,0,3,-5
1570181811948769,14,19,3,0,-2,2,7,13
1570181811948769,0,-2,6,3,1,1,1,9
1570181811960737,-4,0,-6,-1,-2,-3,-4,-6
1570181811960737,-5,-1,3,1,2,-2,-7,-1
1570181811969714,2,0,-4,-2,-4,0,5,6
1570181811969714,-18,-6,-3,-1,-6,-3,-8,-13
1570181811983684,4,-3,-5,-3,4,2,4,17
1570181811983684,-9,-4,-4,-1,-2,-2,-6,-4
1570181811992934,7,-4,-1,0,-2,1,3,7
1570181811992934,10,11,13,3,-1,-1,1,3
1570181812007617,2,1,-4,0,1,-1,1,6
1570181812007617,-5,-4,4,3,2,-2,-4,-5
1570181812008614,-1,-5,-9,-4,-6,-3,-1,2
1570181812008614,-2,-1,0,-2,1,-1,0,7
1570181812031629,-2,-3,-11,-4,-1,1,3,10
1570181812031629,-2,6,4,1,0,-4,-19,21
1570181812033550,0,-1,1,-1,0,1,3,27
1570181812033550,0,3,-2,2,1,-2,-3,4
1570181812044626,3,-4,-1,1,0,-1,1,-4
1570181812044626,-4,3,1,-1,-2,-1,3,-8
1570181812051204,-4,-5,-1,0,-1,2,2,-4
1570181812051204,4,0,-2,0,0,-1,-1,8
1570181812068383,-4,1,3,1,0,0,0,-4
1570181812068383,-2,-5,-1,-3,0,-1,-1,-2
1570181812069448,2,10,5,1,0,-1,-1,-3
1570181812069448,5,1,3,1,-1,0,1,-2
1570181812089394,0,-3,-3,-1,-1,-1,-1,0
1570181812089394,1,-2,-4,-3,-3,-2,0,-4
1570181812091388,-2,2,-3,-1,0,0,3,7
1570181812091388,-2,-5,-6,-3,-2,0,-1,6
1570181812112332,-3,4,10,0,2,1,-3,3
1570181812112332,-2,-1,1,1,-1,0,-1,12
1570181812114328,-3,-3,-4,-1,-1,-1,0,15
1570181812114328,9,3,2,-1,0,-1,2,3
1570181812127359,-5,-5,-6,-2,0,-1,0,-3
1570181812127359,-23,-3,5,1,1,1,1,-14
1570181812129292,17,4,-2,-3,-2,-2,1,-17
1570181812129292,23,-1,-6,-2,-2,-1,-2,-10
1570181812150231,-3,0,1,-1,1,-1,-3,-16
1570181812150231,5,1,-3,1,-2,-2,0,-19
1570181812151516,-8,-4,2,2,1,-1,-12,1
1570181812151516,2,2,-2,-2,0,0,-1,-2
1570181812163319,-3,-4,-3,-1,0,-1,2,-1
1570181812163319,19,10,3,1,1,2,1,3
1570181812172656,-8,-2,3,4,2,2,6,0
1570181812172656,-25,-2,5,3,1,4,4,0
1570181812187133,-47,-24,-16,-8,-5,-6,-5,-19
1570181812187133,-39,-18,1,-1,-1,1,-3,-2
1570181812189127,22,3,-12,-7,-5,-7,-14,-22
1570181812189127,-15,-5,2,6,-1,-1,0,-7
1570181812210079,24,15,8,7,1,1,2,4
1570181812210079,21,8,-7,-7,-1,-2,4,8
1570181812211069,-1,4,3,1,0,2,7,0
1570181812211069,-44,-22,-3,-2,-2,-1,-2,-19
1570181812224034,-26,-9,-2,-1,-2,-2,4,1
1570181812224034,26,1,-5,-3,-1,-2,0,-8
1570181812232708,4,3,4,1,0,5,-9,14
1570181812232708,12,6,0,-1,-1,-5,0,1
1570181812247084,22,8,-1,-3,1,3,6,0
1570181812247084,-9,-2,1,2,-2,-3,-11,0
1570181812248967,36,22,12,8,3,2,12,10
1570181812248967,24,17,5,6,3,0,1,-4
1570181812269909,-40,-50,0,2,-2,-3,-2,-3
1570181812269909,22,-6,-9,-8,-6,-5,1,-3
1570181812270907,64,14,-10,-12,-2,-1,-3,-2
1570181812270907,41,16,-2,-3,-2,2,1,23
1570181812291852,-1,11,2,-3,-1,0,-4,-4
1570181812291852,-58,-14,8,9,4,-1,-2,-18
1570181812292848,32,16,9,4,3,1,6,-7
1570181812292848,-4,-5,-5,-4,-8,-6,-2,19
1570181812306898,-40,-7,-10,-6,-1,1,-6,-16
1570181812306898,-8,-3,1,0,2,3,-3,3
1570181812307808,33,24,7,5,3,1,0,6
1570181812307808,-83,-55,-21,-13,-6,-5,-5,-32
1570181812328752,22,12,4,2,-1,1,-3,8
1570181812328752,35,14,9,5,-2,2,9,17
1570181812329750,0,-5,-2,3,0,-7,-5,-9
1570181812329750,31,-6,-6,-3,-1,-7,-7,-3
1570181812351694,62,23,3,3,1,1,3,9
1570181812351694,8,7,-3,-1,4,10,-4,-11
1570181812352688,-119,-50,-9,-6,-8,-13,1,11
1570181812352688,5,8,3,3,2,2,-3,-9
1570181812366777,12,-11,-1,2,2,-2,2,16
1570181812366777,55,16,1,-3,-2,3,4,26
1570181812367651,-39,-8,0,0,-1,16,2,-26
1570181812367651,8,6,0,-1,-2,-20,-9,23
1570181812389590,-13,18,8,4,3,2,-7,-41
1570181812389590,6,7,4,4,-2,-8,9,24
1570181812390590,-14,-20,-7,-4,-2,0,-4,7
1570181812390590,0,14,6,0,-2,2,2,-6
1570181812411538,20,7,0,-1,-3,-4,-13,-9
1570181812411538,-23,-13,-4,-4,-11,-2,1,9
1570181812412530,-4,-7,-7,-1,11,13,3,9
1570181812412530,13,9,6,3,4,2,5,56
1570181812426507,-10,-8,-3,-1,3,-4,3,79
1570181812426507,-4,-7,-4,-2,0,4,5,25
1570181812427489,-4,-8,-4,-4,-9,-11,0,-52
1570181812427489,-6,-7,-3,-2,0,2,-9,-105
1570181812449433,5,-6,2,0,-1,12,4,-31
1570181812449433,-10,3,1,-1,1,-12,-3,-24
1570181812449433,21,8,1,1,-1,-3,10,-29
1570181812449433,2,2,-1,-2,4,8,3,-42
1570181812471464,-6,6,1,-2,-2,11,1,-52
1570181812471464,-2,-2,-3,-4,0,-3,-19,-40
1570181812472371,-10,1,1,2,-1,-7,1,22
1570181812472371,13,0,0,0,0,4,-13,39
1570181812486463,9,9,-2,-5,-5,-2,4,28
1570181812486463,7,4,0,5,1,3,-12,36
1570181812487390,-24,-4,-1,-4,4,10,5,96
1570181812487390,6,5,1,1,-2,-12,8,127
1570181812509271,4,-6,-2,-1,-1,-2,5,124
1570181812509271,-8,-7,-2,0,-1,0,6,42
1570181812510269,4,-6,-1,-1,-2,-6,-7,-22
1570181812510269,-1,-1,1,1,4,9,5,-64
1570181812531211,2,-1,2,1,1,-5,-3,-75
1570181812531211,-7,0,1,0,0,-2,-2,-72
1570181812532209,15,3,2,1,-2,1,10,-35
1570181812532209,3,2,2,-2,-4,2,8,-37
1570181812546171,-1,-2,0,0,-1,-6,-17,-48
1570181812546171,-7,1,1,0,1,-4,-3,-44
1570181812547255,9,0,-4,-1,-3,0,0,0
1570181812547255,-3,2,1,1,1,5,10,-7
1570181812569111,6,1,-3,-1,-3,-14,-7,-12
1570181812569111,-8,-2,-1,-2,2,-3,0,-14
1570181812570116,-5,-3,-1,-3,-4,-12,-6,-20
1570181812570116,6,1,-1,0,-2,-12,-17,-12
1570181812592050,1,0,-1,-2,1,12,10,-28
1570181812592050,0,-2,-2,-3,-2,0,0,-29
1570181812592050,6,0,-2,-2,0,6,1,-11
1570181812592050,-6,-1,0,-2,-1,-6,-7,-19
1570181812607014,9,3,1,-1,0,-6,-2,-2
1570181812607014,1,0,0,-1,0,7,1,17
1570181812607014,-6,-4,-4,-1,-2,-14,-7,27
1570181812607014,-2,1,1,-1,-1,5,0,20
1570181812629347,0,-1,-1,1,1,1,-1,27
1570181812629347,3,-2,-1,-2,-2,-4,3,28
1570181812629948,-5,0,-1,0,0,7,-4,11
1570181812629948,-3,1,-2,-2,1,6,0,19
1570181812651888,-1,-1,-3,0,-2,-2,6,26
1570181812651888,-1,2,0,1,4,0,0,7
1570181812652887,0,-2,-1,-2,-3,-4,-3,10
1570181812652887,-6,-1,-2,0,2,10,4,1
1570181812668845,11,2,-2,-1,-8,-19,-12,15
1570181812668845,-2,-2,-1,-3,-3,-4,-2,3
1570181812668845,-1,0,0,1,-1,0,-1,-6
1570181812668845,0,-1,-1,0,0,2,4,-2
1570181812697767,-10,-1,0,-1,1,7,-2,-16
1570181812697767,5,0,-1,-1,0,2,5,9
1570181812697767,-5,0,-1,-1,2,8,-18,-14
1570181812697767,7,1,-1,-1,0,-5,9,11
1570181812711728,-4,-1,-1,-1,3,2,5,-3
1570181812711728,-1,-3,0,0,-2,-5,-15,4
1570181812712729,-4,-2,0,-2,0,3,8,-8
1570181812712729,-14,-7,-1,-1,1,1,-5,-3
1570181812726690,20,8,0,-1,0,1,3,6
1570181812726690,-1,0,1,1,0,3,3,-4
1570181812727687,-2,1,1,-2,-1,0,-1,4
1570181812727687,-4,0,0,1,-3,-3,-2,-2
1570181812748630,-5,-11,-3,-1,1,0,4,1
1570181812748630,-6,1,-1,1,1,1,1,-5
1570181812749628,4,2,-4,0,-2,-5,-1,-4
1570181812749628,4,3,1,-1,-2,-1,2,-2
1570181812771568,-6,0,1,0,0,3,-1,-8
1570181812771568,1,-1,-3,-1,-1,1,0,-3
1570181812772568,-3,2,8,2,1,-2,1,-1
1570181812772568,5,-1,-4,-2,0,-1,-2,-1
1570181812786535,-3,-1,2,0,0,0,-3,-3
1570181812786535,1,-3,-3,-1,-2,-1,2,13
1570181812787528,-1,-2,-4,-2,-1,-2,0,11
1570181812787528,1,1,0,1,0,-1,-2,0
1570181812809474,-3,0,0,-1,0,-2,-2,-3
1570181812809474,-2,-1,0,0,0,-1,1,3
1570181812810464,-3,-2,-3,3,0,1,-2,-17
1570181812810464,2,0,0,-2,-1,-1,-2,-8
1570181812831492,-6,-4,-2,0,0,1,1,-6
1570181812831492,-4,1,0,0,1,0,-3,-19
1570181812832475,9,-1,-2,0,-1,-3,4,24
1570181812832475,2,-3,-1,-3,-2,-1,-2,-3
1570181812846509,-4,-1,1,-2,-4,-6,-1,-6
1570181812846509,-4,0,2,0,3,11,4,-6
1570181812847368,2,1,-2,-1,1,7,-5,-7
1570181812847368,-3,-2,-4,-1,-1,-4,0,-4
1570181812869310,2,-1,-1,-2,-2,-11,-1,4
1570181812869310,0,-1,-1,-1,-2,-6,0,-3
1570181812870305,-2,-1,0,-3,0,-2,1,-3
1570181812870305,-1,1,1,0,0,2,0,2
1570181812892304,0,1,0,0,1,6,0,-4
1570181812892304,1,-2,-3,-4,-2,-5,-3,4
1570181812893244,-1,-3,-1,-1,-1,-1,0,0
1570181812893244,3,1,0,-1,0,1,-2,6
1570181812906797,-4,0,1,1,0,3,-1,-2
1570181812906797,4,0,-2,-1,-2,-1,-1,8
1570181812907209,4,-1,-1,-2,-1,-3,4,13
1570181812907209,-8,-3,-1,-2,-1,-3,-6,-10
1570181812929150,7,0,0,0,1,2,1,17
1570181812929150,-23,-2,0,-1,0,-1,-6,-33
1570181812930261,-4,0,0,-2,-1,-1,0,-7
1570181812930261,-1,0,-1,-1,-3,-9,-3,0
1570181812952087,-1,0,-1,1,2,4,4,3
1570181812952087,3,0,-1,-2,-3,-1,-1,-8
1570181812953084,-4,-1,-1,0,-1,-2,-2,-16
1570181812953084,0,1,0,-1,1,3,1,-9
1570181812967047,-6,0,-2,1,-1,1,-2,-13
1570181812967047,7,-2,-1,0,2,0,1,15
1570181812967299,-1,-1,0,0,-1,-6,-3,2
1570181812967299,5,0,-1,0,1,13,3,18
1570181812988989,-1,-1,-1,-1,-2,-10,-3,-3
1570181812988989,0,-1,0,0,-1,1,3,8
1570181812996977,0,2,0,1,0,0,-3,6
1570181812996977,-1,1,0,0,1,0,-1,-1
1570181813011928,-3,-1,0,0,0,1,-1,-1
1570181813011928,3,0,0,0,-1,-1,1,4
1570181813012987,-3,-1,-1,-1,-3,-2,-1,-11
1570181813012987,1,-1,0,0,-1,-1,0,5
1570181813026885,-1,1,-1,-2,-1,1,0,0
1570181813026885,2,0,-2,0,-1,-4,0,3
1570181813027885,-2,-2,0,0,-1,0,0,0
1570181813027885,-4,-1,-2,0,-2,-1,0,-9
1570181813048855,3,0,-1,-2,0,-1,1,5
1570181813048855,-3,0,0,0,1,1,-1,-12
1570181813049825,1,0,-1,-2,0,0,1,2
1570181813049825,0,-2,-2,-1,-2,-2,0,-3
1570181813072767,-6,0,0,-2,-2,0,-2,-8
1570181813072767,4,-1,-1,-1,-1,-1,1,8
1570181813072767,0,1,-2,-2,-1,0,1,-1
1570181813072767,2,-1,-1,-1,-1,-3,-2,3
1570181813086732,1,-1,-1,0,-1,-3,-3,2
1570181813086732,2,-1,1,-1,-1,3,-2,2
1570181813087731,-2,-1,-1,0,1,3,1,-1
1570181813087731,-2,-1,-1,-1,-1,-2,0,1
1570181813109666,0,-1,-1,-1,-1,2,0,-1
1570181813109666,-2,-1,-1,-1,0,-3,0,0
1570181813109666,4,0,1,1,-1,0,2,16
1570181813109666,-3,0,0,0,-2,-1,1,-3
1570181813132610,-3,-1,-1,1,-1,0,-2,-9
1570181813132610,5,0,0,-1,0,1,5,12
1570181813133876,-2,-2,0,0,-2,-1,-3,-1
1570181813133876,-2,-2,0,-1,1,-2,1,1
1570181813147107,-2,0,-2,0,-1,-1,-1,-1
1570181813147107,0,-1,-1,0,-2,-1,0,3
1570181813147636,0,-2,-2,1,1,-1,0,-4
1570181813147636,-1,-1,0,0,0,-1,-1,-4
1570181813169505,3,-1,0,-2,0,1,0,5
1570181813169505,-1,0,0,0,-1,-1,-2,-4
1570181813169505,-1,0,-2,-2,0,-2,-1,-1
1570181813169505,-1,0,-1,-2,-2,-1,-1,-2
1570181813192526,0,-2,0,0,0,2,2,3
1570181813192526,0,-2,1,-2,0,-2,-2,7
1570181813193442,0,0,-2,-1,0,0,-2,-11
1570181813193442,4,-2,-1,-1,0,-1,0,6
1570181813206449,-3,0,0,-1,0,-1,-2,-5
1570181813206449,-2,3,1,1,-1,-3,-2,-9
1570181813207462,4,-1,-2,-1,-1,-2,-2,13
1570181813207462,0,0,-1,0,-1,-1,1,3
1570181813229392,-2,0,0,-1,-1,0,-2,-2
1570181813229392,-2,-1,-1,-2,-1,0,0,-3
1570181813229817,-2,-2,-1,-2,0,-1,1,-7
1570181813229817,0,-1,0,1,0,-2,0,-1
1570181813252284,3,-1,-1,0,-2,0,2,4
1570181813252284,-1,-1,-2,-1,-2,-1,-2,-2
1570181813253282,-2,1,0,1,-1,0,-1,0
1570181813253282,-2,-2,-1,-2,-1,0,-1,1
1570181813267243,0,0,1,-1,0,-1,0,5
1570181813267243,-4,-1,-3,-1,-2,-1,-4,-14
1570181813274597,-1,0,-1,-2,-3,-1,1,-3
1570181813274597,1,1,0,-3,0,-2,-1,-1
1570181813289184,-2,0,-1,-1,0,-1,0,4
1570181813289184,0,-1,0,-2,0,-2,0,2
1570181813290184,-3,0,-2,0,-1,-1,-1,-6
1570181813290184,0,-1,-1,0,-3,0,1,2
1570181813312166,0,-1,1,-3,-1,0,-1,-3
1570181813312166,-1,-1,-1,-2,-1,1,1,4
1570181813313164,-1,0,0,-1,-1,-1,-1,-2
1570181813313164,0,-1,0,1,2,-1,0,-1
1570181813327088,0,0,0,1,0,1,1,1
1570181813327088,2,-2,-2,0,0,-3,1,3
1570181813327140,-1,0,1,0,-2,0,-1,1
1570181813327140,-1,0,-2,0,-1,0,-2,-4
1570181813349023,-1,-1,-2,-1,-1,-1,-1,1
1570181813349023,-1,1,0,0,0,-2,0,1
1570181813350023,-3,-2,0,0,-1,-1,0,2
1570181813350023,5,-1,-1,-2,1,-2,0,-1
1570181813372227,0,1,-1,-1,-2,-2,0,-1
1570181813372227,-1,-3,-1,0,-1,1,0,0
1570181813373092,-2,-1,0,-1,-1,1,-1,-2
1570181813373092,-1,0,-1,0,-1,0,2,1
1570181813387113,0,0,-1,-1,0,0,-2,1
1570181813387113,-1,0,2,1,0,1,1,-2
1570181813387113,1,-1,0,0,-1,-1,-2,-4
1570181813387113,-2,-1,-2,-1,0,1,-2,-5
1570181813409641,-2,-2,-1,0,0,-1,-4,-9
1570181813409641,-1,1,0,-1,0,1,2,6
1570181813409641,2,-1,1,0,0,-1,0,2
1570181813409641,-2,0,1,-1,-3,-1,-1,0
1570181813432452,0,0,0,-1,0,0,0,-1
1570181813432452,-2,-2,-1,0,-2,-1,-2,-5
1570181813433321,-2,-1,-1,-1,0,-1,-1,0
1570181813433321,-3,-2,-3,1,0,-1,0,-5
1570181813447317,0,0,0,0,0,-1,0,4
1570181813447317,0,0,0,-1,-1,0,0,2
1570181813447317,1,0,-2,-3,0,0,0,1
1570181813447317,-3,-1,-1,-1,-1,-1,-3,-1
1570181813469467,-1,-1,0,-1,-1,-1,1,0
1570181813469467,0,0,0,1,-1,0,-2,-4
1570181813470719,1,-1,0,-1,-1,-1,1,-2
1570181813470719,-2,1,2,0,1,-1,-1,-7
1570181813492458,1,0,-1,0,-1,0,0,8
1570181813492458,-2,-1,-1,-1,-1,-1,-2,3
1570181813493277,-3,-1,-1,-1,-1,-1,-3,-6
1570181813493277,4,1,-1,0,-2,1,5,20
1570181813507184,-3,-2,0,-2,-1,-2,0,1
1570181813507184,1,0,-1,-1,-1,-1,0,-1
1570181813507184,0,0,-3,1,-1,0,1,-1
1570181813507184,-2,-1,-1,0,-2,-1,0,-6
1570181813529371,2,-2,-1,-2,-1,0,-1,4
1570181813529371,1,-1,-1,-1,-1,0,1,7
1570181813530142,-1,-2,0,-1,-1,-1,-1,-2
1570181813530142,1,1,0,1,-1,0,0,0
1570181813552309,-1,-3,0,0,0,-1,0,-5
1570181813552309,-4,-2,1,1,-2,-1,-2,-7
1570181813553292,0,-1,0,1,-1,-1,-1,4
1570181813553292,-2,-1,-1,0,-1,-2,-2,-4
1570181813566583,-5,-1,-2,1,0,-1,-1,-8
1570181813566583,7,1,-2,-2,0,-1,11,8
1570181813574313,4,1,0,0,-2,-1,-5,8
1570181813574313,-1,-2,-1,-1,0,0,-2,-2
1570181813589415,0,-1,-1,-1,0,1,2,0
1570181813589415,-1,-1,-2,-1,-1,1,1,-3
1570181813590263,-2,-2,0,-1,0,-1,1,-3
1570181813590263,-1,-2,0,1,-2,-1,-1,1
1570181813612433,0,-1,-1,-1,-1,-2,-2,-3
1570181813612433,-2,0,-2,0,1,0,-2,-3
1570181813613438,0,-1,1,-1,0,0,2,-2
1570181813613438,-5,-1,2,0,1,0,-1,0
1570181813626396,2,0,-1,-1,-2,0,-1,-10
1570181813626396,1,1,1,1,-2,-3,-4,-1
1570181813634431,1,-1,0,0,0,-1,1,1
1570181813634431,2,1,-1,0,-1,0,3,0
1570181813649550,-2,0,0,0,0,0,2,0
1570181813649550,-2,1,-1,-1,-1,-1,-3,-3
1570181813650338,-1,0,-2,0,-1,-1,-1,-3
1570181813650338,-1,-1,0,-2,-2,0,-2,-8
1570181813672466,-1,-1,-1,0,-1,0,-2,10
1570181813672466,3,-1,-3,-1,0,-1,0,6
1570181813673277,-4,0,-1,-1,-2,0,-2,-1
1570181813673277,1,-1,-1,-1,0,0,-4,1
1570181813686231,-2,-1,-1,0,-1,0,1,-1
1570181813686231,-1,-3,0,-1,-1,-1,-1,-3
1570181813694212,0,2,-1,-1,-3,0,0,2
1570181813694212,-2,-2,-1,-2,-3,-1,3,0
1570181813709169,-1,-2,-2,-1,0,0,-3,-2
1570181813709169,-4,-1,0,0,1,0,0,1
1570181813710166,-4,-2,-1,0,-1,-1,-4,-9
1570181813710166,0,-2,0,-1,-1,-1,-3,-6
1570181813732205,6,2,1,1,1,-1,3,19
1570181813732205,-1,0,0,-1,0,0,-1,-1
1570181813733107,-1,-1,-1,-2,0,0,2,2
1570181813733107,-2,0,-1,2,0,-1,-2,-2
1570181813746905,-1,0,-2,-1,0,0,-1,-7
1570181813746905,-8,-3,-2,-2,-2,1,12,-16
1570181813754095,0,-2,-1,0,0,0,-1,4
1570181813754095,1,1,0,-1,-1,-1,0,9
1570181813769627,-1,1,-1,-1,-1,0,-1,-7
1570181813769627,0,0,-1,-1,-1,0,0,-1
1570181813770008,-3,-1,-1,0,0,0,-1,-9
1570181813770008,2,-1,-1,0,0,1,3,14
1570181813800070,-1,-1,0,-1,0,1,3,-1
1570181813800070,0,0,-1,-1,0,-3,-6,-1
1570181813800926,-5,-1,-1,-3,-1,0,11,-20
1570181813800926,6,3,0,0,-1,-1,-8,6
1570181813805910,1,-2,0,0,-1,-1,1,6
1570181813805910,-1,1,0,0,-1,1,-2,0
1570181813813890,2,-1,0,0,-1,0,2,6
1570181813813890,-3,-2,0,-1,0,0,0,-7
1570181813829849,0,-1,-1,-1,-2,-3,0,1
1570181813829849,1,-1,-1,-1,-3,0,-2,-1
1570181813829849,4,0,-1,0,-1,0,-1,9
1570181813829849,-9,-5,-3,-2,-1,-2,-2,-14
1570181813852786,2,0,-2,0,-2,-1,-4,-2
1570181813852786,-1,0,0,-1,-2,-1,-1,4
1570181813852786,3,0,-1,-1,1,-1,-4,2
1570181813852786,1,0,-1,0,0,1,3,13
1570181813875434,-3,-1,0,0,0,2,0,-7
1570181813875434,0,-3,0,1,1,-1,-2,2
1570181813875723,-3,-1,-1,0,-2,-1,0,-3
1570181813875723,2,0,-2,0,0,-2,-10,-1
1570181813889786,5,-2,-1,-3,-2,-2,0,9
1570181813889786,0,2,0,0,1,-2,-1,4
1570181813890683,-1,-1,-1,-1,-1,0,-7,5
1570181813890683,-2,-1,-2,1,-1,-1,1,-17
1570181813912625,-2,0,-1,0,0,-1,-1,-2
1570181813912625,-1,-3,0,-1,-1,-1,-4,-3
1570181813912625,-4,-1,-1,0,-1,-3,1,-1
1570181813912625,0,0,1,-2,1,0,1,-2
1570181813934569,-2,-1,-1,-2,-2,0,0,-3
1570181813934569,-1,-1,0,-1,0,-1,0,-4
1570181813935564,2,1,-1,0,0,-1,-2,-2
1570181813935564,0,-1,-1,0,-3,0,2,3
1570181813949527,-1,-2,-1,0,-2,-2,-1,1
1570181813949527,-1,0,-1,-1,0,-1,-2,1
1570181813949527,1,0,0,1,0,2,0,12
1570181813949527,4,-1,0,-2,0,-1,4,8
1570181813972588,-3,-1,-1,-1,0,0,0,-5
1570181813972588,1,-1,-1,1,1,1,-1,1
1570181813972588,-1,-1,-2,0,0,1,-3,-3
1570181813972588,1,-1,-1,0,-2,0,1,2
1570181813995523,-5,-2,1,0,0,-1,-2,-7
1570181813995523,0,-1,-1,-1,0,-1,-1,0
1570181813995523,-5,0,-1,-1,0,-2,-2,-10
1570181813995523,2,0,-2,-2,-1,-3,0,11
1570181814009531,-7,0,-4,0,-2,1,13,-17
1570181814009531,0,-1,-1,-2,-1,-1,-4,3
1570181814010425,1,0,0,0,-2,-2,0,-1
1570181814010425,-3,0,-1,-1,0,-2,-6,-18
1570181814032425,-1,-2,-1,-1,1,-1,0,-1
1570181814032425,-2,0,-1,0,0,-1,0,-4
1570181814033428,-1,-2,-2,-1,-1,-2,-1,-1
1570181814033428,-3,0,-2,0,-1,0,-1,-6
1570181814055363,0,-1,-1,-1,0,0,-3,3
1570181814055363,-3,-3,-1,-1,-2,-1,-4,-8
1570181814055363,1,0,-2,0,0,-1,-1,3
1570181814055363,-7,-2,0,-1,0,2,7,-20
1570181814069531,2,1,1,-1,-1,-4,-12,2
1570181814069531,6,0,-2,-1,-1,-1,2,12
1570181814070322,0,-1,0,0,0,1,0,-3
1570181814070322,-1,-2,0,0,1,1,2,3
1570181814092757,-1,-1,0,0,-2,0,0,2
1570181814092757,-3,-1,-1,-1,0,-2,-1,-3
1570181814093260,-1,-1,-1,0,-1,-1,-2,-4
1570181814093260,3,0,1,0,1,0,-1,11
1570181814115200,-2,0,-1,-1,0,-1,-1,-4
1570181814115200,-1,1,1,0,-1,0,-3,-2
1570181814116287,0,0,1,0,-1,-2,0,-1
1570181814116287,-2,0,-2,0,-1,-3,-2,1
1570181814129169,0,0,0,0,-3,-2,-1,-1
1570181814129169,-2,0,0,0,-1,1,1,-1
1570181814130409,-1,-1,0,-1,0,-1,0,1
1570181814130409,-1,-1,0,-2,-2,-1,-3,-1
1570181814152104,2,0,0,1,0,-1,-3,1
1570181814152104,1,-1,0,-1,0,-1,0,-1
1570181814159089,-1,0,-1,-1,0,-1,1,5
1570181814159089,1,0,-2,-2,-1,-1,-3,-5
1570181814175045,0,0,1,-1,2,0,0,1
1570181814175045,-1,-1,-1,0,0,-1,0,-1
1570181814176039,-1,-2,0,-1,0,0,-1,1
1570181814176039,-1,-1,-1,1,-1,-1,1,2
1570181814189060,2,0,1,1,0,-3,-13,9
1570181814189060,3,0,-2,-2,0,0,0,4
1570181814190003,1,-2,-2,-1,-2,0,-1,-3
1570181814190003,-3,0,-1,0,-1,-1,-3,-3
1570181814212590,0,-1,-1,-1,-2,0,3,-2
1570181814212590,0,-1,-1,-1,-2,-1,0,2
1570181814212945,0,0,-2,-1,-1,0,-2,1
1570181814212945,0,0,-1,0,-1,0,0,4
1570181814234886,-4,-2,-1,-2,1,-1,2,-7
1570181814234886,-2,1,0,-1,-3,-2,1,-2
1570181814235879,-1,0,0,0,-1,0,-3,2
1570181814235879,-1,-1,0,-1,0,-1,-2,-2
1570181814249119,1,0,-1,-1,-1,0,0,1
1570181814249119,-3,-1,-1,1,0,0,-1,-5
1570181814250839,0,0,1,-1,-3,-1,1,-4
1570181814250839,1,-1,1,1,0,1,0,5
1570181814272918,-2,-2,-2,0,-1,-2,0,2
1570181814272918,-5,-2,-2,-2,-1,0,5,-5
1570181814272918,-1,-1,-1,-1,0,1,1,6
1570181814272918,-1,-1,-2,-1,1,-1,0,0
1570181814294722,0,0,0,-1,0,1,1,5
1570181814294722,-3,-2,-1,1,0,-2,1,-6
1570181814295721,-1,-1,-2,-1,-1,-2,-2,-13
1570181814295721,-1,-1,0,-1,0,0,-1,-1
1570181814309683,-1,-2,-2,0,-1,0,3,-2
1570181814309683,0,-2,0,0,-1,0,-3,5
1570181814310089,-2,0,-1,-1,-1,-2,-1,2
1570181814310089,2,-1,-1,-1,0,1,1,0
1570181814332626,-2,0,-1,-1,-2,0,-1,-7
1570181814332626,0,0,1,-1,-1,-1,-1,-1
1570181814332893,0,-1,1,1,-2,0,-1,-1
1570181814332893,0,-1,-1,0,-3,-1,0,2
1570181814354792,-2,-2,0,0,2,0,0,0
1570181814354792,-1,0,-1,-1,-1,0,-3,-5
1570181814355727,3,0,1,1,1,-2,-9,13
1570181814355727,-6,1,2,1,-1,-2,-3,-7
1570181814369522,3,-3,-1,-2,-2,0,0,0
1570181814369522,2,0,-1,-1,-1,-2,-3,3
1570181814369522,-2,1,-3,-1,-2,0,3,0
1570181814369522,2,0,-1,0,-2,2,0,-1
1570181814392735,-2,-1,-1,0,2,-1,-2,-1
1570181814392735,0,-1,1,-2,0,2,2,-1
1570181814393458,-1,-1,-1,-2,-1,0,1,-5
1570181814393458,1,0,-1,-2,-1,-2,0,0
1570181814414472,-1,-1,-1,0,-2,1,3,1
1570181814414472,1,0,-1,0,-1,0,2,1
1570181814415399,-1,-2,0,-1,1,0,0,-1
1570181814415399,1,1,0,-1,1,-1,-3,1
1570181814429369,-1,-1,1,0,0,-1,0,0
1570181814429369,-4,-2,-2,0,-1,-1,-3,-3
1570181814429369,-2,-1,0,0,0,-1,0,-5
1570181814429369,-2,0,-1,-1,0,2,2,3
1570181814452306,1,-1,-1,-2,-2,-1,1,0
1570181814452306,-5,0,-2,0,-1,-2,-3,-3
1570181814453298,-2,-1,-1,-1,-1,-1,2,-4
1570181814453298,-1,-2,-1,-1,0,0,0,0
1570181814475244,-4,0,-1,-1,-2,-1,0,-1
1570181814475244,1,0,-1,-1,1,-1,-3,4
1570181814476237,2,-2,1,-1,0,-1,1,0
1570181814476237,1,-2,-1,-1,0,-1,-1,3
1570181814488208,-2,1,0,-2,1,1,-2,0
1570181814488208,-2,-2,0,-1,-1,-1,0,-2
1570181814497185,-1,0,-1,-2,-1,-1,-1,0
1570181814497185,-2,-1,0,0,-1,-1,-1,-2
1570181814512212,-1,-2,1,-1,-2,-2,1,-6
1570181814512212,3,1,0,0,0,-2,-11,6
1570181814513139,0,-3,-1,0,0,0,-1,-2
1570181814513139,1,-1,-1,0,-2,-1,1,1
1570181814535079,1,0,-1,-2,0,-1,0,0
1570181814535079,0,0,-1,-2,-2,0,2,1
1570181814535332,-1,0,0,-1,-2,-2,-2,-10
1570181814535332,-1,-1,-2,-1,0,-2,-4,-4
1570181814549047,-1,0,1,1,-1,2,-2,-2
1570181814549047,-1,-2,-1,-1,-1,-1,2,-2
1570181814557027,0,0,-1,0,-1,-1,1,2
1570181814557027,-1,0,0,-2,-1,-1,1,-3
1570181814572074,-3,-2,-1,-2,0,-4,-5,-15
1570181814572074,-1,0,-1,-1,2,0,2,0
1570181814572978,1,0,-1,-2,0,0,0,0
1570181814572978,0,-2,0,0,-2,0,-1,2
1570181814595145,-2,-1,-1,0,0,-2,-3,-5
1570181814595145,1,-1,-1,-1,-1,-1,1,3
1570181814595927,1,-1,-2,0,-1,-1,1,2
1570181814595927,-4,-2,-1,-1,0,1,-2,-5
1570181814608882,0,1,-1,-1,-1,0,1,7
1570181814608882,-6,-2,-1,1,-1,1,9,-24
1570181814616939,3,0,1,1,-2,-1,-7,4
1570181814616939,2,0,-1,0,-1,-2,-2,-4
1570181814638885,0,-1,-3,-1,0,0,-1,1
1570181814638885,1,0,0,-1,-1,1,1,2
1570181814646788,0,-1,-1,-2,1,0,2,6
1570181814646788,-2,-1,0,0,0,-1,1,-3
1570181814654762,4,0,1,1,-1,-2,-2,5
1570181814654762,-3,-2,-1,-1,-2,-2,-6,-5
1570181814661909,-3,0,0,0,-2,1,1,-3
1570181814661909,2,-1,0,-1,-1,0,1,3
1570181814668735,-1,-1,-1,0,0,0,0,4
1570181814668735,4,0,-1,-1,-1,-1,-2,11
1570181814676700,0,-3,-1,0,-1,-1,-2,-9
1570181814676700,-2,-2,0,0,-1,0,3,-5
1570181814692660,5,0,0,-2,-1,-1,-13,8
1570181814692660,0,0,1,0,0,-2,-2,1
1570181814692660,-4,-1,-1,0,0,-1,0,-2
1570181814692660,0,0,-1,-1,-1,-1,0,1
1570181814714598,-3,-1,-1,0,-2,0,2,-10
1570181814714598,0,-1,0,-1,1,0,-2,4
1570181814715597,-1,-2,-3,-1,0,1,-4,4
1570181814715597,1,2,1,0,-1,0,3,12
1570181814728566,-1,0,-3,-2,-1,0,4,0
1570181814728566,0,-1,-2,-2,-1,0,0,0
1570181814736549,-3,1,0,-1,-2,0,3,-3
1570181814736549,0,0,-1,0,1,-1,-2,-1
1570181814752648,0,-1,0,-1,-2,0,1,1
1570181814752648,-1,-1,-1,0,0,-2,0,-2
1570181814753495,0,1,-1,1,-1,0,0,7
1570181814753495,-8,-3,-3,-2,-1,0,7,-10
1570181814774445,0,0,-3,-1,0,0,1,0
1570181814774445,2,0,0,-1,-1,0,1,0
1570181814776437,-1,0,-1,-3,-1,0,-2,1
1570181814776437,4,1,0,0,-1,-2,0,11
1570181814797387,-3,-1,0,1,-1,0,0,-6
1570181814797387,-2,0,-1,0,-2,0,0,-1
1570181814799508,-2,-2,-1,-1,2,0,4,-1
1570181814799508,-2,0,-1,-2,1,0,-1,-2
1570181814812079,-1,1,-1,-1,-1,-1,0,1
1570181814812079,2,0,1,0,-2,-2,-2,1
1570181814818330,0,0,1,0,-2,-2,-1,-2
1570181814818330,-1,0,0,-1,-2,0,-5,-17
1570181814835421,2,0,0,0,0,-3,-1,11
1570181814835421,-1,-1,-4,0,-1,-1,0,-3
1570181814836273,1,0,-2,0,-1,1,-1,-2
1570181814836273,1,0,0,1,-1,1,-2,1
1570181814857221,-3,-1,0,-1,-1,-1,3,-3
1570181814857221,-1,-2,-2,-1,0,0,-1,-4
1570181814859217,0,-1,0,1,-1,-1,-2,2
1570181814859217,-1,-1,0,1,0,-1,-2,2
1570181814871182,1,-1,0,-1,-1,-1,0,-2
1570181814871182,0,-2,0,-1,-1,-2,-1,2
1570181814879159,0,-2,-2,-2,-3,-1,-2,-3
1570181814879159,-8,-5,-3,-2,-1,1,8,-24
1570181814895116,2,1,0,1,0,-1,-1,2
1570181814895116,-1,0,-2,-2,0,-1,1,-1
1570181814896301,1,-1,-1,0,0,1,0,-6
1570181814896301,1,1,-1,0,0,-2,0,4
1570181814917403,-3,-1,-1,0,1,-1,-1,-12
1570181814917403,1,0,1,0,0,-2,0,7
1570181814919053,-1,0,1,-2,0,0,2,-3
1570181814919053,-1,0,-1,-1,-2,-1,-2,3
1570181814932019,2,-2,-1,0,-1,-1,1,3
1570181814932019,-2,2,1,-1,0,-1,-2,0
1570181814938324,-1,-2,-1,-1,-1,-2,0,-2
1570181814938324,2,1,0,-2,0,0,-2,7
1570181814955146,-1,-2,-2,-1,-1,1,0,0
1570181814955146,-3,-2,-1,-1,-1,-1,-2,-4
1570181814956953,2,1,0,-2,1,-1,1,6
1570181814956953,-2,-1,0,-1,-1,-2,-5,2
1570181814977895,-3,-1,-1,-2,0,1,0,-1
1570181814977895,3,0,1,0,0,1,0,3
1570181814979502,-4,0,-1,0,-2,-2,-4,-19
1570181814979502,5,0,0,1,-1,0,-1,15
1570181814992136,0,-1,-1,0,-3,-2,1,0
1570181814992136,0,0,0,2,0,-3,-2,-4
1570181814998846,-1,-1,0,0,0,0,-4,7
1570181814998846,-1,-1,-1,0,-1,-1,0,-3
1570181815014967,-2,-1,0,-1,-2,-1,-1,-5
1570181815014967,0,0,-1,0,-1,0,-2,5
1570181815016791,2,0,-1,1,-1,-2,2,4
1570181815016791,-3,-1,0,0,1,0,-2,-9
1570181815037739,3,0,1,-1,0,0,0,7
1570181815037739,-2,-1,-3,-1,1,0,2,-2
1570181815038739,-2,-1,-2,0,-1,0,-1,-2
1570181815038739,0,0,-2,0,-1,-2,0,1
1570181815051697,-1,-1,0,-1,-1,-2,-3,-2
1570181815051697,-3,1,-1,1,-1,0,-2,-6
1570181815058682,2,-1,0,0,-2,-1,0,-3
1570181815058682,-5,0,-1,-2,-1,-1,-3,-6
1570181815075639,1,1,0,-2,-3,-1,2,3
1570181815075639,1,-1,-1,-2,0,0,0,-3
1570181815076631,-3,0,-1,0,0,-1,-2,1
1570181815076631,-2,0,-1,1,1,0,1,1
1570181815097580,-2,0,-1,0,0,-1,-2,-1
1570181815097580,0,-3,0,0,-2,1,1,4
1570181815098573,-4,-3,-1,-1,-1,-1,8,-5
1570181815098573,3,-2,0,-4,0,-1,-1,0
1570181815111595,-1,0,-1,0,1,-1,1,-2
1570181815111595,2,1,0,0,0,-3,-6,6
1570181815118523,-2,-2,-1,-3,-1,1,1,2
1570181815118523,0,0,-2,0,-1,1,-1,0
1570181815134476,-1,-1,0,0,-2,0,-1,-1
1570181815134476,-3,-1,-1,0,-2,0,4,-7
1570181815136471,1,1,0,-2,-1,0,-3,3
1570181815136471,0,1,-1,-1,-1,-1,-1,6
1570181815165398,-1,-1,-1,-2,1,-1,-3,-9
1570181815165398,-4,1,-1,-1,0,-3,-4,-15
1570181815166553,1,0,-3,0,0,1,0,5
1570181815166553,0,-1,0,-1,-1,0,0,-2
1570181815171383,-3,-1,-1,-1,0,0,0,2
1570181815171383,-1,-3,-2,-2,-2,-1,-1,-1
1570181815178361,-1,-1,1,0,0,-1,-1,-4
1570181815178361,0,-2,-2,0,-2,-1,2,1
1570181815195334,2,1,0,-1,1,0,-6,13
1570181815195334,-2,-1,-2,0,0,2,2,1
1570181815196358,-2,0,-1,1,0,-1,-3,-1
1570181815196358,2,0,-1,0,-1,0,-4,2
1570181815217260,-4,-1,1,1,0,0,2,-1
1570181815217260,-1,1,-1,0,2,0,-1,4
1570181815219249,1,-2,-1,-1,-1,-1,-1,1
1570181815219249,-5,0,1,0,0,-2,0,-10
1570181815232215,0,-1,-3,-2,-1,-1,-1,0
1570181815232215,0,-1,0,-1,-2,0,0,0
1570181815238207,-2,0,1,-3,-1,-1,0,-1
1570181815238207,2,0,-2,-2,-2,1,2,10
1570181815255247,-3,-1,-3,-1,-2,-1,-1,-3
1570181815255247,1,-1,0,-1,0,-1,-3,4
1570181815256154,-1,1,-1,0,1,-1,-1,-3
1570181815256154,-2,-1,0,-1,0,0,-1,-2
1570181815277099,-1,1,0,0,-1,0,-1,-2
1570181815277099,1,0,-1,-1,-2,0,4,1
1570181815279196,-4,-3,0,0,-1,-1,-4,-8
1570181815279196,0,-2,0,-2,0,-3,1,-1
1570181815291058,-1,-2,-1,-1,-1,0,0,-4
1570181815291058,-2,-1,1,-1,0,-1,-1,-4
1570181815300035,0,0,-1,-1,-1,0,0,1
1570181815300035,1,1,0,1,0,-2,-2,-3
1570181815314996,0,0,0,-2,-1,1,-1,1
1570181815314996,-3,0,-1,-1,0,-1,1,7
1570181815316989,2,0,-2,0,-1,0,0,2
1570181815316989,-1,-1,-1,0,-2,-1,-1,-2
1570181815336939,-4,-3,-1,0,-2,1,10,-12
1570181815336939,0,1,2,-1,-1,-1,-3,0
1570181815338930,-3,-2,-2,0,-3,-1,-3,-14
1570181815338930,2,0,-2,0,0,-1,0,4
1570181815350904,-1,-1,-2,1,-1,-1,2,-1
1570181815350904,-2,-2,-1,0,-1,-1,-2,-4
1570181815367853,-2,0,-2,1,-1,-1,-1,-2
1570181815367853,-1,-2,-1,-2,-1,0,2,0
1570181815374839,-6,-1,0,1,-1,-1,-6,-8
1570181815374839,6,-2,-2,-2,-1,-2,1,10
1570181815377020,1,1,-1,1,-1,0,1,13
1570181815377020,-1,-1,0,0,-1,-1,-3,-8
1570181815397777,3,1,-2,-1,0,1,-1,9
1570181815397777,-4,-1,0,-1,0,-2,-1,-8
1570181815398822,0,0,0,-1,0,-1,-1,4
1570181815398822,-1,-1,0,0,-1,-1,0,0
1570181815419786,1,-1,-1,0,-1,-2,-3,-1
1570181815419786,-1,0,0,0,-1,0,-1,-5
1570181815421709,0,-1,-1,-1,-2,-2,1,1
1570181815421709,0,-1,-1,0,-1,0,-2,0
1570181815442658,-1,-2,-2,-2,-2,-1,-4,-12
1570181815442658,1,1,0,0,0,2,6,12
1570181815443650,0,-2,0,0,1,-1,0,0
1570181815443650,-2,-1,0,0,0,0,-1,-4
1570181815457615,0,-3,0,-3,-2,-1,-2,-1
1570181815457615,0,-1,-2,1,-1,-2,0,-6
1570181815458609,1,0,0,-1,-1,1,-1,-4
1570181815458609,0,0,0,-2,-2,0,0,2
1570181815470627,-1,-1,-1,0,1,-2,3,-5
1570181815470627,-2,-1,-1,1,-1,0,-3,-5
1570181815479553,-3,-1,0,-2,0,-3,-1,-2
1570181815479553,-2,-2,-1,1,0,-1,-4,-3
1570181815494661,4,0,-3,-1,0,0,2,9
1570181815494661,-1,0,1,-2,-1,-1,-3,-4
1570181815496508,1,1,1,0,1,0,-1,1
1570181815496508,-2,-1,-1,-1,-1,-2,-3,1
1570181815517494,-1,-1,0,-1,0,-2,-1,1
1570181815517494,0,-1,-1,-1,0,0,0,-2
1570181815518448,-1,0,-1,-2,1,0,1,-1
1570181815518448,-2,-1,-2,-1,0,-1,-2,-4
1570181815531414,-1,0,-1,0,-1,1,2,1
1570181815531414,5,0,-1,0,0,-2,-15,4
1570181815540529,-2,-1,-1,0,-2,0,0,-11
1570181815540529,2,-1,-3,-1,-1,-2,-2,7
1570181815555354,1,0,-1,-1,-1,0,1,4
1570181815555354,-3,-1,0,-1,-3,0,2,-2
1570181815557449,0,0,-1,0,-2,-2,-2,2
1570181815557449,-1,1,-1,-2,-2,0,-2,-9
1570181815577296,-2,1,0,1,0,-1,1,4
1570181815577296,-3,-3,-2,1,1,-1,2,-2
1570181815579390,-1,0,-1,-1,0,1,-2,1
1570181815579390,-1,-1,-1,1,-2,2,4,1
1570181815591396,0,0,0,0,-1,0,-2,0
1570181815591396,-3,-1,-1,1,0,-2,1,-5
1570181815600230,0,-1,0,-1,0,-1,0,1
1570181815600230,2,1,-1,-2,1,1,2,16
1570181815615190,0,-1,-1,-1,-1,0,0,0
1570181815615190,2,-2,-2,-1,-1,0,1,6
1570181815616188,-2,-1,-1,0,-1,-1,0,-1
1570181815616188,1,0,-2,0,-1,1,-1,1
1570181815637136,0,-1,1,-1,-1,-2,-3,1
1570181815637136,-2,-1,-2,-3,0,-1,3,1
1570181815639127,1,-1,-2,-1,-2,-2,-1,-11
1570181815639127,0,0,-1,-2,0,0,1,-6
1570181815651096,0,1,-1,-1,0,1,0,1
1570181815651096,-3,1,-1,0,-1,0,1,-14
1570181815660072,4,1,-1,-1,0,-4,-13,13
1570181815660072,0,0,1,1,2,-1,0,-2
1570181815675039,1,-1,-1,0,0,0,0,1
1570181815675039,-2,1,1,-1,-1,-2,0,-4
1570181815676088,-2,-1,-1,1,0,2,5,-1
1570181815676088,-1,-2,-1,0,-2,-2,0,-4
1570181815696976,0,-1,-2,-2,0,-1,-3,3
1570181815696976,0,0,-1,-1,0,1,-1,1
1570181815698967,-2,-1,-1,-1,-1,0,0,-3
1570181815698967,5,-2,0,1,-1,1,4,23
1570181815710937,-4,-1,2,-1,-2,1,1,-8
1570181815710937,-1,-1,-1,-1,-3,-3,-1,7
1570181815719967,1,0,-1,-2,-1,-1,2,-3
1570181815719967,-4,-2,-1,-1,-2,-2,-3,-12
1570181815734878,0,-1,-1,0,0,0,-1,-2
1570181815734878,-1,-1,-1,-1,0,-1,-2,3
1570181815736867,-1,0,0,0,0,-1,-1,1
1570181815736867,-6,-3,-2,-4,-1,1,10,-6
1570181815756819,-2,-1,-2,-1,0,-1,1,-8
1570181815756819,4,2,0,1,0,1,-5,11
1570181815758812,1,-1,-1,0,-2,-1,-1,4
1570181815758812,2,-1,-1,0,-1,1,-1,-2
1570181815779753,-2,0,-1,0,-1,-2,0,-1
1570181815779753,-1,-2,-1,-1,-1,-1,2,-9
1570181815782147,-1,-1,0,1,0,0,4,-1
1570181815782147,0,1,0,-1,0,-2,-5,3
