timestamp,emg1,emg2,emg3,emg4,emg5,emg6,emg7,emg8
1570180461494514.0,4.519774029118331,3.7043970720159534,0.6696972914679118,1.2050032911508002,0.6716614670329029,13.22937961054182,1.8117035363518008,1.9478138388191093
1570180461494514.0,5.064251492674687,3.38252816579763,0.6000744138027536,1.0834884334390151,0.13069140428223092,9.687878706324383,1.211018942116663,2.134451394811586
1570180461495508.0,5.543859636866964,3.5328610425198406,0.6587891663001767,1.0936708182200299,0.20118611264982975,9.37653534480645,1.272997791222415,2.299001671062541
1570180461495508.0,5.990251302167264,3.5318216849582647,0.7445861276797915,1.0765427739170843,0.4900539116454816,8.357836322783744,1.3098051478053776,2.5379541133317667
1570180461499497.0,6.418666867319841,3.6825753909332857,0.8025635035215828,1.0844483642186575,0.5523397225594758,8.122308984411037,1.38291973736404,2.700173656823838
1570180461499497.0,6.829538090996286,3.747874443725483,0.8826269266186889,1.0802793749546817,0.7341482485452979,7.558757576652732,1.4715779150674613,2.90578771920677
1570180461503487.0,7.2339587839833515,3.9088159097019473,0.9337137756165501,1.0878388533738208,0.7829256567398282,7.362686700208544,1.5222653240585904,3.0484162962962014
1570180461503487.0,7.62994614680585,4.013115822032401,1.0009849728838531,1.0893444783121424,0.9114574643164733,6.982543655342809,1.6048771336069392,3.2183268185296825
1570180461505651.0,8.018946864657634,4.186395231612138,1.0464368398268542,1.1013634666483647,0.9519993695039134,6.820946556662883,1.6548873963840074,3.3356893663766085
1570180461505651.0,8.397449877459534,4.316175101010388,1.1097333194943109,1.1119424308416221,1.0514895024334867,6.5466901742912444,1.7383008447705421,3.467676963857662
1570180461522002.0,8.780791014833556,4.500246980582491,1.1547190947710129,1.1296400484305764,1.0860209023636016,6.415263203342203,1.7862154165488568,3.564892589079654
1570180461522002.0,9.1747332762791,4.651200500173645,1.21113957196861,1.1411720554701918,1.1649811520414362,6.198067813615092,1.8640373058815478,3.6968831407948723
1570180461529418.0,9.581050168716441,4.8467451244988915,1.2532212349166472,1.1553110424364899,1.1931517026389156,6.056746317831426,1.9075379157898598,3.814391802924519
1570180461529418.0,9.992834874105151,5.015149530820501,1.308246136218649,1.1677657641438004,1.2588066250873706,5.860787823826371,1.9768793680987524,3.957311795234682
1570180461536400.0,10.407634679058573,5.217355778557733,1.3534134238921696,1.1847450249037426,1.2877733092642314,5.739251989328429,2.0182500396089544,4.077060903275797
1570180461536400.0,10.82537940445092,5.395918920433727,1.4074909714120263,1.1996247098138513,1.3490063075668772,5.586586964943959,2.0838106226402475,4.215675804103811
1570180461550362.0,11.25304314405743,5.60480616422833,1.4491161379958846,1.2164408721472095,1.3747427192511568,5.482432608868614,2.1222569882798754,4.340590781978507
1570180461550362.0,11.667092095234505,5.7917954717875,1.497171420566893,1.2290877864234553,1.4210568084017419,5.345417054761502,2.180352994212057,4.486982369865587
1570180461566322.0,12.034434473070363,5.990654172487107,1.5376827523848304,1.2414818761650446,1.441271036189318,5.25165117575573,2.2115400906964227,4.614176822229144
1570180461566322.0,12.369509170551881,6.165672224538303,1.584942516172935,1.252575874523329,1.4848467929991798,5.145814351157968,2.2560782877758374,4.743199662427493
1570180461566538.0,12.715121492969748,6.359432354029064,1.623884108679817,1.264871501006524,1.5052211286220487,5.077253502205263,2.2761920773485724,4.832795739318066
1570180461566538.0,13.081257108769782,6.548970707547187,1.6664616255129834,1.2753821977384525,1.5426024012673683,4.990509037070677,2.3061451312227397,4.8914856758718885
1570180461613198.0,13.449378779360307,6.758468396558433,1.7022148019076921,1.286828049648843,1.5596792398335557,4.935241755605117,2.3188494961452717,4.923048264649253
1570180461613198.0,13.77228414910514,6.948658701485479,1.7427160108539144,1.2979362935270415,1.5880400955595786,4.863650741606244,2.3489998377537677,4.977552122435206
1570180461614255.0,14.050468236541027,7.139710669627264,1.7819468983749533,1.308719849707301,1.5965659627308313,4.812717854286079,2.3664251284238063,5.040967011602804
1570180461614255.0,14.341080326269946,7.333422330427375,1.8304960313193719,1.3186651704231613,1.618492476201008,4.746087769364619,2.404000425847724,5.123633522681933
1570180461615189.0,14.671373089739014,7.552645639360683,1.881115913205717,1.3280776172027524,1.6308209010470092,4.7119753209203985,2.4332331618222045,5.204210650253483
1570180461615189.0,14.960857493236203,7.756856795119536,1.9365761432494928,1.3380426675268862,1.6573105266705848,4.6732462779888415,2.479817992101376,5.294028527013635
1570180461618267.0,15.069952899431945,7.884808991779627,1.9773801103545319,1.347322199483834,1.6704143583923756,4.666573239194269,2.515105933611308,5.362408136381169
1570180461618267.0,14.990735338402835,7.910769875087441,2.0002028538280405,1.3546070800015402,1.6905079093200255,4.649394997398803,2.5630504849592057,5.410974712771412
1570180461625168.0,14.851316447996535,7.896238657143134,2.011809156727346,1.3608967321666896,1.701501126702177,4.6631730624299506,2.600758482785351,5.44276580595435
1570180461625168.0,14.732944501754375,7.8794060396391705,2.0228296453953023,1.3693927170259597,1.7238206174217954,4.670883191692897,2.6521993674187976,5.48249101382872
1570180461633319.0,14.623575769928099,7.859109658921956,2.031919702449811,1.378883106054818,1.739466721555516,4.708450420887601,2.696653570224584,5.522760260129761
1570180461633319.0,14.512737070546795,7.852108619128622,2.041070454325788,1.3892881531995742,1.7633209245749404,4.733428058356004,2.750851387833144,5.554717422145922
1570180461640025.0,14.429354426515214,7.856065566238784,2.0480163386688766,1.3959440499682678,1.7729755834979508,4.758927835214988,2.7811592963747604,5.556970694190831
1570180461640025.0,14.380641260459653,7.853438866790029,2.046090467390268,1.3990048345493902,1.7715077611053602,4.729021897308088,2.8025723933558218,5.548784017340444
1570180461655089.0,14.30528967033896,7.803034429355348,2.0310018463203527,1.3956447746025578,1.749287151190391,4.6885871997788335,2.810102024990539,5.536957509573601
1570180461655089.0,14.162044074072602,7.712414014128867,2.004952477833069,1.3902340405332931,1.7273671377680924,4.644782878446584,2.817983628388086,5.52753958324447
1570180461664059.0,13.982900021939516,7.58729816415982,1.9766408672897604,1.3813102545329532,1.7039760916303357,4.628453188089494,2.8078780847094293,5.5166197051308075
1570180461664059.0,13.793075455891872,7.457453397612197,1.9489246563417166,1.3758531973410724,1.6903460644731922,4.613633836329339,2.7959998854182224,5.515078467779901
1570180461678023.0,13.602487367545727,7.325387163730725,1.9284913257724976,1.373110319087001,1.6794048193593993,4.61696904398628,2.774034773932844,5.521524900117268
1570180461678023.0,13.423064506891482,7.217904038520062,1.91301614915282,1.3743696407851795,1.6781361999236855,4.615932935073896,2.756510871227885,5.5280898992384735
1570180461686004.0,13.251062069950114,7.1140754139957165,1.902950899527994,1.3712012841185746,1.677656112379453,4.6339052282340925,2.7409748103030807,5.52366537448577
1570180461686004.0,13.08422970749536,7.022702787658791,1.893124139186969,1.365375602273187,1.6839558954303364,4.6463713742126505,2.73734410805606,5.51794354275237
1570180461701302.0,12.918917357319561,6.92122149005734,1.886748217387057,1.356477508727675,1.6880393509204084,4.6759173915997465,2.733239457376626,5.51467825765108
1570180461701302.0,12.748086614428544,6.827496972390313,1.8807715883813287,1.3498956408810618,1.6969057207408438,4.704281102707271,2.7376140641094104,5.517144978721169
1570180461702956.0,12.570039048668745,6.730024151249325,1.8763780772810197,1.3406793541715638,1.7037900927662346,4.751167945771674,2.742645562487595,5.526698196592162
1570180461702956.0,12.395922947604662,6.650380394721894,1.8647199199364977,1.3319529179160585,1.7120837038007337,4.799222542516714,2.7576380821909043,5.5431122625974165
1570180461724115.0,12.219652946853595,6.56023300186575,1.8483095055952852,1.3189622107243506,1.716626312315499,4.866638629938726,2.7747805807027697,5.559671211558115
1570180461724115.0,12.03481624115648,6.4698246248319355,1.8251398908813101,1.3067936325927947,1.7269010405822987,4.930983717054144,2.8006683655348508,5.583540609482243
1570180461725228.0,11.859605926079505,6.367724714762182,1.8015716062191558,1.2916529954195308,1.73693130531126,5.000429240561954,2.8232460170725937,5.617582453204861
1570180461725228.0,11.699306605766058,6.2750213823656,1.7770214035822962,1.280114649996009,1.7489273003104793,5.042187953526448,2.848350723353209,5.664989145481765
1570180461746838.0,11.531302155998738,6.166803703569243,1.7585909545991376,1.2673511315247008,1.7584937464487,5.070980420782345,2.86184648982488,5.709099198390997
1570180461746838.0,11.352919615793253,6.062707485467438,1.7408096060168403,1.255531230197942,1.771087229355983,5.100490287867598,2.8645846322764825,5.727000395551207
1570180461747953.0,11.181210307828062,5.9467902889861906,1.7258639100781228,1.2413469806647546,1.7824925573154131,5.141409902097836,2.861613799568906,5.723916160435323
1570180461747953.0,11.028613164594827,5.8438935832416785,1.7100559753649167,1.2316595794538363,1.7955333812225294,5.1710175305238355,2.8675189930998943,5.727907256290804
1570180461760929.0,10.897246946335459,5.740906588414358,1.6983776862118203,1.222561131337431,1.8049712505500322,5.176061811481412,2.874971136111044,5.747577693226451
1570180461760929.0,10.776214684594533,5.657708350927674,1.6837268938719085,1.2183719893534692,1.8142460455245284,5.169214084111143,2.886120519627113,5.7734473891470275
1570180461762793.0,10.648005771934741,5.569114862185764,1.6686360690702333,1.2113854116815055,1.8216427881273833,5.158540751919681,2.8963408465382643,5.801602746607871
1570180461762793.0,10.511096899189615,5.491803908401078,1.649060082189598,1.2013204012413152,1.828600584089923,5.156321220542191,2.9120041972189536,5.83053480845177
1570180461783780.0,10.36565143514835,5.406442686192038,1.6296309217148923,1.1826126157475745,1.8343000063445802,5.161036645372511,2.9267022277258383,5.845115034639223
1570180461783780.0,10.222389277186121,5.3359891045081875,1.609436736949154,1.1638791860828246,1.8402064598355135,5.179143330522753,2.94349953449501,5.842856343825488
1570180461785731.0,10.09724208490186,5.264574864574006,1.595194171340886,1.1423972707490344,1.8356911593012415,5.173983444398036,2.9558364131568604,5.842756976152072
1570180461785731.0,9.984556932729175,5.205461980905145,1.5810923603383291,1.1204203266302228,1.8187876618195193,5.1557926812914285,2.956436700211913,5.849751666305625
1570180461806683.0,9.861936546226266,5.133316604935159,1.5708895671818446,1.095000879022615,1.8016707316554135,5.121202439700126,2.9389711590591148,5.841331773291689
1570180461806683.0,9.723889328033653,5.066507538970509,1.5574538283806107,1.0742836349370237,1.7888224045553678,5.096489978943578,2.9103301673108906,5.7998335335936835
1570180461807767.0,9.579389012866935,4.9890880247150395,1.543091542177047,1.0546707163134432,1.7748996176580334,5.045585491422562,2.874726207082088,5.744206528358993
1570180461807767.0,9.42811782385707,4.918109862768503,1.5237404096941742,1.040305112794815,1.7559653289313975,4.990330764210839,2.8414527095923487,5.686964586920998
1570180461822635.0,9.26830617144309,4.833070086838283,1.5040697890682575,1.0251768803053598,1.7347909384264861,4.919043894098821,2.815346573706164,5.633728687022246
1570180461822635.0,9.110689189542336,4.7575914690461305,1.481248079156906,1.012068444889234,1.7118627899858858,4.868572755965868,2.7937118280736826,5.589152567063993
1570180461823634.0,8.957230856686936,4.673840046334856,1.4617080870583201,0.9966117314775642,1.6866940044555927,4.807667824395449,2.773091126729773,5.561143424597989
1570180461823634.0,8.806397650883497,4.598808960730536,1.442065923216798,0.9824076457020247,1.6569963267902774,4.766828566785356,2.756743766497614,5.5418316000965016
1570180461843766.0,8.656799984343033,4.515285541462288,1.4247035011190288,0.9661734105875582,1.6273595748178107,4.7140458161023115,2.747184533008453,5.522856748744934
1570180461843766.0,8.507801523456573,4.440564832062295,1.404849009785987,0.9535586722997375,1.5965611785688074,4.6813249841288,2.743696075112625,5.509080046756225
1570180461845572.0,8.3610395615814,4.355862486182713,1.3872729914395763,0.942600119154527,1.5684506055410568,4.639103134748492,2.7429086567302394,5.505868936996949
1570180461845572.0,8.220605638977233,4.279642104488451,1.3689057958528341,0.9372415857280372,1.5430849052025655,4.622113257763658,2.741231436776102,5.503942232233563
1570180461866696.0,8.085933948085684,4.1941921825283925,1.354874246204003,0.9329192641858054,1.5224915941637478,4.593445929559191,2.739435605352456,5.514186516722174
1570180461866696.0,7.956585037336348,4.11805282724431,1.3418212329726436,0.9301750792456382,1.5059724135871637,4.574838936259406,2.7436138605742837,5.538226669946002
1570180461867651.0,7.831728356109978,4.0344132513975985,1.333706835173622,0.9268470071719349,1.49526255531992,4.537700060501928,2.744975723780811,5.5520377044553495
1570180461867651.0,7.71124139105691,3.9620364777578922,1.3264470856206503,0.9257719396933607,1.4880469175454487,4.518109298179073,2.728734241757905,5.532822664521121
1570180461888466.0,7.596546290232349,3.8825467438344345,1.3223327890442984,0.923327991390649,1.4864283004631957,4.475327359714612,2.703766865767309,5.502917672948196
1570180461888466.0,7.492704131403964,3.8136443904866044,1.3179723459751331,0.9225052004070637,1.489611107393663,4.446050537316363,2.6821269960910095,5.465378285157376
1570180461890452.0,7.396228522186856,3.7419020489598114,1.316710917575484,0.92332716205389,1.4962463755930928,4.404565559905479,2.659792536161124,5.402643437024573
1570180461890452.0,7.302635626917109,3.6838314115901403,1.3137394166094072,0.9275142054570084,1.504806713043211,4.382021207047285,2.630596776014941,5.32169093704031
1570180461903416.0,7.205000617873193,3.6169084026600453,1.3100934591863016,0.9301819090894847,1.5155920266495189,4.340754754449812,2.600151865700201,5.245647578551074
1570180461903416.0,7.098161497269245,3.557685850773842,1.3053981250475077,0.9309255707119657,1.52840236608778,4.315186344665876,2.5712459796844436,5.167022037796282
1570180461905413.0,6.986046346464703,3.4922667823922118,1.3031073152234,0.9262990812038879,1.543375240137738,4.275967262852776,2.545931168404964,5.084316110161344
1570180461905413.0,6.875337480143871,3.4338762301449033,1.2990717584727642,0.9203988178726721,1.5575212760254447,4.261361733249304,2.5241507183303584,5.003444071666684
1570180461926355.0,6.7679102502389314,3.364082565051752,1.298586510632448,0.9147607231849368,1.5680054946771782,4.23979227112336,2.5068493106944354,4.935210964061675
1570180461926355.0,6.666409063882296,3.300141984839818,1.3009473216262775,0.9112770413815735,1.576729455208896,4.2422047604232205,2.4941660073080074,4.868505994764582
1570180461928411.0,6.566645635576091,3.2277998345497556,1.3079274924212139,0.9095075687504226,1.5858624786265823,4.231977657923014,2.486869647187834,4.801911901867453
1570180461928411.0,6.464569566415751,3.1647885505198325,1.3174461593620557,0.9121829867163936,1.596255119981134,4.236241860909325,2.4783988210114605,4.739226782571073
1570180461941316.0,6.361986978276018,3.0968731890615837,1.3311541417242838,0.916408191525879,1.6053370362212305,4.225135273535931,2.466149116054233,4.685709507505385
1570180461941316.0,6.264702372350292,3.0402121718712376,1.3450677267883937,0.920116695963268,1.6087849671071544,4.229739785584103,2.452515475495441,4.629930907212511
1570180461947306.0,6.173965876778665,2.978892735084209,1.3601521580195117,0.9229136911776041,1.6118161498816672,4.2124223333523,2.4378949110146673,4.576070724685642
1570180461947306.0,6.087523681550521,2.927938198509495,1.3734100054697655,0.928766880421819,1.6189642806141415,4.2117857519366755,2.422845579939489,4.5296021492289364
1570180461964254.0,5.999096630902222,2.8727656041273373,1.3855911865850663,0.93816139764299,1.6290737764740741,4.196873879341963,2.4096129216990008,4.491359070516974
1570180461964254.0,5.910396668810422,2.8282782864225338,1.3953355654205088,0.9500058582626526,1.6377009499205408,4.1943843994293575,2.399019250949478,4.45202299007376
1570180461965253.0,5.825354376695031,2.778111905194622,1.4057193608978253,0.9606055909258749,1.6426975875520036,4.177888498078134,2.393069534228541,4.412797550339602
1570180461965253.0,5.743282111147057,2.73674326541561,1.415925831989804,0.9713620091463968,1.6420768551822602,4.183070791948025,2.3898555552493264,4.369029346223313
1570180461986368.0,5.665366183721342,2.692495067038604,1.4278998793347097,0.9829038787696465,1.6375983647419354,4.176483813178301,2.3871367158224213,4.328700000723747
1570180461986368.0,5.593884154495662,2.6594634958926355,1.435790342563148,0.9928101843635097,1.6317627283842167,4.191042567180398,2.3892675052845567,4.290478634603157
1570180461988191.0,5.524276426187439,2.6232829464150225,1.4399469065322985,1.0004751341897815,1.6290063858148696,4.197050970038505,2.393554022247453,4.2503601659772
1570180461988191.0,5.454285537703018,2.5989032992955625,1.4385897327828794,1.0074251383827002,1.6272288340466157,4.225072487539008,2.3947677844983524,4.207936112692405
1570180462001182.0,5.3812120353297015,2.570165514691232,1.4342668801966245,1.0121555990821887,1.6261575093375829,4.2389106937995376,2.395347986537253,4.169480704222154
1570180462001182.0,5.306392247376396,2.5491187471817,1.4280757153187604,1.0170826836990823,1.6203335197865294,4.269169438667364,2.401951741473567,4.134414719074468
1570180462007261.0,5.232486968541146,2.523562624268904,1.424804883694262,1.0218562708981866,1.6088778664295134,4.277737331659152,2.410384847205503,4.101803347141795
1570180462007261.0,5.158580649016559,2.504604553954972,1.4185058134949802,1.0259146814541908,1.5932097989918246,4.289021733209138,2.415782461259658,4.070264947766696
1570180462024424.0,5.083329044113657,2.47814916360525,1.410797016268047,1.0307407064445835,1.5791779994581583,4.266891941758747,2.41729448696462,4.04758605970948
1570180462024424.0,5.0094666591711094,2.4574799820861744,1.3993299079626025,1.0369580084645151,1.5660288134072946,4.245067477443107,2.4150053888809513,4.034052945279785
1570180462025512.0,4.937752680051311,2.4277392034310132,1.3838025055648757,1.043118296293189,1.554948347020093,4.1929224169962405,2.4080664606458715,4.0310823809539515
1570180462025512.0,4.869735186042877,2.4004392227062072,1.363581718990724,1.050690092850517,1.5437321394381218,4.1581534537544265,2.4005257100782194,4.04000810018278
1570180462046394.0,4.8057946560942275,2.36479748308632,1.3459708020401904,1.0594127530516775,1.5355498146891144,4.108377811483911,2.3912686484031127,4.055914624292967
1570180462046394.0,4.745728875834507,2.3354186748774937,1.3283124952577845,1.0659485314956585,1.527535785699353,4.083378579986376,2.3816618168338883,4.068787940036347
1570180462048029.0,4.687212425834861,2.3011594348655606,1.312388580731913,1.0675604809868782,1.5207636873719117,4.042730751228593,2.3756532645356807,4.082742205461074
1570180462048029.0,4.630665383764036,2.2753190135076733,1.2953184679614198,1.0675185495246302,1.5121820625033293,4.022380692489226,2.379476314144512,4.105698947707202
1570180462060996.0,4.5762160734475135,2.244209805743328,1.2798375498895984,1.0672627194472288,1.5016820022263675,3.9854357711142305,2.390171682817958,4.135940101018992
1570180462060996.0,4.521512274539419,2.2159982921421513,1.2630239820149831,1.068401818321595,1.4874237557890169,3.9685061939100748,2.407626436584709,4.169605201085959
1570180462067992.0,4.464613762334729,2.178576914539384,1.248466392497731,1.0715268712764818,1.4753412435421795,3.9356211659435565,2.431754267942392,4.211684899146966
1570180462067992.0,4.407476789916354,2.147647821979595,1.2341301783269487,1.0744846340226386,1.464717844200176,3.92754129869978,2.4643372965355512,4.2675115717028165
1570180462084200.0,4.350230890170567,2.113449208579661,1.2208607461963845,1.0743681161565493,1.4567267062483331,3.9082454320353786,2.500814685782633,4.336307762443484
1570180462084200.0,4.29268471634216,2.0870607684730826,1.2052065975615631,1.0755420845092447,1.4501927475388947,3.9182136504181035,2.542580078269464,4.414395068171602
1570180462084955.0,4.234377977071522,2.05537203197376,1.1905900469718755,1.0797032457559688,1.449341424800445,3.919552917151215,2.5851239141075593,4.497137095423996
1570180462084955.0,4.178875092674948,2.029329684620929,1.1742968117919512,1.0857786735897157,1.4519061191356561,3.9486581076534,2.63228259512023,4.587452991929944
1570180462106923.0,4.129781735831047,1.9989952795950134,1.159399428186385,1.0912838682290165,1.4559015377387716,3.963167804248521,2.6819007423061323,4.685109092798311
1570180462106923.0,4.088517437638784,1.97567853651759,1.1454274663056772,1.0940062445851317,1.4593864809241364,3.9936411316066205,2.7294701115945212,4.783791633700781
1570180462108194.0,4.051206330768775,1.9474953087873152,1.1366545469785219,1.0909293294381803,1.4609153170719351,3.9943008545099863,2.768598868463935,4.87036583283513
1570180462108194.0,4.01314538949297,1.92657115617621,1.1307938355176759,1.0843432439629312,1.4507184096553558,3.9875593608684294,2.796120132840152,4.930327142472296
1570180462120837.0,3.9713431695356523,1.9023387862191572,1.1276842388627097,1.075279175466842,1.434974498039316,3.9358766312112934,2.8028933025279605,4.958046021640096
1570180462120837.0,3.9294824784108346,1.8853047808191863,1.122354693601016,1.065410499910031,1.418737757842839,3.8980117460778847,2.801347413177655,4.968436205440641
1570180462127827.0,3.8906485202883503,1.8657222193904024,1.1170875585248512,1.0558256811852669,1.404602735279575,3.8375019821759353,2.7991169576158224,4.976444509492167
1570180462127827.0,3.8546658603328887,1.8511419919584917,1.1116370924525234,1.0475789852598036,1.390593431714302,3.7937402962859674,2.7910765131692767,4.990812056424185
1570180462143774.0,3.8210993960760136,1.8289810161681865,1.1089257304023594,1.0397260447240255,1.3779633148938126,3.7236908876212214,2.776539213917104,5.009034006384028
1570180462143774.0,3.790730533891353,1.8103419465081443,1.1040857084943858,1.0341643828924094,1.3634388655207252,3.670491309334112,2.764017527684671,5.0284638934448695
1570180462145769.0,3.7617217286326063,1.7855433963146805,1.0977850814339227,1.0301651126119054,1.349708993525059,3.591385429601155,2.756419447529204,5.050890788703383
1570180462145769.0,3.73206783929286,1.7664186824051424,1.091700071568637,1.0295507943263555,1.3367811292239284,3.534902758111373,2.7542089032736965,5.068657936228444
1570180462166890.0,3.6996190914642133,1.7455737979418813,1.0889527016157219,1.0318786981735886,1.32782716712564,3.460695993177594,2.755711270936956,5.0759347746018
1570180462166890.0,3.6650224217941636,1.7321135870937385,1.0855339276228888,1.0359493788931857,1.3202793705360614,3.4118812436310413,2.762571263898021,5.073798808535112
1570180462167712.0,3.6313455761452134,1.7131513176637745,1.084946025612517,1.040065490507851,1.315659020648807,3.3421502216336942,2.778043177422126,5.0680501239481295
1570180462167712.0,3.604493808498276,1.6974397656860445,1.0863964431289965,1.0438618424271906,1.314548011590373,3.2946095342364776,2.801541100891354,5.067484257976695
1570180462180771.0,3.5846414233501394,1.6778864851769886,1.088910388854717,1.0455908313690339,1.3177531656370487,3.2246899529199036,2.8265823497835885,5.074106328515985
1570180462180771.0,3.565051827477774,1.6644305883128434,1.0893091881637158,1.046691364941594,1.3219152635858278,3.176162655527888,2.8480726249989834,5.087939796264703
1570180462187861.0,3.5418335428153194,1.646849254399355,1.08880735538374,1.0475526213971176,1.328186616749287,3.109483219098308,2.863022323596503,5.110042862321511
1570180462187861.0,3.5186239838893005,1.633461861091945,1.0874246393549902,1.049764142662727,1.3344613484799448,3.0712522738005474,2.8748556644679732,5.142478493862574
1570180462203948.0,3.496164742096352,1.6151780680608738,1.0876555301911324,1.053927887216537,1.3416957959693934,3.0182549988710194,2.887450623493796,5.18434421843604
1570180462203948.0,3.477499119082175,1.6024576412227651,1.084899941146054,1.0588529863093794,1.348939406054416,2.9915885047359407,2.9039179906823485,5.232884489141885
1570180462205700.0,3.465255258484233,1.5892831299207462,1.0800324900841178,1.0618532420500804,1.357057395345285,2.9499224069251024,2.9162383287670766,5.275745599601276
1570180462205700.0,3.4505967733401617,1.5853046765248489,1.0720442625977575,1.0643208776888806,1.3672021164968637,2.928227277824491,2.905664964134217,5.2828945009869495
1570180462226818.0,3.4244929015927132,1.5789810315864037,1.0633453924267335,1.0666863665570867,1.380494786073373,2.8822049619621577,2.875595649796377,5.251767508757319
1570180462226818.0,3.3927188011690443,1.575635892806602,1.0533291412192354,1.0705779090776741,1.3943854690671869,2.8576326189179797,2.842828684608996,5.215524916287618
1570180462227552.0,3.362437246626923,1.569224330866367,1.0438896391318273,1.0756899989893292,1.4049697381926214,2.8180042077030834,2.8137433962568683,5.19536749298879
1570180462227552.0,3.3352593264612924,1.5690106285339627,1.0325153625934422,1.0798297383845872,1.4080654947550066,2.797257005608345,2.782167306221204,5.192501065959976
1570180462240538.0,3.3089672446301552,1.565004822964123,1.0192954259154534,1.0801718500993385,1.4062984705784176,2.7527610924338304,2.7478606684587943,5.2054028262507765
1570180462240538.0,3.2839560989280816,1.5641502862307457,1.0037343079448815,1.0780205241077865,1.3993610859,2.722108624384354,2.7138013743048077,5.234074039716139
1570180462249493.0,3.2610797123942867,1.5577867153636062,0.9905072825528256,1.0745126764851707,1.3909817461218505,2.669858761662587,2.6846421992719023,5.27185703046551
1570180462249493.0,3.240098610391051,1.5542479555513091,0.9798345958930629,1.0723521947569208,1.3830921081662695,2.639314784823261,2.658986995616709,5.311744381176866
1570180462264460.0,3.220739754421345,1.5482588824781933,0.9728151036590309,1.0721299348889686,1.3770613317815483,2.597114427356205,2.637465664176506,5.360842307372158
1570180462264460.0,3.2025143546789896,1.5463612304411543,0.9670834769646655,1.0730305480447273,1.37184511293637,2.581153558104303,2.619502425954566,5.418324527091081
1570180462265458.0,3.184359600728959,1.5400271074192282,0.9640516174541758,1.0703004246791845,1.3667953595435922,2.553482298681117,2.6050721804876242,5.478487491644902
1570180462265458.0,3.168726762880597,1.5373813580677613,0.9615509427466455,1.0640513135060803,1.3584197951973134,2.5428030386160874,2.5873817743756384,5.547457464870052
1570180462286397.0,3.1567510845370044,1.5315696415620614,0.9605191452179112,1.056262689559242,1.350446575621476,2.5166967656484545,2.56942248830593,5.629551176679592
1570180462286397.0,3.1503949388143866,1.529897102209638,0.9610065025751459,1.04790763911209,1.3449820401081556,2.5121011427950277,2.551592404664359,5.722225207403928
1570180462288388.0,3.149884411401846,1.525904021956925,0.9624569803991456,1.0379356481783941,1.3424097499804906,2.493903683106061,2.5373993117805385,5.825433178892716
1570180462288388.0,3.1509348444803185,1.5257834142395381,0.9613562558296327,1.0281451981831577,1.3406990022070224,2.491605560068159,2.524763506305326,5.9150760168760925
1570180462300450.0,3.1493112604179347,1.5193312903551974,0.9601011010913458,1.0176889045717992,1.3408123857800365,2.477174541764054,2.5099180685975457,5.9624447897278525
1570180462300450.0,3.1459087046494276,1.5127056643825134,0.9609535098913868,1.007315625572476,1.3418522668714903,2.482386630206115,2.493779599588501,5.988208849718466
1570180462309335.0,3.1423791158419183,1.501216961379279,0.965436003315643,0.9969745618327717,1.3447043268245165,2.4794839178549397,2.481783607686731,6.021764407013077
1570180462309335.0,3.140396543509333,1.4943119001885246,0.9699712761989613,0.989599803170847,1.3486120916349198,2.4953363007982645,2.4747279341894104,6.055571901872212
1570180462324294.0,3.138682055178943,1.4873521607048295,0.9729898009398744,0.9848337559396974,1.3533973419810246,2.4968620258989835,2.4761544792263237,6.0715558231870155
1570180462324294.0,3.1384507393736842,1.4863995962946421,0.9743566261159422,0.9815836087479274,1.3572693076688573,2.509833085361134,2.4842569033091713,6.073542920256894
1570180462325296.0,3.1426632419145633,1.4842562779714903,0.9767461286944924,0.9789808833975406,1.3618113859127041,2.5132434589406096,2.4973203566030566,6.083236426717234
1570180462325296.0,3.152193475145258,1.486250206804475,0.9807258859625116,0.9770043491926371,1.367425684593709,2.534178764205299,2.5113430065702715,6.102725362358938
1570180462354213.0,3.1635885824592225,1.4827244227915461,0.9861205489641565,0.9716881655525527,1.3757135214212484,2.546652080022538,2.526376706004704,6.116268805466653
1570180462354213.0,3.171555491466803,1.479861275316282,0.9922748533848802,0.9651035661780006,1.3882509136478087,2.5735725138360026,2.538634268723549,6.099692126847594
1570180462355375.0,3.17075522065875,1.4726136669319485,0.999997457805302,0.9597220216600598,1.405708248444251,2.591487733593058,2.5450284837780894,6.043675034687511
1570180462355375.0,3.1616826873028576,1.4663808287858113,1.0058002345856203,0.9554608330924528,1.425809770014987,2.6222435800095845,2.54696007301051,5.958225046956492
1570180462360197.0,3.1499075469157685,1.4570007415050106,1.0099068658757748,0.9515104292591904,1.446083934999417,2.6444023498133618,2.55085323896164,5.864219287237447
1570180462360197.0,3.138731615610263,1.4535434242930059,1.01283670219697,0.9505344283867986,1.4641557520518331,2.6847818609440157,2.5500771255724213,5.770965968893258
1570180462369177.0,3.127840002080171,1.4494957002217477,1.0140453407913779,0.9522991755738536,1.4814848187051928,2.7241442531045723,2.5411582858321475,5.685900233291829
1570180462369177.0,3.1175139752272765,1.4499726472524879,1.014859378563445,0.9555009956456094,1.4977749898483157,2.7823150737914175,2.5299568185101227,5.613130309290838
1570180462384131.0,3.108458216987581,1.4484065288855026,1.0160939623194303,0.9576341208592668,1.5117076405953718,2.830733499449334,2.5213331479702727,5.558077622886841
1570180462384131.0,3.10260341524754,1.449116193500058,1.0151644756530616,0.9570667620410436,1.5225785198914743,2.88444675750761,2.513880412066211,5.505741627896833
1570180462385188.0,3.0988369930132693,1.4464605264100963,1.0134116072065873,0.9529703487056699,1.5341561568249598,2.9246406490492314,2.509565184562824,5.4426645530196005
1570180462385188.0,3.0964940980224185,1.4469780089326176,1.0104077172449122,0.947652196677504,1.5432371329500731,2.9647794589903085,2.5039597153165376,5.372323699042358
1570180462406265.0,3.096499319703082,1.4429684517336228,1.0055042524320301,0.9416557898868677,1.5453914554672925,2.97240624201385,2.4986925670127222,5.306856034958036
1570180462406265.0,3.099870676870366,1.4388159528672617,0.9999171486759256,0.9354367447961871,1.5437925489367201,2.980599303084302,2.491705896298642,5.249301838844455
1570180462408072.0,3.1088039110329233,1.4324517265775647,0.997265327779717,0.9294459049380399,1.5447931157243888,2.977629912584147,2.4754260381762165,5.2045614900101205
1570180462408072.0,3.125582251224319,1.431601520279348,0.9974844332988272,0.9261705690064397,1.5448942337022218,2.987288748915514,2.440583900452226,5.159636313296772
1570180462420044.0,3.141269949407495,1.4271874721004125,0.9981316749338898,0.9264491773290642,1.5420306237580956,2.9836386838881452,2.3987174053039735,5.104933647938396
1570180462420044.0,3.145589454271819,1.4228994479850656,0.9975949525840799,0.9297724572947921,1.536364498806116,2.9896556393406244,2.357807801463324,5.045349009209985
1570180462429014.0,3.142057623258367,1.4131586044596975,0.9971958332706655,0.9348267889708336,1.5313188002787284,2.9775296554350703,2.322057766830316,4.995228071272713
1570180462429014.0,3.138798956198862,1.4043199777281319,0.9965750892180484,0.9428569033079911,1.5256467843318933,2.975452644849718,2.288571283192411,4.952639413821645
1570180462443973.0,3.1355123857822007,1.3937442096013233,0.9970504688386472,0.9527830088084374,1.5200785586656966,2.9642446343037716,2.2587582006841656,4.911641207941631
1570180462443973.0,3.129124673396836,1.38659524810982,0.998423824194652,0.9608303246356963,1.5109314593521976,2.9702842374466516,2.230260271503233,4.869070033592648
1570180462444971.0,3.1162493825214055,1.375348878819504,0.9999600725972524,0.9657196509847098,1.4991509179860985,2.9596107751873326,2.206494167975254,4.83262430546165
1570180462444971.0,3.097840391624353,1.3666378974764148,1.0023642650434694,0.9685961928631797,1.485470534842393,2.954336840709799,2.1838768068492533,4.804143040539817
1570180462465961.0,3.0766071159072808,1.3559475928123472,1.0069466534199931,0.9692263316444922,1.4739483749822149,2.9281729375264054,2.1593040043470397,4.779732283188929
1570180462465961.0,3.0518769505043712,1.348327473267426,1.0116061147245823,0.9697143809077736,1.4621627995596174,2.912873491531414,2.130493898476622,4.7452619733199155
1570180462467910.0,3.0239438321756062,1.339926537251677,1.0144548137140084,0.9719326828719778,1.4507593304679327,2.886409748296719,2.1034063063986275,4.706252476866721
1570180462467910.0,2.9973771800954525,1.3362529385280952,1.016259762317898,0.9752052151193973,1.4386193368741367,2.878134674061697,2.076318641143693,4.6750554159579565
1570180462479880.0,2.9712119039759677,1.3305768482822173,1.0191584194034136,0.9773696830265597,1.4277953402979386,2.855250456984721,2.0501576065091416,4.659702044194087
1570180462479880.0,2.941815307214508,1.3260813415043533,1.0241027873052275,0.9785543065254432,1.4160700411659704,2.841282120473316,2.0227122810563087,4.656494060521478
1570180462488853.0,2.910467833571672,1.3173578603038272,1.0302268399437915,0.9795900449351679,1.4073660661529854,2.812279803564167,1.9975881790062282,4.666043182518277
1570180462488853.0,2.8804224026754426,1.3108771848136422,1.0374692858664696,0.9787675429593061,1.4004790766941873,2.8016609999038002,1.9753174906602502,4.675636990862119
1570180462503817.0,2.852210026859958,1.3035464260476257,1.0468897387635174,0.9747027108265006,1.3949131099400933,2.780617642439183,1.9567999315931264,4.664405878968668
1570180462503817.0,2.826393494467811,1.3003355477443947,1.057498199586001,0.9704552804364373,1.385210656330387,2.7782303989144768,1.9405111013219996,4.630802275722946
1570180462505808.0,2.7993520962146543,1.2956265033836905,1.0673686612206683,0.9678971569751261,1.3732261531137662,2.7605630562426233,1.9270289863440644,4.590633236398042
1570180462505808.0,2.7670960758675704,1.2931849956559804,1.0745570870433145,0.9654091034239836,1.3595631195072466,2.748940330792271,1.9119191014847097,4.542833802843756
1570180462526755.0,2.7296137982459117,1.2872051829762705,1.079124416813189,0.9606492275648261,1.3475192058890693,2.7137316935459044,1.8969187328395003,4.490291464412152
1570180462526755.0,2.6898951617599534,1.2838998538605262,1.082039176862833,0.9556572675695785,1.335064234582693,2.688490466367556,1.8840631844603817,4.44000305938596
1570180462527910.0,2.649478803708597,1.2796988386157513,1.0824197135324545,0.9532697863604614,1.3250534208853169,2.6450155875111228,1.8763836034852002,4.3975425299638635
1570180462527910.0,2.6075528106427632,1.278286841075475,1.0781749679849373,0.9529011247601489,1.317629722172228,2.6161706118970915,1.874435264711109,4.360691764655485
1570180462539925.0,2.564124650720538,1.2759393423105119,1.0702483267993743,0.9513721287052784,1.3167512297841837,2.5748967383569203,1.8787819689866516,4.333649840313571
1570180462539925.0,2.5217494729532,1.2778574493536128,1.0614078187878477,0.9477889392624506,1.3188103942579739,2.5506982353159913,1.8891444897710887,4.315001935980346
1570180462556731.0,2.4799850425969283,1.275630607327248,1.0517769998353192,0.9418616547792014,1.320030032800563,2.510448930691842,1.9045297854916727,4.303691923410948
1570180462556731.0,2.439557040833826,1.2717209059179315,1.0421677052680982,0.9346714197913701,1.3151728481491687,2.48417836681665,1.9218782448925764,4.29715624763605
1570180462571648.0,2.4016779354773967,1.2650920223650857,1.0347313962692835,0.9279986940130729,1.3074161672443183,2.4422530170315477,1.9389698696874653,4.294852028330712
1570180462571648.0,2.366330753656932,1.2616359185475126,1.0294690247733085,0.9230817705075148,1.2956453374519574,2.415281987847179,1.9571794590880176,4.295420878730932
1570180462572750.0,2.333310084134847,1.256249628900666,1.0274864025424173,0.9188243586688495,1.280801988000858,2.37245217178681,1.9781162819946632,4.306452666102591
1570180462572750.0,2.3029989601938228,1.2531954711642048,1.0298523471874,0.9153144298254048,1.2605721397744674,2.3443380018941298,2.0041913097558375,4.329177117025108
1570180462585594.0,2.2764176415748945,1.248228293870881,1.0365152540598355,0.9144924046514968,1.2399014812903477,2.302752244909169,2.03362327883389,4.364100527483854
1570180462585594.0,2.2558699486590768,1.2457423371743932,1.04754251316494,0.9174350944280643,1.2168423801906167,2.279113690673071,2.0660506225485737,4.407850786772002
1570180462592880.0,2.2390270299957584,1.2417843934556938,1.0626552725106406,0.9231092334277391,1.1933150619707962,2.2416602617776693,2.1005207783371227,4.44904221657581
1570180462592880.0,2.223347597651482,1.2403330426956276,1.0808477195689628,0.9284501384676513,1.1677119305133787,2.219621812473365,2.1267790877603807,4.462548219786928
1570180462608745.0,2.208139148247979,1.2352835775890145,1.0978192564223357,0.931551321906298,1.1430669827713755,2.1803809817978568,2.132523600441618,4.439813199463597
1570180462608745.0,2.1915693136496834,1.2286086275550818,1.1111621447119822,0.9333852101092147,1.1191617974891568,2.1520858148792237,2.125936115906708,4.4018185855560485
1570180462610528.0,2.172785467523355,1.2162394169317121,1.122881827694656,0.9360110554450723,1.099009422776531,2.106328176125337,2.1201289801227565,4.373457375642276
1570180462610528.0,2.1542555141939435,1.204630933558715,1.1351859979012113,0.9382819193832047,1.0794590943455376,2.0745926738714124,2.118093251812772,4.352646319712276
1570180462631473.0,2.1363329408858243,1.1889339289761405,1.1478096956806156,0.937384135397108,1.0634661130050334,2.0295002233598227,2.120344765407292,4.330050283838379
1570180462631473.0,2.117864230008785,1.1731151594602722,1.1609831804827928,0.934316818970571,1.050394057563447,2.0029971859373377,2.126038817990216,4.303070904739477
1570180462632229.0,2.0983833967733516,1.155187112712709,1.1725000678016038,0.9322105730939871,1.0427076534422473,1.9671359360740448,2.1279197453622576,4.2809819074479485
1570180462632229.0,2.079421518949702,1.1393369124334585,1.1808603774612436,0.9318658860909992,1.0381375041073608,1.9504560770581025,2.122547229657008,4.265343469483617
1570180462645439.0,2.0610003804538586,1.120708964138245,1.1890029336074865,0.9324534033245442,1.0356298403832271,1.9219396087768448,2.1097574011292517,4.253115331943463
1570180462645439.0,2.0416491650520516,1.104689328057312,1.199904742775753,0.9338594763180066,1.030807182620856,1.9043827402585796,2.0927764537366507,4.235168515431445
1570180462653599.0,2.0216760229565005,1.0866670148871538,1.2093299559044812,0.937343659961769,1.0266098658883713,1.8691454722840692,2.0782879348970544,4.204674186928655
1570180462653599.0,2.0036363117685227,1.069855698975668,1.2137875908197922,0.942658304777604,1.0228570387770153,1.8468819268668921,2.0714006582626667,4.156071779476526
1570180462668380.0,1.9842888730063573,1.0517092154797416,1.217253039125798,0.9511847923331237,1.019881544976584,1.8132269595726043,2.0706602678122006,4.096559653757626
1570180462668380.0,1.9606832058891914,1.0381832951666754,1.2236708781482446,0.9634373266053353,1.0181766779106345,1.797526237060788,2.073411983002459,4.036076791985462
1570180462668380.0,1.9350087255579191,1.0254963253442462,1.231874477969444,0.9796652282603275,1.019615407184281,1.774962602702461,2.079253377025226,3.9826214461404876
1570180462668380.0,1.9097199960847373,1.0165881206325014,1.2410092522214735,0.9991690278584485,1.020004234319086,1.769511168799774,2.0896044434086565,3.9366859781691335
1570180462690518.0,1.885703707183088,1.0078128142135505,1.2500596416062344,1.0201875366134383,1.0200342711479815,1.7508387622237631,2.1037715688258043,3.903813336006139
1570180462690518.0,1.8633720407306371,1.0022264613552756,1.2572102267625367,1.0405117442881786,1.019535404523405,1.7419682940257257,2.1202246347674367,3.8816377709683314
1570180462691313.0,1.8413167290637584,0.9947876978537692,1.2615336665078383,1.061767759569839,1.0204971690394775,1.7205323939059194,2.1363567199916944,3.865499683708932
1570180462691313.0,1.819480165762179,0.9891880784962734,1.2640395918720047,1.0823716276293898,1.0231308334263651,1.7118126953608306,2.1478469803703897,3.8545902867687243
1570180462705322.0,1.7997287149983783,0.9832569584221083,1.2667230554809046,1.1021453853687948,1.0285580743830498,1.69074135935601,2.149741510096936,3.8521327997273267
1570180462705322.0,1.7844382924187538,0.9805930894088375,1.269592390277482,1.1216096046848738,1.0341867665016145,1.6810612974257197,2.1487414461079566,3.849409929551154
1570180462713345.0,1.7734749645327184,0.9782340458523784,1.2708366500282657,1.1382633119444034,1.0375904082726115,1.6608878828443407,2.1451012161853926,3.833107014218697
1570180462713345.0,1.7653514628502027,0.9794432346957344,1.269380619534072,1.150337691456876,1.038589535638548,1.6536893550401932,2.1344131472948304,3.8015145844214726
1570180462728444.0,1.75562272121941,0.9816329491107051,1.264372625576001,1.1603836793746465,1.0408604916570192,1.6359284881958318,2.1194027603534873,3.7676330388119097
1570180462728444.0,1.7428040932795459,0.9872609685501683,1.255433167304744,1.1680291913663754,1.0449896838528543,1.627007070818097,2.1042262448323896,3.73735053314697
1570180462729219.0,1.7295394006376328,0.9917929681480301,1.2445723157129787,1.1707196547915362,1.0507716111599834,1.6073459531204402,2.0894281062843643,3.7147977481328796
1570180462729219.0,1.716244764387904,0.9954797687529647,1.2324865825823037,1.167530664456585,1.0566242211987187,1.599988205006949,2.0752951510904105,3.6950667911542987
1570180462750961.0,1.7016724510728793,0.994474365719384,1.2184095295821609,1.1615259202470742,1.0630856206961332,1.5838076175907507,2.0644323319169904,3.6730002153786927
1570180462750961.0,1.68755216853535,0.9927526258309359,1.2016798478738075,1.1543893557905074,1.0697185197827745,1.5793469367765296,2.0579682367877727,3.655790973911959
1570180462751151.0,1.6752655396740042,0.9888940104462632,1.1853339701720327,1.1480370616609115,1.075165928462147,1.5689045551455398,2.051424134077947,3.6526040599440943
1570180462751151.0,1.66362299443177,0.985560546866112,1.1711429738252508,1.1442796434017153,1.0767765106198437,1.5721449618831504,2.044290392696186,3.66078399907402
1570180462765284.0,1.65109691633194,0.9800931319202171,1.1595846497232902,1.1421126478971109,1.0758598801530952,1.5702162022230666,2.035054557992532,3.6783325611005613
1570180462765284.0,1.63907182229445,0.9755635534183262,1.1504591541809228,1.140520946031165,1.07281386303041,1.5774243181405962,2.0223168467926653,3.6968679590648152
1570180462773295.0,1.6293486790616012,0.9717916857686265,1.1422828682204424,1.1385265310075474,1.0690913814618959,1.5749545329182668,2.0066818243575155,3.7100299078826726
1570180462773295.0,1.6220766558741873,0.9720715723870053,1.1315577688756333,1.1351410222115137,1.06518947478107,1.5780561878528816,1.9897628159888618,3.7227896689504494
1570180462788257.0,1.6167854334106568,0.9725895144526764,1.1191671496882978,1.1312952565027228,1.0616314903868924,1.5725992831154323,1.9731445743451674,3.7379575682321087
1570180462788257.0,1.6149532581406205,0.9741054322591065,1.1076970920456335,1.127988860473594,1.058886336558267,1.5786762407046375,1.961551944320769,3.752131836268635
1570180462789059.0,1.6176589007424078,0.9750769273020453,1.0995560799176225,1.125165030274221,1.0594898683181215,1.5825156160255949,1.956009712126376,3.7684951072898616
1570180462789059.0,1.6246741077431601,0.9797015589571955,1.0956963671003463,1.122873323185136,1.0632526450958324,1.5947117764183292,1.9561854253105568,3.7899676837789467
1570180462811090.0,1.632641619478991,0.9871006353499107,1.0955346758847215,1.1200667750175355,1.06857486926429,1.5995464975708507,1.9600578229861363,3.8169559951116603
1570180462811090.0,1.640983671617086,0.9958170802465344,1.0968976566225166,1.115773697449972,1.0750934006260462,1.6114664591694758,1.9687026948519566,3.8533242851325786
1570180462811090.0,1.652171759425041,1.0002304513288396,1.097916175197967,1.1118162632343225,1.0841383434139364,1.620024846551878,1.9808475223625632,3.9035442850776194
1570180462811090.0,1.6668004729832728,1.0022231745764487,1.0982818079333942,1.1112629204523734,1.092595251850252,1.6398591058671128,1.998598972199699,3.957902217422083
1570180462825169.0,1.6798126937928257,1.000661772973888,1.1001846366109547,1.1141376834055527,1.0976009373199433,1.6598015018371697,2.0179528212242435,3.997790002702348
1570180462825169.0,1.6853932042943285,0.9987687065549785,1.1006734551354538,1.116629896740413,1.1018116581409547,1.6879466793929854,2.0370248338707264,4.020901182814609
1570180462833153.0,1.683370327314737,0.9981300548090128,1.0947592704178573,1.1156329028068317,1.1075099740438228,1.7125666777565258,2.0580041668158726,4.0342448510231
1570180462833153.0,1.6747772732354747,1.0011958036605928,1.0848597650870195,1.113105290184057,1.1135545836716403,1.7443349080189412,2.0858771584370364,4.0395395044639315
1570180462848045.0,1.6605107179558254,1.0056162428905808,1.0770900118254043,1.1109090200046,1.1211379118239408,1.7761276936531314,2.116071281058841,4.044815286650931
1570180462848045.0,1.6456954981395033,1.0130837568042552,1.0725320697346803,1.110139391917224,1.130177758707992,1.8176549379232123,2.147696585024015,4.0502245140846185
1570180462848899.0,1.6329177537843695,1.0214208097871293,1.0693873761422004,1.1117313485062572,1.1389672159532935,1.854185137568581,2.179435762078248,4.047963255243991
1570180462848899.0,1.6199370855333688,1.031070701176519,1.0665259317522477,1.1148785074307686,1.1434160704158458,1.8843213729566137,2.215319104454853,4.040437944056796
1570180462870994.0,1.606062169823896,1.039790525630723,1.064009350150402,1.1184983264399149,1.142535213857309,1.8953827959635319,2.2549248762959464,4.03769527359282
1570180462870994.0,1.5944815519320588,1.0468359647287986,1.062781400787625,1.122757428920813,1.1418560713766652,1.9060259757229996,2.299361246678054,4.046855869102788
1570180462871830.0,1.587590488860498,1.0502773281344298,1.0649016874569774,1.1266460825392526,1.1447966367119384,1.9137478359429272,2.344305066224225,4.066423045103456
1570180462871830.0,1.5866689219753851,1.0532908783553456,1.0693771619001564,1.128428275801258,1.1482856861233939,1.9278793315980889,2.389799013928254,4.088511593704471
1570180462885434.0,1.5881593801953915,1.0548238233011462,1.0742027076668859,1.1259892965890828,1.1505329949462837,1.936469992896127,2.42048612331049,4.098420708029684
1570180462885434.0,1.5869816565491834,1.0550999492711242,1.0814660608259803,1.1173593039689256,1.152189924191085,1.9494707391604686,2.4258282038970096,4.088663880744258
1570180462892770.0,1.5847486445709544,1.0534436419275626,1.0930094133795052,1.1036989470370766,1.1555215299032184,1.9566692941494217,2.4172826424167453,4.078809404001004
1570180462892770.0,1.5855372234651999,1.052309891589098,1.1068149278162835,1.0909389849595659,1.1604122849942071,1.9691844537136738,2.413246046417514,4.085064161858654
1570180462908918.0,1.5897779714734188,1.0504637299283563,1.1198237562924336,1.0811204462026431,1.1642140343574308,1.9771259742743819,2.414260116923214,4.107832282827335
1570180462908918.0,1.5960236424791123,1.0493672484209362,1.1322757930844105,1.0726757824839896,1.1665090646349097,1.9906777892382603,2.4214419939222034,4.147170809228663
1570180462909731.0,1.6028620747524351,1.0468205264324533,1.1440565867718857,1.0652081908297253,1.1696044294156152,2.0009191355081963,2.4358050083980616,4.202963291144774
1570180462909731.0,1.6098030831546641,1.042855024573082,1.1534040431532688,1.0600626883545416,1.1722731399679043,2.016879002752594,2.458599354350891,4.26029016119083
1570180462931032.0,1.6183345498422563,1.0366871184122097,1.1603495351315691,1.0561012569599406,1.174778848337191,2.0256285502243294,2.481591917760054,4.301704045488631
1570180462931032.0,1.6307416408300646,1.031445555095275,1.166022723192378,1.0525806220871483,1.1777777081127796,2.0397578378751264,2.5013524008343664,4.335516339939552
1570180462931671.0,1.6459177246895238,1.0281075269403632,1.1703659487419442,1.0482349614621256,1.182667776580836,2.052828087585193,2.5184282444965786,4.371687828137275
1570180462931671.0,1.663507959110424,1.0284510153475843,1.1744635948054645,1.0421478607211112,1.1892764545642605,2.073006893323764,2.5374551643393213,4.40157075129505
1570180462944639.0,1.6809205792331183,1.030463760326232,1.178240657198684,1.0358169117004405,1.1961615855592829,2.087003476556569,2.5597431264484554,4.417471132079855
1570180462944639.0,1.6905029093146462,1.0354017179374555,1.180793168395697,1.0315920861872363,1.2020239750399204,2.1077814696432244,2.5868730821801025,4.427173382468143
1570180462952620.0,1.6880330007907915,1.0414003687601143,1.183088350253256,1.029346219799986,1.2055875362252266,2.1178411796012515,2.6122960593132825,4.435741220447128
1570180462952620.0,1.6786088434686284,1.0485002545871895,1.18613695509137,1.0294485310798038,1.202356697770566,2.120066905672573,2.6363200361159853,4.439123984622484
1570180462968569.0,1.6688246484390514,1.0557727002706694,1.188946429774414,1.0298456584694362,1.1921615995259967,2.105438355704821,2.6607179414225026,4.442154784406264
1570180462968569.0,1.6615841661568695,1.0626557006459296,1.1905643469782854,1.0277106425812927,1.1797238868707731,2.094325159733824,2.6862762159928804,4.45582069043359
1570180462968848.0,1.6563393027322224,1.0639723986977745,1.1910114530089764,1.0225011769305639,1.1681687883350422,2.0744463432827582,2.7066375715521795,4.46817343430898
1570180462968848.0,1.6499156230483,1.0598107990828154,1.1902606155461122,1.0163011490305387,1.1537142118804962,2.0565293687697475,2.7140637653165856,4.458875074012469
1570180462990709.0,1.6426961345647715,1.0525817717734376,1.1893219216587851,1.0098688286264388,1.1384415442249938,2.032171601621069,2.709258926663298,4.441861552157536
1570180462990709.0,1.638267939685621,1.0448252832925435,1.1881543801642902,1.003435864354652,1.1256897358088527,2.018563349775708,2.701007521598597,4.430020487510657
1570180462991515.0,1.637536081533688,1.0333235499225153,1.1868049611857643,0.997652503982192,1.1159643725652926,1.99717709381069,2.690164635856583,4.420720198577418
1570180462991515.0,1.6414360210118044,1.0195076080458179,1.1862215288532734,0.9948293716030999,1.1055896835340289,1.9787608285308065,2.682385496407512,4.420604402358829
1570180463004478.0,1.6490462744295502,1.0050708783862183,1.1846120684326373,0.9950033124098546,1.0931863203271612,1.951613578797672,2.6832623274320824,4.43283796144137
1570180463004478.0,1.6577007743000802,0.9924220469236006,1.1798470494060345,0.9955424928211303,1.0773371313453846,1.929862695747914,2.6915680441681995,4.4362753806796285
1570180463013564.0,1.6648069570801085,0.9816354837325467,1.1729505450323139,0.994071989718798,1.0606017624289896,1.8995198031672178,2.6967174634069058,4.411235160445899
1570180463013564.0,1.6695196674017359,0.9742459210359414,1.1637934742389475,0.9916324231493484,1.0430423716263855,1.8773686325616572,2.6951459875036483,4.371168024910273
1570180463028497.0,1.6724387754315693,0.9673748453249043,1.1504421811132997,0.9890300937325823,1.0265338989652892,1.8514166631777325,2.6925437294809327,4.337192670256642
1570180463028497.0,1.6734508565236754,0.9617042636848677,1.1333136772774488,0.9855121789142015,1.010382997953715,1.8360212522737487,2.6929366591387223,4.310883708955241
1570180463028497.0,1.673076955709154,0.9574231972117858,1.1153692192263827,0.9806845978680054,0.9943585753692654,1.818495825857778,2.689800506948741,4.28573501458809
1570180463028497.0,1.6724328323240112,0.9554369933515352,1.0983282162723715,0.9766864497399483,0.9783455327385527,1.8112576323174854,2.6759890415172496,4.260925081328812
1570180463050357.0,1.6727279316611716,0.9550917088884036,1.0844703976223682,0.9743723080090584,0.9652397890495027,1.7972218430083755,2.6573590802229474,4.2446556274039136
1570180463050357.0,1.6741692987629735,0.9570310647632675,1.0738109652238836,0.9750204055629886,0.9546372551281227,1.787183447521539,2.6426925807840487,4.240160788084279
1570180463051349.0,1.6727194574242494,0.9617547497748624,1.0645956716611171,0.9786476509320868,0.9462371491574137,1.7717934238179684,2.6315636597040046,4.243974975789329
1570180463051349.0,1.6665278037388747,0.9698677710325723,1.0555581754377912,0.9826298987222236,0.940372250060597,1.7660824250214333,2.6250551034661163,4.253773853900665
1570180463065491.0,1.658412626329659,0.9799936610302349,1.0477549662850416,0.9837360427223004,0.9387712261913564,1.7588694846787334,2.623886309903558,4.275725451662078
1570180463065491.0,1.6517015824191659,0.9924283368667053,1.0430953953173911,0.9819845474733653,0.9401250406042829,1.7621540166884544,2.6252058344963785,4.311989158407143
1570180463073524.0,1.6490806062992163,1.0049507462839977,1.0417795801678618,0.9781210903004521,0.9427905574919013,1.7651717647229872,2.6289390782876554,4.358881645598299
1570180463073524.0,1.6530507250348565,1.0166653233755025,1.0417350103293224,0.9713588669597302,0.9452994072489024,1.7802249716618288,2.6381633619053315,4.413530741790329
1570180463088459.0,1.6639414097870213,1.0304104914203127,1.0409765185455613,0.9611361113271348,0.947882467730849,1.7977342233066094,2.6509298804058323,4.468674748494074
1570180463088459.0,1.6747990322747321,1.0454343417214975,1.0394044346938134,0.9504474132510686,0.9492675048395011,1.8214107646716104,2.6499898695965878,4.505230342073384
1570180463089261.0,1.675046795865607,1.0576837220447595,1.038034018719677,0.9411410211829289,0.9495663210504601,1.8307523106659283,2.624586179836818,4.509359574233484
1570180463089261.0,1.6653634303213913,1.0682330755038738,1.0368453826034199,0.9336766324519307,0.9515800142713895,1.833654737883727,2.593370601344773,4.494613625584144
1570180463111189.0,1.652970220660332,1.0790085135640552,1.0368290720702031,0.9259799431984023,0.954597477641059,1.8286197229942123,2.5694268915944023,4.470253220342287
1570180463111189.0,1.641411519071053,1.0902077993260226,1.0369828840553814,0.9150881184930003,0.9544672714677074,1.831252830261472,2.544725746844091,4.427463872846024
1570180463111189.0,1.6295842025464256,1.0998262273499158,1.035306524048816,0.9022295686824907,0.9522008481909283,1.830773229820103,2.5172105075584454,4.374668164531501
1570180463111189.0,1.6157853305892427,1.1060348184782876,1.0328381164893048,0.8916710528361074,0.9496886647147688,1.8368617491883354,2.490284992729003,4.328267779960773
1570180463125364.0,1.6023331662636948,1.1105750247035662,1.0295368422189186,0.8844438202825362,0.9470279864409061,1.8406602389158022,2.465204593715294,4.291486551573229
1570180463125364.0,1.591555136992445,1.1157043927005912,1.025526759245125,0.8809234330669178,0.945166927336604,1.8491766000460053,2.445544942438772,4.262449936834596
1570180463133625.0,1.581284531757146,1.1193501291312262,1.023797829331001,0.8800231824131411,0.945142904579868,1.8493481112987813,2.429099917781733,4.234089018249293
1570180463133625.0,1.568711627325642,1.1197134843162961,1.0264078312803464,0.8808709999584999,0.946966695531168,1.8508657341137498,2.406292142737419,4.193245852090062
1570180463148238.0,1.5545048617132164,1.1183450082602908,1.0331569110564336,0.8833147209124775,0.9495608423627595,1.8484849384570254,2.381804900386282,4.1486921833648776
1570180463148238.0,1.5417392319068093,1.1166197044818966,1.0440635476432816,0.8865072264967827,0.9510183187597094,1.8526065539908574,2.363335741728305,4.11550360890091
1570180463149090.0,1.5324382946039634,1.113188634754875,1.0577542745703707,0.8883406419770017,0.9512771716810489,1.8566314078622221,2.3485853635822505,4.095810522420317
1570180463149090.0,1.5257255692191363,1.1083151997321203,1.0723355341004508,0.8878509320360972,0.9514772213893645,1.8710728903949339,2.334041088719446,4.089699643070567
1570180463171069.0,1.5196186767505568,1.10245808887161,1.0856310759601955,0.88587161303857,0.951482195720648,1.887449286241614,2.322951101579793,4.096647901914664
1570180463171069.0,1.512215102603857,1.0979770547912584,1.0950547305704323,0.8825290410097792,0.9525179995128304,1.9124933768622805,2.3131515037332524,4.111538041250551
1570180463171069.0,1.5003035096230348,1.0955727806000113,1.099829306135697,0.8766629694369794,0.9553092723912019,1.9354686518959987,2.30183131910998,4.133353047190756
1570180463171069.0,1.4852249107639197,1.0957997478146986,1.1032432768976488,0.8692739967682034,0.9590600070575056,1.9627996064485553,2.2895881219582677,4.165012113834661
1570180463194171.0,1.4709704485190442,1.0974461654320493,1.105958950721693,0.861211794581158,0.9625578432993588,1.9857014257640933,2.275670736503464,4.204561936388603
1570180463194171.0,1.4595795517178938,1.09810797521287,1.1061816391728434,0.8535506169291146,0.9672457247397007,2.0121213188372398,2.2596618334881686,4.247010273661363
1570180463194967.0,1.450621888815923,1.0942575346904622,1.1038933342827104,0.8472239075091086,0.974702095798793,2.037527846239427,2.2427221211713313,4.287451277444483
1570180463194967.0,1.4440648101895839,1.086014503226468,1.1002362921502982,0.8423401013448978,0.9851087927691698,2.0721177508698823,2.2264836915332706,4.327089940935634
1570180463208169.0,1.4414195780564065,1.0745730384082066,1.0960863741036952,0.838849998165836,0.9970024480353735,2.1104656276141367,2.214181193631345,4.376900515130206
1570180463208169.0,1.4415049758667755,1.0622970394967934,1.093506002417253,0.8357973490128802,1.0116022627135568,2.1623547024437992,2.2066759215153158,4.4398993239541715
1570180463209000.0,1.4433342067069863,1.0506789780267705,1.0922492827282466,0.8331476401093395,1.0231184688547958,2.2135041813780774,2.202250662566385,4.509336418680836
1570180463209000.0,1.444873838389339,1.0395762417030456,1.0914894624665228,0.8329037506363445,1.0259288759284053,2.248746368344857,2.190847278251969,4.561521374138132
1570180463231119.0,1.4391885134403908,1.0252424001718694,1.0921477020330879,0.8360477644120748,1.0253124697882106,2.2492733352603906,2.166329259103246,4.567072103200552
1570180463231119.0,1.4257905212463717,1.0097282236365548,1.096298762124407,0.8404533263450272,1.0273128225219754,2.242440212617045,2.1391148374834565,4.535870779009507
1570180463231119.0,1.408845830934178,0.9955608810573315,1.1035663846803732,0.8431910723827047,1.031230568914461,2.2325996012208313,2.118427858414306,4.4934004699383205
1570180463231119.0,1.3914796967439058,0.9834240049054114,1.1120662451245449,0.8432638391199727,1.0373786914611782,2.2261259693861817,2.1043170732740233,4.449879278754792
1570180463253843.0,1.3763501748615234,0.9739004940917987,1.1206736251231515,0.8408113642793286,1.0441827041752731,2.2071097141213025,2.0928102801220088,4.411299150468188
1570180463253843.0,1.3633083552366463,0.9666669677171571,1.12861545403594,0.8378088769238198,1.0501324004612163,2.1907856948835547,2.078944927210005,4.3805187570036885
1570180463254804.0,1.3513359165536967,0.959213971488757,1.1348541705145874,0.8372796966958235,1.0540193389716757,2.1700506809832563,2.066722977920558,4.360919364473129
1570180463254804.0,1.3404475055289637,0.9528183994792953,1.1396611375554446,0.8389918355802908,1.0573666217591178,2.155021094315107,2.060283073325149,4.350655766834107
1570180463268278.0,1.3306141397013376,0.9462196160789504,1.142956487942996,0.8409915638055226,1.0597342022901968,2.131768320873662,2.057395155683653,4.345999877452707
1570180463268278.0,1.3218357922261683,0.9385652881326846,1.1458909145536518,0.8412019380871519,1.0616588294476925,2.1134401315157185,2.059525312728175,4.3418933100751325
1570180463268894.0,1.3149194167683782,0.9315712083402371,1.147271888239917,0.8388689430132321,1.0647324400872993,2.086496909737425,2.0691617227550823,4.331270348747224
1570180463268894.0,1.3122673231996673,0.92549653889462,1.1443882416172186,0.8349673390141429,1.0701590903430254,2.062675417382833,2.086414978079695,4.320525848132712
1570180463298848.0,1.3137009216660673,0.9202032370952191,1.1382667359168457,0.8316231909613068,1.0763964646296926,2.0299203728454587,2.107316228652378,4.319924386942206
1570180463298848.0,1.3154053257562548,0.9178020893939287,1.1318916023661427,0.8296182701190711,1.0819125812044126,2.003328656306799,2.128555263863317,4.327630240718907
1570180463299685.0,1.3146632384236512,0.9182975683901273,1.1260731636300412,0.8290470942573742,1.086499089378786,1.970100858245258,2.1488785869178293,4.342769983192833
1570180463299685.0,1.312879455997498,0.9205908187100112,1.1208406528669883,0.8296688125803356,1.0914464936860855,1.9429424027819462,2.1732936127242466,4.36536990269247
1570180463313909.0,1.313288764792699,0.9247283671299865,1.1170918021884355,0.8305883818974836,1.0943586904487366,1.9108074131824389,2.204174154609446,4.388669555993204
1570180463313909.0,1.3145331288805604,0.9284328534163443,1.1158287710197135,0.830701189644412,1.0918163540686632,1.8905551098093913,2.2354358712022644,4.402735943824197
1570180463314653.0,1.3132674892728717,0.9300284410100019,1.1169102197790317,0.8312140671605409,1.0838556360303837,1.8694428541968922,2.2580862348551465,4.407488498096818
1570180463314653.0,1.3101395459258809,0.9303916049644856,1.1183821167162458,0.8307713337381848,1.073610523410612,1.8558244592661015,2.2740864639331146,4.412716683862534
1570180463328608.0,1.3050750614641937,0.9318743898050899,1.1182649157265927,0.8278258267258527,1.0617617685983414,1.8317892429997464,2.2849222862061915,4.4205936798605565
1570180463328608.0,1.2987561959911806,0.9350165875127244,1.1166545468795634,0.8243321930720144,1.0493910993470776,1.8127134473415187,2.29265333820364,4.42713613664691
1570180463328608.0,1.2952348435388583,0.9391611144379722,1.111554034099414,0.821389959001464,1.0372677133759238,1.787078561252172,2.2987263532017375,4.434329011187522
1570180463328608.0,1.2960734571579142,0.9439506128645693,1.1030315996301217,0.8188014829763789,1.026518670676187,1.7674966487211785,2.30787532952993,4.45011392675734
1570180463350747.0,1.2994295338092683,0.9507780699090798,1.0949519938360213,0.8177266900646842,1.0189117567822583,1.7425297166826375,2.3197965894467245,4.4727445735968505
1570180463350747.0,1.3052243156061778,0.9579524034246912,1.0882498541450183,0.8168063740910174,1.0144971175255835,1.7276483243563572,2.333451591930796,4.49530480894088
1570180463351546.0,1.3155085817849075,0.9651429644402745,1.0809027272536795,0.8165027195146578,1.011020464144489,1.7110061342765566,2.351199470991175,4.5238549936282295
1570180463351546.0,1.3314534804738691,0.9718118840638748,1.0729020403232157,0.8173980549453006,1.0087680238291346,1.7020975605042228,2.376252030251195,4.55375710800271
1570180463373702.0,1.3511293076171842,0.9786514344462132,1.0661837517024835,0.8187647527353608,1.0073928960333114,1.6885371796382898,2.4049800530734156,4.566538476452779
1570180463373702.0,1.3704908307549057,0.9850366985429455,1.0617108067951269,0.8205320610615318,1.0062492906531284,1.684662638028189,2.4311340568634945,4.561806964885865
1570180463374485.0,1.388476941721343,0.991770198596282,1.0574560988297264,0.8250796199763168,1.0060769214162717,1.6788252553152914,2.4480663771441034,4.5522113213373805
1570180463374485.0,1.4041582870153024,0.9992133022476661,1.0514522839358893,0.8325928043626031,1.0081427129258342,1.6813966956543873,2.460820658593051,4.540587715713257
1570180463388579.0,1.4145766061991727,1.0088842825181927,1.0436726645209367,0.8420660459929463,1.0119285925336046,1.6812320334896926,2.475331979954486,4.528806790352419
1570180463388579.0,1.4216543108475406,1.0188071050028464,1.0340999399533892,0.8510133873094397,1.0167402965756944,1.6891551620842686,2.4918954220637617,4.52663217348482
1570180463388579.0,1.4284116624644452,1.0289019687782737,1.0236793605897483,0.8591584992266595,1.0211684250484856,1.6955456732780771,2.509898713542377,4.536662037757647
1570180463388579.0,1.4339334326795214,1.0384628871167725,1.0133790994093155,0.86613923130808,1.0246841315872992,1.7125784111404314,2.532725828430153,4.550141520829018
1570180463410590.0,1.4382321575655221,1.0483472956934952,1.0041539908875419,0.8715504663970345,1.0260740620590054,1.7304735323659808,2.5559491461962667,4.563348847613513
1570180463410590.0,1.440400395442021,1.057765028368803,0.996986968332441,0.8754213292769806,1.0279357993953329,1.757797977378189,2.566821352097878,4.56865766604858
1570180463411464.0,1.4374159748316093,1.0675635722683041,0.990801383420202,0.8802217878612384,1.030534247976337,1.779064744998057,2.560756633572115,4.55012719014793
1570180463411464.0,1.4310657869431127,1.07692783133285,0.9846468976948439,0.8852208059876432,1.0323703197695093,1.7948206489362295,2.552644235030974,4.512001525458637
1570180463433526.0,1.4253035586360374,1.0866284981071617,0.979437406965825,0.8910658310189524,1.0341263089392194,1.791299171234856,2.5509183287457184,4.472678741805726
1570180463433526.0,1.419264838037741,1.0948221916709493,0.9741719762763266,0.8980429794903603,1.0360454259806413,1.7847325979282296,2.552444736357349,4.438129631460066
1570180463435325.0,1.4098879303495477,1.1016221964951023,0.9668709769906011,0.9055044258764687,1.0358696455544087,1.7720773791777427,2.552919661883121,4.412631291047912
1570180463435325.0,1.3989701992811723,1.107443577285346,0.9607438099027741,0.9132010153410283,1.0362393698704324,1.766586901017414,2.5518477241685407,4.400381052233477
1570180463448430.0,1.3905232612042777,1.1138727208501704,0.9585369148060692,0.9224003951398693,1.0374130340082306,1.7540959963905363,2.548021469704521,4.398957192760031
1570180463448430.0,1.383668878270888,1.118967018703874,0.9591649731476714,0.9312676549941546,1.0387469947867878,1.7439933146956643,2.545865744510212,4.4042433362570135
1570180463449286.0,1.3773756592140347,1.1217012862992501,0.9604345626755512,0.9385845513620779,1.0377544803431424,1.727674147788143,2.551675481441222,4.416369580573899
1570180463449286.0,1.372641740852365,1.1217901600245197,0.962507602605291,0.944370577299605,1.033350507382187,1.7178422778677984,2.5613537706266203,4.43333525263269
1570180463471338.0,1.368474141797485,1.1219817184415901,0.9640493332411991,0.9501418482881953,1.0284477801756684,1.7039529376034874,2.565040054929506,4.452252540330628
1570180463471338.0,1.3648550596781517,1.1223323540775703,0.9624214055890082,0.9554700471312657,1.0271914549239074,1.6966540825904795,2.563349171136265,4.4750490345911
1570180463471338.0,1.3617721472124362,1.1223745047323606,0.9587672687088722,0.9619181357524482,1.027625274799357,1.6835869030534028,2.559060661161045,4.499082412110325
1570180463471338.0,1.3582229663216072,1.1206641016734746,0.9562019730224078,0.9697327787210103,1.0284109029189563,1.6762236518360096,2.5434857510500897,4.5174223521522565
1570180463494311.0,1.35422312909639,1.1189946820231451,0.9542581720806269,0.9789899633305646,1.030145671711012,1.664832217326699,2.5135959249707267,4.52613530082513
1570180463494311.0,1.3508051409550461,1.1176686996090648,0.9511679600432957,0.987101982123009,1.0341798870589647,1.6607513989884715,2.482761215519521,4.527760287118922
1570180463494311.0,1.3499476199052283,1.1182601649688493,0.9469024550864958,0.9940464416585905,1.0386874589239656,1.653704098442831,2.4587336170071183,4.533211655832505
1570180463494311.0,1.3505654488149361,1.1208598619327712,0.9427198854966499,1.0003557440930466,1.0424432339265721,1.653353879675214,2.4404170835036463,4.548655656623828
1570180463508130.0,1.3516996406485475,1.1248258625505074,0.939375199598794,1.0053597916898458,1.0461742205240694,1.6466413550046752,2.4268502532192247,4.572928414735576
1570180463508130.0,1.353315480839776,1.1275712244658602,0.9379110312684386,1.0079245291545351,1.0521600475891844,1.6427955080019998,2.413999133244796,4.58491146580917
1570180463509216.0,1.3545490512959086,1.129008036027866,0.9368181209505257,1.0085805450487835,1.0574035730262679,1.62955001345928,2.396913294423226,4.565056471889562
1570180463509216.0,1.3585029462807958,1.1296909234524322,0.9343441635081152,1.0060705346060843,1.059889614788255,1.6206129871122115,2.3763498516375283,4.531112246415729
1570180463531210.0,1.3668248184737581,1.1310181846660263,0.9285216390885926,1.0011177953663666,1.0595976423085822,1.60756287809416,2.358235380065442,4.50427181930678
1570180463531210.0,1.3761618049377216,1.1303258001022058,0.9211610844127335,0.9943566829908221,1.060323759257164,1.5993631713351986,2.341514373362293,4.481107673091383
1570180463531210.0,1.3826645053974753,1.1276407332554437,0.914985859000949,0.9862345441941845,1.06294750398895,1.5855545286117776,2.3222021896965734,4.455540391026656
1570180463531210.0,1.3857980962660699,1.1255030217264133,0.9111688064359409,0.9785128069900814,1.0657940572267415,1.5781935811888854,2.3041095036270685,4.43386282246642
1570180463554183.0,1.3888432789497198,1.1261503730878548,0.910253588486152,0.9731714715352188,1.06666169171061,1.5661034442277246,2.291238861416694,4.422698653053198
1570180463554183.0,1.3945267390024636,1.1296143055979826,0.9122492825907641,0.9695264166784902,1.068634005815958,1.559175397210045,2.281561235506268,4.41724775788255
1570180463555012.0,1.4014107305009662,1.1329254357431044,0.9157757828497326,0.9667508546306698,1.0737048817389747,1.5490377383152385,2.2700567393116673,4.415581550702676
1570180463555012.0,1.405619511138314,1.1290475326958187,0.922129685450854,0.9635859828933051,1.0818953815936028,1.5460844539931295,2.2557808841895723,4.417628888219765
1570180463567972.0,1.4078132859820383,1.1173726651078264,0.9293401747851526,0.960470125039182,1.0892510751562765,1.5387536990624973,2.2446725140417754,4.41955320170366
1570180463567972.0,1.4120995292903298,1.1018148905153917,0.9362149725232436,0.9570778330207566,1.0940587323735824,1.5383419631423705,2.2407572269837948,4.4230061554976094
1570180463569069.0,1.4210057991167366,1.0885030250706362,0.9434972071072802,0.9538703642866609,1.0973476649328349,1.5335373953050422,2.242751219342812,4.42930707671073
1570180463569069.0,1.4326818013866234,1.0785247600107974,0.9513896016610333,0.9515752147652619,1.102815513879318,1.532323686721189,2.2466983994580128,4.434299059647465
1570180463591121.0,1.4410631483854712,1.0710823747936844,0.958529412756484,0.9513753398154827,1.1104703068847068,1.5262226212046994,2.247507129178164,4.441876614991898
1570180463591121.0,1.4441533785523368,1.0656307369636109,0.9656551865798213,0.9527964105692632,1.1219261873458937,1.5264535028652588,2.2476774494232825,4.459055167345352
1570180463591908.0,1.4464699883816081,1.0613999596094306,0.9724408951424839,0.957086789470772,1.1369426029418823,1.5237549653349474,2.250819041184649,4.4863917288732
1570180463591908.0,1.4503367759792332,1.0559996209975877,0.980623901681239,0.9632776249409366,1.154807200698562,1.5286151124891925,2.2551934571588754,4.517282084709728
1570180463614034.0,1.4513551838391872,1.0499909650784864,0.9903385289117967,0.9686799036040775,1.1726527013026269,1.52893958284915,2.2616746927645894,4.5373853634543035
1570180463614034.0,1.4465094608257056,1.0428258073858332,1.001909857522572,0.9724345786787394,1.1894910287367102,1.527940323044931,2.2744789302205297,4.535217935230483
1570180463614843.0,1.4416065388363937,1.0330577955773799,1.0144673319289148,0.9759292508069675,1.2040716033321461,1.5159783382042207,2.2918076518697053,4.521917910712128
1570180463614843.0,1.440930356833459,1.0215031119002966,1.0273042224829245,0.9776912014737548,1.2182765679316245,1.5073246057126015,2.3100419095068583,4.505469230354946
1570180463627952.0,1.4429305743686953,1.010509685072539,1.038183517134608,0.9773774900927238,1.2302154990009195,1.4942615133263855,2.3260085094452974,4.478834636792978
1570180463627952.0,1.4465521218560182,1.0005038868307679,1.0485937518676403,0.9748798786092173,1.2380292928515286,1.4860918955677456,2.341639520705391,4.450775309043129
1570180463628813.0,1.4517955966960387,0.9917295607757947,1.0598780845950566,0.9717059769281893,1.2416017973978566,1.4717177322336366,2.3614249375953933,4.433875112433947
1570180463628813.0,1.4594598367310965,0.9826922223132805,1.0722777205123746,0.9682924799379083,1.2406453969888214,1.461889369190882,2.3873924954183705,4.425652771363527
1570180463650964.0,1.4687454091065366,0.9738146413750007,1.0854964406752372,0.9638651771443029,1.2351498818560427,1.449687935595334,2.416573690113549,4.420646435161068
1570180463650964.0,1.4733246567614822,0.9626164413958002,1.10170975525698,0.9574436445549416,1.2294337492544234,1.4445040161977558,2.4414253055488047,4.408696149979305
1570180463651749.0,1.4697072635068147,0.9501710000329299,1.118365710176943,0.951673907132752,1.2237023301870553,1.4360295337470583,2.4536425444963763,4.386173742354616
1570180463651749.0,1.4620175804786673,0.9400475377113672,1.134613278371726,0.9478789605496672,1.2182137796315744,1.433290562096806,2.4596193077363515,4.361274352606697
1570180463673901.0,1.4542875207452397,0.9344716320828625,1.1507524950241708,0.9462379854365132,1.2124507046030049,1.4279459542550492,2.4666097182660622,4.340216763867506
1570180463673901.0,1.449345112186477,0.9324029151881256,1.1649015984050208,0.9472232439740896,1.2037174290597517,1.4317053028813111,2.4756719729484096,4.3279847011715695
1570180463674692.0,1.4493444519725638,0.9332266305556174,1.1744985571536957,0.9506132421415093,1.1900142253027755,1.4347747119357317,2.485361079507051,4.3261438987626954
1570180463674692.0,1.4501872022865703,0.935118521760985,1.1811060053803206,0.9529164705958268,1.173595446254229,1.440388728139577,2.4961173285601874,4.333672054215685
1570180463688646.0,1.4477101407130428,0.9387330945739971,1.1857825537016826,0.9541363171828809,1.1570648989100476,1.4394053070299464,2.509445508547254,4.351978722899578
1570180463688646.0,1.4449082946764404,0.9419359167213636,1.1920271513406355,0.9549655479787418,1.1414022942629132,1.4414689608528697,2.5205768229680787,4.367326805842357
1570180463688646.0,1.4444830119425591,0.9437016049332009,1.1993666601601785,0.9559750113004393,1.1273467356494056,1.4378153059708858,2.522757039111769,4.3674084003897455
1570180463688646.0,1.4459959116587684,0.9426460524075034,1.2072437626420915,0.958789710396554,1.1159195120534309,1.437315863918207,2.5155762227174803,4.362518271465699
1570180463710584.0,1.4484860195938012,0.9410382876134641,1.2149192813493164,0.9641357664313571,1.1068510971499912,1.430239971874681,2.5008889699597323,4.36284207745868
1570180463710584.0,1.4524860270238968,0.9388615152831131,1.2209220625221795,0.9692447594661655,1.0991946404421296,1.424227665882105,2.4836072222178904,4.3714567859542655
1570180463711581.0,1.4610042993482566,0.9370210174798754,1.2246257868878399,0.9728482243511182,1.0907775095921852,1.4081501418896245,2.466390004804277,4.394604592983903
1570180463711581.0,1.474008178099127,0.9346730608146151,1.2287603116003973,0.9749699590256803,1.0807911963322538,1.3932327872731116,2.4521757864983607,4.429475446768481
1570180463733308.0,1.490158961751631,0.9339304533540129,1.233533383129931,0.9768503757007185,1.0681203748315442,1.3743418963920362,2.44475084637114,4.467218035759995
1570180463733308.0,1.5088767071172986,0.9343403421903935,1.2400933848814726,0.9760005754577542,1.0540013262689223,1.3592205280760215,2.4460933360715167,4.504890088068418
1570180463740689.0,1.5276095357434132,0.9356661950482262,1.2463092096272115,0.9726026421378713,1.0412154033627241,1.338725244539998,2.4569976417263883,4.543625439411373
1570180463740689.0,1.54356662298383,0.9360355666367178,1.2501095761962016,0.9685664452918801,1.0308370821313924,1.325244184689696,2.477368381268332,4.585600396548535
1570180463748522.0,1.554848017080678,0.9369181843906005,1.251845768485289,0.9662378088505806,1.0226042178412995,1.3104451399044748,2.490388233825835,4.61936456816881
1570180463748522.0,1.5633540082700832,0.9383286754978206,1.254040000868717,0.9666953167721171,1.0167230379910392,1.3004375231136711,2.4800057789132213,4.63211307327873
1570180463748522.0,1.5745836522771588,0.9421745754551376,1.2568668797854083,0.9686293755444841,1.013839337046346,1.284705574304003,2.4618493050395216,4.635384195926267
1570180463748522.0,1.5902739997115605,0.9470565738129011,1.2604685630723043,0.9689607259466506,1.0130106226585247,1.2718298187495203,2.4484864645654345,4.641004225648308
1570180463770431.0,1.6095876466958428,0.9549769763621675,1.2631652236554303,0.9698971959569647,1.0119928670456257,1.2558912468882888,2.4349717591954563,4.646260229572497
1570180463770431.0,1.631044504713821,0.9636107124587264,1.263590909300081,0.9736149277564762,1.0121873461380193,1.2481425804819837,2.4211282133866687,4.648971234797135
1570180463771560.0,1.653943301773045,0.9709574921340454,1.2608178382689812,0.9797547088422218,1.0130244746405612,1.2407000459039301,2.4099311659919915,4.653053377107577
1570180463771560.0,1.6794329186858716,0.9737436983147082,1.2556935735562578,0.9855981395678775,1.0129152519501234,1.2399515152462235,2.4022918263016946,4.6643980600053006
1570180463793399.0,1.7086538108232459,0.9748365720161788,1.2502012155649882,0.9898727205580143,1.0116927606190507,1.2361407552286159,2.396342821112496,4.6873417571832015
1570180463793399.0,1.7389257649938776,0.9764238347581725,1.2481281357001295,0.9917331294882129,1.0107063563039258,1.2360987651825497,2.390004611710998,4.723292353263852
1570180463794429.0,1.7652610115546077,0.9821736538526433,1.246888783107772,0.9930692380481057,1.0085711994658004,1.2336307920448575,2.381425195379123,4.76135207093762
1570180463794429.0,1.7849964687098425,0.9903516648757683,1.2411794784345915,0.9944178569079586,1.0069608499704388,1.2354140170559214,2.366434493102823,4.780044652162705
1570180463807324.0,1.796997989127486,0.999479884028066,1.2310191343021386,0.9973495989812436,1.0072082098208768,1.232509077664789,2.3478757510838872,4.771700231331655
1570180463807324.0,1.8046416670721679,1.0059748071884969,1.2219435417491042,1.0030099666188539,1.0085984873225762,1.2293725084810214,2.3295127048570934,4.748499593165266
1570180463815303.0,1.814812485966761,1.0133819695803326,1.214750792242166,1.011057644904395,1.0107686494643933,1.2187637862442116,2.3094690898177967,4.7281100183293665
1570180463815303.0,1.8274126666329242,1.0216339865004607,1.2076367191194903,1.0188340794099051,1.015024433878157,1.2104038378082584,2.2893749715483938,4.715005887030687
1570180463830761.0,1.8403420335494898,1.0315586503362657,1.200564966924844,1.0259366169909498,1.0196347554619944,1.1979431354014762,2.272377378367606,4.70481237890897
1570180463830761.0,1.8541959136820376,1.0401902330399684,1.1949034963774177,1.0299696698226033,1.0242032700001995,1.1870068296781384,2.2573563379546675,4.694166353487
1570180463830761.0,1.8650814875222188,1.0474987128070863,1.1913486065127004,1.030426554792153,1.0281816884412238,1.1723294793737558,2.244397327334037,4.68400476247281
1570180463830761.0,1.8687462928648009,1.0526523757594106,1.1920474852831742,1.0296492992333919,1.0310019704473539,1.1615658885834228,2.2333795057644013,4.677063045560273
1570180463853570.0,1.869598653034861,1.0570709314595588,1.1969962754897308,1.03093184501485,1.0302682003745738,1.144881422147,2.2243561132894247,4.672766159645507
1570180463853570.0,1.8741923925687676,1.0588916117108662,1.2049204123996688,1.0351889377950674,1.0248919634327534,1.1286610483592772,2.2212548269739307,4.671495464920683
1570180463853570.0,1.8835454323534913,1.0612151394486218,1.2122818535078739,1.0419667485085011,1.0150019053998902,1.109206413322278,2.2251150086034284,4.682706361425731
1570180463853570.0,1.8935428915948513,1.0634566444434541,1.2181054398138285,1.047657522436537,1.0053846872331618,1.0943459859798543,2.232931917493767,4.704630421395997
1570180463867411.0,1.9019352641265383,1.0682776565216605,1.2233788238022938,1.0524808270477028,0.9991087263512283,1.078211649221353,2.244642835336854,4.723026302405529
1570180463867411.0,1.9099998789865738,1.0755927366514524,1.229336917628122,1.0569392149094965,0.9961558869868095,1.0677356983835715,2.262256271084609,4.733807097869899
1570180463875568.0,1.9170936623942354,1.0867131154566883,1.2352928737335054,1.0606214046687386,0.9948819436775725,1.0590266714830594,2.285565788316726,4.744238228257123
1570180463875568.0,1.9191229900371658,1.0978936380570876,1.2394446223510904,1.0645171454656872,0.9957003028539951,1.0559682388555132,2.2999580402788364,4.749394691480473
1570180463890296.0,1.9136125003867177,1.1076841195140084,1.2390853427694857,1.070656204918941,0.9968674493415454,1.0504533176965083,2.2920746305174764,4.734021818081976
1570180463890296.0,1.9037578676452154,1.1136721269803165,1.236518067482439,1.0779598441197982,0.998098448354309,1.047407171977594,2.274592840069383,4.702051824851503
1570180463891654.0,1.8921626296851857,1.118113245102112,1.2352442053466497,1.084510275499394,0.9988825997975673,1.0439570480822715,2.2601570945398146,4.667319354132802
1570180463891654.0,1.877690814787494,1.1197839236758849,1.2358385687717175,1.0875264629580332,0.9998771734540441,1.0411834382688663,2.246716874246675,4.630829457241957
1570180463914232.0,1.861974943911687,1.12051061523795,1.2357706531175663,1.089068310727301,1.0004806300722695,1.0337304535353575,2.232285471952017,4.594572754415036
1570180463914232.0,1.8486629014744829,1.1191968268732309,1.2346658118292848,1.088380138933294,1.0014421261372888,1.0277482169019867,2.2167226843212666,4.56154511496771
1570180463914232.0,1.837740295220023,1.118535906120211,1.23234071809023,1.0845675780812483,1.003158390065855,1.0214434347868888,2.2010026588308795,4.527722619404751
1570180463914232.0,1.8260847905795594,1.1168458755530832,1.2293008762861106,1.0806955407640624,1.0069503623965195,1.016722875603429,2.1879909172620744,4.4874871282994455
1570180463927246.0,1.8146561968368824,1.116524850468598,1.2264179544787408,1.0784209367104267,1.0107487969056437,1.0120200702433626,2.178738698943606,4.447791213147336
1570180463927246.0,1.808359693272535,1.1190205363421124,1.2257533427999212,1.0762427705569346,1.0133258908890732,1.0097149249210253,2.1692230837520663,4.417757163195498
1570180463936216.0,1.8088800053536938,1.1263284660092223,1.2255793474236465,1.0754402890044492,1.013364957771265,1.0069527450225328,2.1564399093529123,4.3990418032327145
1570180463936216.0,1.8139954487015573,1.1347247199622466,1.2257207049415026,1.0741897173890773,1.0118309076913765,1.0052052260487576,2.142302606208459,4.388653842136367
1570180463951181.0,1.8197865607990564,1.143868799554544,1.2288608636693994,1.0712813512076462,1.0082999856892636,1.0033449614255674,2.1297788277398504,4.387047975674332
1570180463951181.0,1.8183464637195277,1.1519607418155342,1.2355552573872488,1.0676700142355842,1.0048011792080478,1.0021807151863662,2.1208747213600794,4.3942966411933915
1570180463951181.0,1.8062451353961158,1.162008845261647,1.2431964004261802,1.06454521797147,1.0026744371720424,1.0013586063043458,2.1155317068761104,4.409142500915441
1570180463951181.0,1.790992310958771,1.1726845289726875,1.2512473011275043,1.0613458086432264,1.0042615646435085,1.0009744957277673,2.1138378260136172,4.430655450263771
1570180463974309.0,1.7774275253515732,1.1844008339089422,1.2584620511149502,1.0573695347481127,1.0081859571758351,1.0025979299333216,2.1176072791390474,4.4561143821624185
1570180463974309.0,1.7627385649127207,1.1959962665473018,1.265497156622934,1.0516680651467991,1.0140121766718249,1.007504266388542,2.1248466335685707,4.476125964446424
1570180463974309.0,1.7454222158405983,1.209534007551298,1.272774256201805,1.0469724505806028,1.0197329425160844,1.0179633557133063,2.132427824998747,4.475738175822449
1570180463974309.0,1.7269259874835117,1.2219251400337343,1.2784543851029382,1.0453551847110185,1.0245295042890368,1.0308714316889336,2.1416093847857174,4.449085612964775
1570180463988077.0,1.7104203514447707,1.2343872268277527,1.280756378629703,1.045355108637153,1.0292027254855434,1.0463910135713688,2.153078839929289,4.4146112440786
1570180463988077.0,1.699104910328039,1.2463286868729238,1.2813713099185082,1.0437278315346021,1.0361200787331284,1.0609355809483996,2.1649901843231456,4.38835883463009
1570180463996159.0,1.6905999435258239,1.2584298892100438,1.2807109654495588,1.0402833179032815,1.0429973513966924,1.078757113234752,2.1742772264335724,4.367955317457557
1570180463996159.0,1.6790992134464076,1.2670862970097354,1.2760826044280462,1.035074633870853,1.0498006324884872,1.097066227484662,2.18334178926884,4.3461218216027895
1570180464018962.0,1.6661207715309774,1.272274765479106,1.267031158557868,1.0306898276301484,1.0547595198332886,1.1173455756806125,2.1927795975104654,4.31893525262723
1570180464018962.0,1.657243583139029,1.2709476083713984,1.2578970300843613,1.0283220981807286,1.0583843815236762,1.1339760670240022,2.1989178488285144,4.28251298728971
1570180464019953.0,1.6498976901866829,1.2677545700753454,1.2499535985104913,1.0278582191164594,1.0622618736394212,1.1528282206080294,2.2007705438488694,4.242765147399618
1570180464019953.0,1.638738788039241,1.2653783300369752,1.2431302115388525,1.0275096044059422,1.0686160701533993,1.1713431114602755,2.1996320822466373,4.206258947836141
1570180464034133.0,1.627262752899664,1.263213068160233,1.236043551541781,1.0246595124841493,1.0751852631673493,1.194909437389423,2.1973269853221815,4.1780001019887605
1570180464034133.0,1.6197443808041396,1.256132347875105,1.2279596049142676,1.017698329503711,1.0829560304755816,1.2171047295051374,2.1968771893318584,4.159695295256133
1570180464034913.0,1.6143131900517596,1.245431064248514,1.2177569040239051,1.0085780132465092,1.090469032409173,1.2423136735154077,2.1950006701938967,4.147370543579981
1570180464034913.0,1.6102737723587375,1.2337578445294388,1.205961983295215,0.9990014799011742,1.0957102274280361,1.2650527788374903,2.188045892725816,4.139831855886235
1570180464047980.0,1.6093778551827327,1.2242182766025034,1.1954093616150665,0.9901307993852793,1.0977507501922243,1.2896545192336415,2.177919498228787,4.143748012473871
1570180464047980.0,1.6107087121907073,1.2140639893388425,1.1878941628379094,0.9816349641742619,1.0986973325763136,1.307813618271185,2.1656527270131734,4.160952357749016
1570180464055903.0,1.6117049825084266,1.2057421906757047,1.1819139424038627,0.9751085165143762,1.0978888327047558,1.325862270884681,2.1511001235230487,4.191404875975225
1570180464055903.0,1.608528061511061,1.1968720268394133,1.176755263279521,0.9720037396635641,1.0975154671543823,1.3425903843034956,2.1362527172352537,4.222013788148267
1570180464078796.0,1.600500686539037,1.1864896305844987,1.173234179345572,0.9731113848034458,1.0986527774644268,1.3660897997701473,2.1189377498384716,4.230089227553221
1570180464078796.0,1.5891607131293597,1.175630296819492,1.1721909804364041,0.9765035729180241,1.1034502289828731,1.3885142659896454,2.097280801872759,4.21497714984731
1570180464079793.0,1.5752013940267124,1.168419985496819,1.1701089078393372,0.9816559621051566,1.1089805424945518,1.4154742723785612,2.0761346346398906,4.193268758247131
1570180464079793.0,1.562318030415791,1.1645434217623507,1.1648332203996956,0.9878878637772436,1.1123661273577543,1.4415772484898584,2.059449530226314,4.177014777660521
1570180464094092.0,1.5540262674354106,1.1641228289829455,1.1595874845136702,0.9936122148475606,1.113045211877228,1.4733495649113006,2.046955155989692,4.1607121894616235
1570180464094092.0,1.5512613762929102,1.1637045731482945,1.157159429425559,0.9984246594079724,1.1151376423051191,1.4984279182524947,2.0346681559301314,4.127269945638513
1570180464094757.0,1.552871475895264,1.16525295122173,1.1559624736322134,1.0061781259102165,1.1180558422561613,1.5215385634068517,2.0185561258059757,4.08344401426356
1570180464094757.0,1.5561752064776209,1.1677966840546852,1.1552681987081366,1.0175267696447468,1.1216521818743888,1.5429921820367187,2.0009435602843575,4.039307327028214
1570180464116692.0,1.5592664040219921,1.1714714659954883,1.154847440893794,1.0322333491024303,1.1251672395921992,1.5746444825288748,1.9846801987599476,3.993788688246045
1570180464116692.0,1.5613839559085054,1.1752166702771596,1.1548387352577825,1.0481644632234235,1.1296415822947579,1.6087993650330465,1.9730133715423481,3.9488684000566696
1570180464117528.0,1.561637941669869,1.1806711429427856,1.1539302278969026,1.0638916218460426,1.1352512727493738,1.6510897657120691,1.9665131754039802,3.9057300365423737
1570180464117528.0,1.558946053433811,1.1838343948349868,1.151474043900108,1.0783791985305529,1.143523333257738,1.6930248331799491,1.964493261175491,3.8622523177301695
1570180464130892.0,1.5566468526379231,1.18515783623564,1.1463358355177202,1.0924354823261666,1.1529735294491041,1.742060957089671,1.9675820357469007,3.822920395471004
1570180464130892.0,1.558015771821808,1.1838657529736167,1.1381591040579915,1.1056223706280568,1.1623486808886054,1.7893370190949556,1.976985374646538,3.78604353771205
1570180464131654.0,1.562950731923474,1.181910307878627,1.1299872399434012,1.1185333266370585,1.1705376002028574,1.8420972066126622,1.9909109362541597,3.749284514918134
1570180464131654.0,1.5703153315549159,1.179334022474281,1.1245539204618558,1.1305510867142905,1.180350281693381,1.8930667973328679,2.0088629939467486,3.717492730667081
1570180464153741.0,1.5765612594063012,1.1793272052076476,1.1201370746080885,1.1411410820134027,1.1892299940988587,1.9513042969184955,2.0310643153799197,3.69543975640322
1570180464153741.0,1.5811438319302586,1.181134633586275,1.1139295869491819,1.1493459268028574,1.1968242704176688,2.0096077674586805,2.057664975477884,3.6813573391987924
1570180464154601.0,1.5876440761739128,1.1831688256255495,1.1042048982531063,1.1566547326844063,1.2045226302864884,2.0754937737883234,2.0863153719602807,3.677905956905183
1570180464154601.0,1.5915686589455325,1.1784510504095012,1.0935962009177354,1.1602089107592586,1.2122456710625464,2.140949880979981,2.109087389619686,3.6730300896190036
1570180464176691.0,1.5865676696809827,1.1688573898575771,1.0847232378299838,1.1588839930091501,1.2157402268497557,2.212410540817459,2.115164639777973,3.6465270153290725
1570180464176691.0,1.5747892018431286,1.158294477258523,1.078485356589569,1.156075610148369,1.2182195722185736,2.28092917442533,2.1103741573576653,3.604248225104641
1570180464177531.0,1.5611816842742219,1.1498668970122257,1.0744286027740286,1.1534807980022026,1.221321531315249,2.354960115827864,2.1031805982280685,3.5604657065094285
1570180464177531.0,1.5481658680335242,1.1407268464884264,1.0725551958693391,1.1498323536713504,1.2245862871088014,2.4282941161874807,2.0988190104919986,3.5194014556079014
1570180464190876.0,1.5364798863926072,1.1333958678866896,1.0713342828491548,1.147869170616423,1.2277067757103426,2.5083998532802645,2.0990472539095575,3.4852538856697444
1570180464190876.0,1.5277756667003222,1.129172550826809,1.068982812045015,1.1485131146380287,1.2334512274820433,2.590448178584249,2.103155084718264,3.459554171349808
1570180464191499.0,1.5217417917559803,1.1290678611716458,1.0635502509655892,1.1517345843004463,1.2414623160882938,2.6812107084110206,2.1114312975006166,3.441243757923683
1570180464191499.0,1.5159288855197601,1.1304672531656097,1.0558305351765742,1.1567374833322137,1.2521459611618844,2.772195532895532,2.1238942337747497,3.418379733655663
1570180464214434.0,1.50975731796781,1.1357127486052692,1.0477008481954744,1.1626767356879177,1.2634125479145162,2.869216426007721,2.1359279066571837,3.3832134895714976
1570180464214434.0,1.5026019054486603,1.142181307353503,1.04035127988148,1.1681883295831592,1.2754188161423246,2.9664984209824206,2.1497656553751976,3.3404840525415644
1570180464214434.0,1.495756621618731,1.150465111448078,1.0345055600078743,1.1727700797155673,1.2884860666422393,3.0646328819815727,2.1652249005330466,3.296614814907252
1570180464214434.0,1.4924228829141812,1.1586732563358948,1.03123051614074,1.1753791699290104,1.303854671984535,3.1534011618769546,2.1813786208869312,3.2523981934565653
1570180464236583.0,1.4934683577536907,1.1672361075423094,1.030029699176925,1.1767135890550346,1.318192793690918,3.2377582784336867,2.201508965501931,3.210013900927656
1570180464236583.0,1.4982046037254704,1.1738993751976625,1.0310148640419503,1.1766216522383224,1.3301313163717698,3.313580384213127,2.2261232308683505,3.173372392245428
1570180464237463.0,1.5068665878322183,1.179962676163477,1.0327762481042784,1.1766743208269417,1.341256899000023,3.377778413268982,2.2487067144144364,3.144415250625436
1570180464237463.0,1.5167755732801649,1.1850015115294796,1.03592151370325,1.1772648827951193,1.3494509938188601,3.4072961775891883,2.2594281228533677,3.1241105322144604
1570180464250334.0,1.5248323694040133,1.192706064374231,1.0409506889352171,1.1786209660469809,1.34952725611117,3.393630303430965,2.2516240979198967,3.1151530783157058
1570180464250334.0,1.5331130971872493,1.2017262471495662,1.048103105854125,1.1804015018718452,1.346415817091922,3.3634629834473353,2.2389142153695736,3.117740052090254
1570180464251417.0,1.5443387220501823,1.2142460431064361,1.0577877576912784,1.1839455233812983,1.3418749921109177,3.335314090747102,2.231317412817912,3.128282017062695
1570180464251417.0,1.5582733529661563,1.2282888429325136,1.0695837264778245,1.189296722189151,1.3354833230181535,3.3032360943202526,2.2293312294103353,3.1383185947499332
1570180464274310.0,1.5739448819175446,1.24392375729626,1.0797899974782321,1.1942545682847892,1.3288532788724665,3.2623582755364016,2.2306826399651007,3.147441106313827
1570180464274310.0,1.5889860230341406,1.2551263487025273,1.086578200603845,1.194958934592865,1.3238825347991485,3.2189204308193116,2.2319542415676867,3.1625354181802248
1570180464274310.0,1.6040337318271245,1.260004520015604,1.0906303934103052,1.1919276366462066,1.317795763581318,3.174367973811472,2.232404214658091,3.1858268846653104
1570180464274310.0,1.6214500505653735,1.2599421306842042,1.0955741430972998,1.188163075284067,1.3103680912332056,3.1341344485573215,2.2388457534611956,3.2152652778619424
1570180464296262.0,1.6390386953027174,1.261210067731875,1.1021496236616632,1.185531237126729,1.3021387270006315,3.0962856567899264,2.2525048051858585,3.2487873412011594
1570180464296262.0,1.653742769863609,1.2629744941481527,1.108101390189822,1.1834250860391102,1.293370430867218,3.0601350311252244,2.272323189389482,3.2873230013626205
1570180464297247.0,1.6644568807060367,1.2676480360875768,1.1107006038290546,1.1820596977000033,1.2825864323189942,3.018442039984411,2.294786592748284,3.3287587414809776
1570180464297247.0,1.6701675690132534,1.273739064385123,1.1120627629851048,1.1809396131541934,1.2683900839753939,2.9770562417344957,2.314304668357488,3.3535264688269057
1570180464310175.0,1.6709997422432221,1.2785381225805388,1.1123968121148333,1.1792647280076427,1.2527120206350286,2.9299050137620375,2.3230167924138643,3.3472541762011128
1570180464310175.0,1.6706814699988213,1.2796892591770892,1.110464996565919,1.1758725913738157,1.2384352267783802,2.8799593395843406,2.318481025669079,3.3236152929650222
1570180464311273.0,1.6748345524969728,1.2846041972338116,1.1086217191362138,1.170183093776412,1.2230388026097962,2.822255118092579,2.3053617221368436,3.3002087208674578
1570180464311273.0,1.6828085554526206,1.2927904758010085,1.109512450510366,1.1613731667867173,1.206989697339199,2.7695419384061792,2.29008610818693,3.2850160222070564
1570180464334111.0,1.6911722143445642,1.3033394689137237,1.1111690257901827,1.1520905800149586,1.1918105773187366,2.719197732171799,2.2738565803453343,3.280074810543154
1570180464334111.0,1.6978710911014054,1.3133792854788104,1.113098119908038,1.1447873231455017,1.1766452686601676,2.6721970163115727,2.261260074343504,3.2823834809352674
1570180464334111.0,1.701475553186995,1.3234141225544496,1.1149913198127395,1.1402531743396744,1.1623055612127238,2.620344489837732,2.254918540504539,3.2888185676686805
1570180464334111.0,1.7009975268783057,1.3310845286355313,1.1171320291192395,1.1378807032635017,1.1507876859650366,2.5709801690609715,2.253510664219437,3.2934134031321203
1570180464356147.0,1.6968433148037279,1.3371300775341497,1.1182007021360918,1.1365580816532108,1.1405555672924257,2.5161555227212435,2.2512088494132128,3.2933312706289843
1570180464356147.0,1.6937049637657877,1.3392148908326342,1.119089049029963,1.1331083241658837,1.1298485371644702,2.4647857187137343,2.246491414766577,3.293758714951292
1570180464357056.0,1.6965061305176483,1.3413497521864908,1.1212981323841646,1.12738645021014,1.1175117156739827,2.411850230134362,2.2414384179888516,3.296581105424781
1570180464357056.0,1.7040854783504784,1.3430951608832877,1.1246910333207287,1.12128582964744,1.1038957045552775,2.365829770596808,2.240886566499193,3.3039719441082958
1570180464371061.0,1.714869927055706,1.3452929586684974,1.1280310747036646,1.1157629341327524,1.0898089691415338,2.3212994962313465,2.246787104774429,3.318602664185871
1570180464371061.0,1.728883572998882,1.3451785277656971,1.1328178797104071,1.1094302130011118,1.0773929983711,2.2842667141885924,2.2613904637351316,3.337341836078863
1570180464371061.0,1.7436528627171535,1.344167853842257,1.1390498900166188,1.1018007134298102,1.0660956318220465,2.2432143843359644,2.284082627071325,3.3562139442332075
1570180464371061.0,1.7579730574353283,1.341850860852952,1.1446121469463917,1.094824586651778,1.0541799155850486,2.207098468161203,2.313644244196665,3.378658359477707
1570180464394051.0,1.7723069702580225,1.3388129080708802,1.1466171918866985,1.0902385837201718,1.041574773832048,2.170670571445825,2.3438001861181315,3.408911461438009
1570180464394051.0,1.7828722935185122,1.3311724700932814,1.1453376969503937,1.0854351520905332,1.0305627028527253,2.1387479499672506,2.3736667504621995,3.437579612821418
1570180464394949.0,1.79050570281271,1.3222124734641612,1.1428966382787509,1.0789715421512678,1.0216183441447995,2.103336114629529,2.4076623137229736,3.456532011236139
1570180464394949.0,1.8003093106680421,1.3149805673361172,1.1410484778788534,1.0717845899985916,1.014739672171144,2.074145169046108,2.4475949318905226,3.47431796976184
1570180464415900.0,1.8093274940864201,1.3118789758378913,1.1372649841150237,1.0639320905038212,1.0063845913326026,2.0444533231918296,2.481116316731522,3.4870922781609295
1570180464415900.0,1.8128366146736523,1.309252455190303,1.1325145641851626,1.0543595522904878,0.9954282337065562,2.020833941669177,2.4971156244369372,3.483951458441193
1570180464416969.0,1.8138727500657337,1.308297751071068,1.128150090948111,1.0444699801551471,0.9837604729926749,1.9922294305875665,2.501435475725504,3.470713272601906
1570180464416969.0,1.8165733339223578,1.3088258023611887,1.1232675994555967,1.0349259453085298,0.9728382351147981,1.9653977145479289,2.504287096571357,3.4583830286686013
1570180464430860.0,1.8218199424779116,1.3134013888667893,1.1177414856398549,1.0259573988671002,0.964377090409299,1.9344841992097626,2.5033428410974645,3.451321466036036
1570180464430860.0,1.8265737548904288,1.3187497089185165,1.1117172681299277,1.0184591970155887,0.9604292369537797,1.906857911257749,2.501972399603821,3.4494502465303065
1570180464430860.0,1.825181004457987,1.32437474888817,1.1042090089289078,1.014457760961852,0.9590672061879217,1.8762071856844018,2.5038305320198804,3.4536041766276546
1570180464430860.0,1.8193022228909357,1.3283908764192944,1.0978085396082202,1.0132396453717916,0.9599150633583713,1.852879212791735,2.508690766255529,3.4677165443353064
1570180464453792.0,1.8168455842978135,1.3328115107422034,1.093667409596424,1.0140229553972064,0.9633303520676908,1.8286898354357066,2.511857715884904,3.49181235414961
1570180464453792.0,1.8188869868886977,1.3369409775643517,1.0916613761493545,1.0174296800601816,0.9694210963570714,1.8092305758243306,2.5150501486947823,3.5205648789458746
1570180464454788.0,1.8222311612188122,1.341372470733316,1.0908829058579423,1.0229576407246452,0.9763284259797618,1.7889638535885068,2.5243603137056194,3.548588084232883
1570180464454788.0,1.8248986032126857,1.3389178435613431,1.0871919340447587,1.0251492081760294,0.983406441731358,1.776067152998947,2.5419097050893305,3.5652173741938276
1570180464476766.0,1.8265232430862426,1.330955569132324,1.0766065541355394,1.0227499502369033,0.9871934106106564,1.761854596493355,2.5615853167288027,3.5589675042215627
1570180464476766.0,1.8265003836530547,1.322439035076313,1.0636947577681461,1.021095977904835,0.9885734009515036,1.7525959944250304,2.571163672432593,3.537310595930894
1570180464476766.0,1.8255955500550816,1.3172741169489703,1.0525736227574551,1.0224588443701286,0.9903105704181165,1.7425446474557549,2.5629339306701793,3.5087298045619484
1570180464476766.0,1.826550404943192,1.3138959720411991,1.0427874992191017,1.0241226236709466,0.9945952353107385,1.7389675154513935,2.547029523568958,3.475270420663187
1570180464490691.0,1.8300979230768846,1.3136633311929689,1.0329060464835798,1.0254015382761847,1.0003280237588312,1.733977687774293,2.52701893788068,3.443787131135863
1570180464490691.0,1.8353683656197948,1.3132159985681184,1.022191675214892,1.0240694479537553,1.0080975912328636,1.731177312524804,2.501833093676125,3.421943777962176
1570180464491692.0,1.8421912106531617,1.3134768028243056,1.0096896539290925,1.0201911408263689,1.0168428679463277,1.7259723482167475,2.4784554323584302,3.409776216284791
1570180464491692.0,1.8497777672732452,1.3123662410714174,0.9970963238152311,1.0166454654712413,1.0261478441289318,1.7279416011390685,2.464634607572841,3.4019193857841623
1570180464514242.0,1.8565186745615312,1.313015730834679,0.9860521410502976,1.0140750658217297,1.0346163458103022,1.7293117974714234,2.46075014562766,3.390231478859315
1570180464514242.0,1.8639329466735293,1.316548645035992,0.9775298999182939,1.0100921917795729,1.044203660412961,1.7322088853601991,2.464596844076916,3.3729823176374856
1570180464514628.0,1.875357526326716,1.3243453342470302,0.9709745511630148,1.0044156322061624,1.0536697741893997,1.727932067380299,2.4723941950337966,3.3604252365744585
1570180464514628.0,1.8910411159005711,1.3319962251352278,0.9665942568999647,0.9981162772462533,1.0631055830289244,1.7235312624197485,2.4837669490329493,3.3567729333259093
1570180464536654.0,1.9106445695086227,1.3384324762712443,0.9639093542847926,0.9934244824078806,1.0726750167038912,1.7143245667665332,2.4969244758551072,3.3564764118919825
1570180464536654.0,1.9325013776144622,1.3420868968332924,0.9631556463026879,0.9906890701666343,1.0816986124723682,1.7084577808816817,2.5106043979671084,3.3610758557342444
1570180464536654.0,1.955257280466435,1.3467761797359672,0.9638236193407091,0.9899629486833175,1.0882124512887648,1.7023227211180996,2.523611002369331,3.3706890552704425
1570180464536654.0,1.9775195653773412,1.35175510538077,0.9660473853706975,0.9907585690919792,1.0954920731642235,1.702909382040021,2.539930555837211,3.383505335950993
1570180464550532.0,1.9984765701572031,1.3598996068031386,0.9682493102106151,0.9931189368550242,1.1031271191196526,1.7009357410337327,2.561594546261203,3.3993811494870165
1570180464550532.0,2.0195256645813453,1.3705878630696575,0.9702573492679172,0.9954003669739571,1.1117681159253983,1.6984324381446956,2.578125808719666,3.4059360095426117
1570180464551557.0,2.0414480485934616,1.3846998101015198,0.9730768381126168,0.9960415112888855,1.1198792080072522,1.6848488848094256,2.5796922819413854,3.3952544428887155
1570180464551557.0,2.0642308134986407,1.398288900140591,0.9785734171105059,0.9940753800288928,1.124301464472783,1.6686277272966317,2.57920489395286,3.3862387467896222
1570180464573470.0,2.088867817890791,1.4113730799162283,0.9844234225468592,0.9891759992723448,1.1239341224320063,1.649348576031259,2.5866524744174577,3.3907265498279235
1570180464573470.0,2.114782401338382,1.4221966333381777,0.9895731426125455,0.981769292375077,1.12298389342518,1.63600332299697,2.6013980288000775,3.406575224041183
1570180464574544.0,2.14058194490309,1.4326459537289609,0.9947755132223948,0.9755139078052218,1.1211657971509699,1.6232478759345772,2.6224193835413394,3.430923364703333
1570180464574544.0,2.1663891834257996,1.4404000979745488,0.9999789066830609,0.972601136296396,1.119302952163092,1.61618707332902,2.65047671225132,3.4640132911194885
1570180464596408.0,2.1907833248709796,1.4482174639311993,1.003571102882148,0.9735679473286524,1.1172600890553657,1.6045765033588097,2.680658502850943,3.5051653713896314
1570180464596408.0,2.211481562093244,1.4546553747465596,1.0040901963303892,0.9764107818415778,1.113549424614685,1.5962988021237574,2.6993224802006672,3.546878673303855
1570180464597431.0,2.229569181814065,1.4598352859078505,1.0002060663583066,0.9793726433225782,1.1073139341597564,1.5845072588482496,2.6900699294956847,3.583893786329729
1570180464597431.0,2.2452160099341,1.4644510331768479,0.994339856497984,0.9812823527567084,1.1014380947209432,1.5690551501066974,2.658974072953821,3.624760404435437
1570180464610526.0,2.2586355318938827,1.4731921598332898,0.9882379386136512,0.9815780335205596,1.0958917248445532,1.5411524234093126,2.6244926854834256,3.675761560466375
1570180464610526.0,2.270983235905838,1.482637981443882,0.9840329965734715,0.9793190601838612,1.0912085872301005,1.512755149738175,2.595543572333215,3.736631507894874
1570180464611732.0,2.284364215230633,1.4919482547126401,0.9816132823461394,0.9751708090550493,1.0867634117626093,1.4818875558729947,2.5729119087345604,3.8036049239761596
1570180464611732.0,2.300655891994031,1.4982816302766395,0.9808517753033474,0.969206920380766,1.0842709030211644,1.4569467707443278,2.5576194967329053,3.872824489404855
1570180464633470.0,2.3185148420192117,1.504056843255688,0.9798388105495658,0.9640686068196883,1.0835282550833758,1.4304758177754173,2.548974691753233,3.941168542290966
1570180464633470.0,2.336506455784987,1.5101567861789706,0.9772805086254526,0.9609007121104357,1.083867425534746,1.4101057470956662,2.548349265084657,4.008334357259044
1570180464635306.0,2.3540429435491395,1.5184208928427445,0.9727790097442296,0.9595334462647964,1.0837736032434755,1.391025370789752,2.5558249022116066,4.070037741622404
1570180464635306.0,2.3685675068137493,1.5249870574927002,0.9694473194309683,0.9583631194436356,1.0841937587501203,1.379973800741762,2.5705753601716474,4.114734705134085
1570180464656404.0,2.379751369344464,1.5299842252457918,0.9681418719055475,0.9569682962904648,1.0854616889833868,1.3681635317505478,2.5909230880676484,4.138450964563579
1570180464656404.0,2.39029805571003,1.531829987272327,0.9688549024733807,0.9551476880831133,1.088743680328348,1.359730354954392,2.6173580544608095,4.15832027806276
1570180464658244.0,2.4007106121256223,1.5326491585846291,0.9708804925816134,0.9535759766965265,1.0917875752681143,1.3502694676274603,2.649049047381218,4.181394850614402
1570180464658244.0,2.411998719612425,1.5310710507580811,0.9743808434161133,0.9538209301870426,1.0932241220495642,1.3464495287763445,2.686318683325585,4.206345485442194
1570180464670466.0,2.4263784045513694,1.5288390466659016,0.9776218612004863,0.9552897083499837,1.0898983840822662,1.3408593363696746,2.7261468694040514,4.234364574330232
1570180464670466.0,2.4423050718348596,1.524543661628309,0.9809276452038321,0.9550029716012312,1.082994175953773,1.3373897651929771,2.7666280694098075,4.265129193163893
1570180464671216.0,2.458351519602233,1.5196532325653345,0.9859849976839599,0.9552605238420869,1.0763870606938328,1.3319453240705974,2.808600450297732,4.29688801640516
1570180464671216.0,2.4736820272579987,1.5122260124449536,0.9928576897125955,0.9572447925892064,1.0727356848460405,1.331656890803681,2.854423697495792,4.328253488877222
1570180464694154.0,2.48536386760444,1.5059180278458943,0.9978705475141287,0.9611020705084496,1.0698133218686234,1.3298246772057623,2.9018805337210796,4.348236663359474
1570180464694154.0,2.4919250454295914,1.500612465677131,1.002327135160122,0.9671551500526976,1.0683908001788254,1.330296705714656,2.946631259483832,4.344179558512369
1570180464695147.0,2.4961369639740574,1.494755432952383,1.0085325489111785,0.9748297998036306,1.0673839728935335,1.3280103594772703,2.982629388921533,4.321380494483546
1570180464695147.0,2.495807835718384,1.48401473443673,1.0156428546382443,0.9806300932045082,1.0666770486517816,1.3262489131279307,2.9968535082832592,4.2921729138571605
1570180464717311.0,2.491933484012747,1.4716611642617985,1.0217368065674781,0.9849544317081179,1.0665875130857811,1.3169705576247792,2.9814805431399973,4.260827210031778
1570180464717311.0,2.493101911929905,1.4596813537636135,1.0287740604980857,0.9883237163794147,1.0672179371893213,1.3065660457334227,2.9558694189854386,4.2371459584670035
1570180464717311.0,2.498145500143588,1.449929553377888,1.035596000264828,0.9900713880282447,1.0658632041472584,1.2942644638762208,2.935623371056154,4.222823383580626
1570180464717311.0,2.4989478642719036,1.4394500563101664,1.0423626780461246,0.989283469042397,1.0627703704493738,1.2859226303668585,2.9187394178230215,4.212865235863761
1570180464730158.0,2.49532563712707,1.430400976846263,1.0498753697596124,0.9870706468579836,1.0576385983603376,1.2759041970990714,2.9008767776158155,4.209178201673124
1570180464730158.0,2.4915033781386904,1.4215892869393458,1.059006390466141,0.9852450943490998,1.0524441838042866,1.2689128309061724,2.884218564988631,4.212438579090421
1570180464738030.0,2.4897208667202526,1.413477739993099,1.0679782494334815,0.984509415540437,1.047105509951434,1.2603688926214904,2.870214188224968,4.221512717224891
1570180464738030.0,2.489854002740452,1.4053814342500042,1.0781641218320988,0.983674656711796,1.0412934410132957,1.2549340283734218,2.856912065270183,4.241410671928293
1570180464753988.0,2.489184317952194,1.3997726390403036,1.090373879564269,0.9851743368919509,1.0347424941628747,1.2472731074686587,2.843212428883808,4.271351801551145
1570180464753988.0,2.485432865673251,1.3958339678791591,1.1038180972912799,0.987366210440893,1.029285844756704,1.2412756798482176,2.833295835576952,4.306505528510141
1570180464753988.0,2.4787577041627507,1.3949710633544925,1.1158678596593612,0.9880864432811961,1.025146131159091,1.233709785693083,2.8316842084464566,4.333325641630209
1570180464753988.0,2.4712839075785915,1.3940228978626865,1.1266925026934282,0.9879918264153411,1.023730519417396,1.2286782655646733,2.8382656038415797,4.344597600582823
1570180464776718.0,2.4660275580629945,1.3944464099076999,1.1352008069525292,0.9896135757224552,1.0239273299300846,1.2231371647274873,2.851661472335168,4.354968303654975
1570180464776718.0,2.46579186736821,1.396189145546695,1.1430745747867606,0.9929665006251233,1.0263768200664967,1.222244557300328,2.8650003638915726,4.37414926802608
1570180464776882.0,2.4722862241145944,1.4016404088722123,1.151220156941837,0.998240041398638,1.0300603893648368,1.2217952684702584,2.87075702872504,4.401238032994703
1570180464776882.0,2.4830279071413934,1.4073278082506184,1.1583237360325003,1.0047773969235516,1.0356222172237217,1.2241924645555513,2.876389071191727,4.427568159993611
1570180464789762.0,2.495366448451772,1.4128021572995773,1.1631460356442351,1.0130677718763192,1.0418659986902423,1.2260494769862893,2.8904126151846667,4.444688350456005
1570180464789762.0,2.5089757250373883,1.416089959587933,1.1688632551069158,1.0231907013133432,1.048253390590161,1.2304998330961014,2.910818960830289,4.462939306188665
1570180464797894.0,2.5207986197554355,1.4180179683812135,1.1745678826234847,1.0338210815895037,1.0523670268975798,1.2355246956978312,2.935756284642225,4.483018367077017
1570180464797894.0,2.5268637962607743,1.4167240528670537,1.1790770989519261,1.0431830981474917,1.0558880281815808,1.244646339055253,2.9560155162815023,4.487554785868208
1570180464813759.0,2.53125274356398,1.4170956514527464,1.1828986951211333,1.0530962878088648,1.0589099945126292,1.2504384185020527,2.9510252276851334,4.472500189726166
1570180464813759.0,2.5381693375260523,1.4202264716339157,1.1884159233992733,1.062676344604051,1.0621039071680012,1.2515596050284048,2.919478025441577,4.45587078428604
1570180464814756.0,2.546259857527608,1.4259395200073552,1.194721697431197,1.0724831665777896,1.0637713191998206,1.2492605508070251,2.877031347994528,4.446745698442211
1570180464814756.0,2.554397532997924,1.4300533663878652,1.1998325079116743,1.081290894296346,1.0657921796570082,1.2517131844885008,2.830719855311802,4.443438564896352
1570180464836496.0,2.5626245202234412,1.4332360317827775,1.2023754811699592,1.086674340664578,1.0701431832858725,1.256309049826542,2.7841746808665957,4.444346396703156
1570180464836496.0,2.570406398367506,1.434851457168597,1.204618069114273,1.087613192356812,1.0773013732133836,1.2617700108330836,2.740923496508342,4.4464108762875485
1570180464837493.0,2.57646402373198,1.4393498570191505,1.2061927715980547,1.0864221905459608,1.083900970219661,1.2641489815705205,2.7023401789437766,4.445652160282264
1570180464837493.0,2.5797011250959185,1.4454827583227754,1.2055791407950684,1.0835668445810573,1.0895825608274596,1.267788530941887,2.667510406905779,4.442390993658226
1570180464850898.0,2.581047689047071,1.4540765413914316,1.2027293957189626,1.079698478193192,1.0946920479423226,1.2697667604811358,2.628100072652616,4.430242430828896
1570180464850898.0,2.582868034077976,1.4628021281897277,1.2003099204798913,1.0755757383364524,1.1033085586727427,1.2683869180194918,2.576407097446141,4.397549146870722
1570180464857887.0,2.5880188918707057,1.4723883275169105,1.197371443188731,1.0723374789203395,1.1150804536674013,1.260250894864205,2.5221527564564785,4.353966933576369
1570180464857887.0,2.597020756104259,1.4816519113850928,1.1951359809329283,1.0693640422489126,1.129051957406698,1.2522063927103289,2.475327357043973,4.308649721903576
1570180464874063.0,2.607470221314679,1.491766213567597,1.1950604702965637,1.0672776170774305,1.1435134404248704,1.2462728474943705,2.4370261135246425,4.257331006575869
1570180464874063.0,2.6169035253727135,1.5011601853198133,1.1985950150156812,1.0668229411011199,1.1599048829562877,1.2456247500375142,2.405169379622515,4.2100506951397465
1570180464875057.0,2.62458422923663,1.5135174607125994,1.2037442915462109,1.0698622957433472,1.174344911170231,1.2444922825052702,2.3790696722698415,4.173954742485485
1570180464875057.0,2.6289074609963734,1.525548939423794,1.2086536950492732,1.0746325966637753,1.186201788925431,1.2407234932928146,2.3584741835363054,4.148692051547972
1570180464896075.0,2.6272840455141298,1.5360945758705093,1.2113348598451155,1.0785928118176296,1.1962492528875859,1.2324000727151179,2.342654588503932,4.13262397424757
1570180464896075.0,2.6182501836610714,1.5443679715054996,1.212420530139471,1.0815778932411502,1.2052558817073038,1.2245261397182934,2.331289006225443,4.117717559797844
1570180464897010.0,2.6049946994340214,1.555391502496883,1.2129480248634725,1.0862520425907682,1.2125452831777195,1.2162274316636152,2.326588686262359,4.1032253636002824
1570180464897010.0,2.59304841287992,1.5684385861439325,1.2140830710637462,1.092528114446042,1.2186366697382973,1.208661597291665,2.3276604779272465,4.093878577393087
1570180464909970.0,2.582251398445906,1.5832464074809132,1.215093849294953,1.100363732106066,1.2207814346551678,1.1996669258997497,2.322888634370487,4.081235477861708
1570180464909970.0,2.5700915792703176,1.5971286586927824,1.2163094357709574,1.1080430950506603,1.2190357306402302,1.1931386124279746,2.3025286226709456,4.061166604919289
1570180464918039.0,2.55748229382215,1.6111259889888496,1.216349818003299,1.1154372956444716,1.214969543110469,1.1866251261296785,2.275936818488739,4.042629434956047
1570180464918039.0,2.544173266580032,1.6214506238048,1.2166263184224622,1.1225025666288764,1.2129120926696555,1.180524319118387,2.251065983666431,4.029116736392957
1570180464933919.0,2.5270553492416967,1.6300774617224008,1.2184506614530175,1.1308326680775564,1.210677610421509,1.1753772533444458,2.2261956618685224,4.015997482192317
1570180464933919.0,2.507101336087046,1.6373276405415982,1.2222916975615392,1.1402806351434827,1.2077069584828717,1.173589108980688,2.2011043187639947,3.992511557902041
1570180464934917.0,2.491173199326681,1.6451996657674604,1.226035851125316,1.1498621289242088,1.2056370082268202,1.1752631014389012,2.1788945749369124,3.9534404087067605
1570180464934917.0,2.4805587928283783,1.6517369089362,1.2296869010454672,1.1584353253761945,1.2059326044121224,1.1823486256394555,2.162620839808482,3.909333511423058
1570180464955931.0,2.4725569283305906,1.6582318762843753,1.2334983360299425,1.1664825965260894,1.2040243082692856,1.1933502273318988,2.151397180408599,3.8723339296709893
1570180464955931.0,2.4672217039050084,1.6620645161591379,1.2360515108471655,1.172518550079549,1.1993129294932472,1.205555094360349,2.142256859792069,3.8356396780328894
1570180464957283.0,2.463997507479311,1.6649615666871935,1.234769846771776,1.1765510151218659,1.1948174191209766,1.216726845489951,2.1372620373822344,3.78786709286167
1570180464957283.0,2.460009940419,1.6661950137654151,1.2314553102355703,1.1784857008642597,1.1919041346576589,1.227879634511016,2.1404818354041595,3.7410800369347417
1570180464970018.0,2.454658719033961,1.6686865077571713,1.2266191903186194,1.1789648677051778,1.1866113925927801,1.240158045715244,2.149517742731328,3.707473892232663
1570180464970018.0,2.4486351091976313,1.6707656722328719,1.220810513781304,1.177587688927873,1.1799864848660073,1.2533246721643123,2.1605957005816068,3.683398536295177
1570180464978058.0,2.4425473408652465,1.673084770937151,1.2137208218250963,1.174182213053694,1.1736727792142072,1.2667863544798383,2.1747486749759717,3.663846590793332
1570180464978058.0,2.437527078879257,1.6749735088483273,1.2062486606539669,1.1701809771249612,1.1702286816927465,1.2801689218554317,2.195279708796944,3.6514789141932775
1570180464994337.0,2.43391538880447,1.678639540391877,1.1993331574677077,1.1684246229472857,1.1701009383028573,1.2961287897409268,2.223666728884452,3.6498205654233042
1570180464994337.0,2.4307459541799687,1.6823805492690704,1.1952618474055983,1.167546558232062,1.172904815935348,1.3149518686013721,2.2607753445982457,3.658467404166783
1570180464995012.0,2.4265985855257215,1.6887089093327976,1.194458195825787,1.166974691824438,1.1756033556817087,1.3384132381178064,2.3036764638278706,3.6739013348189116
1570180464995012.0,2.423695989539036,1.6952718012602312,1.1956439014342564,1.166202717713938,1.1783626401518168,1.365448919792948,2.3507268395105467,3.6968716419322476
1570180465016064.0,2.42515499528789,1.7014212852450772,1.194191214215225,1.1646444591584577,1.1805071707667,1.3960029152912445,2.4012875737269397,3.7306075245663397
1570180465016064.0,2.4296711985633923,1.7065138450339865,1.1909238218447433,1.1622625053297724,1.1826580347364362,1.4289833608852953,2.45453155707092,3.774293704042423
1570180465017387.0,2.4328794472683324,1.7134350149535447,1.1887559353691504,1.159114501948975,1.1828100428173665,1.4623418452361763,2.5063764777891313,3.8245347047566542
1570180465017387.0,2.4308172642359187,1.7186394240922422,1.1882271983543413,1.1534660930481972,1.180195517273712,1.4877377007728536,2.5389472603085137,3.8740329291192857
1570180465030029.0,2.4275246110561515,1.7244757070379655,1.1886650291735992,1.148576144663334,1.1740514074460695,1.49794461232397,2.5398652959871324,3.9177207000201735
1570180465030029.0,2.4272702022850883,1.7305560796890598,1.1900832055657582,1.1461906102602089,1.1670640358081992,1.493009943272662,2.527974458121742,3.966534735850977
1570180465038047.0,2.429014246809758,1.7365537389656078,1.1911805244145022,1.1457076921022955,1.1615093284479212,1.4816252751058503,2.5194117083193928,4.0233565468085475
1570180465038047.0,2.4324200244679965,1.7415593728683059,1.1927810281364037,1.1442423508216655,1.1590687193701574,1.4703047615786637,2.5134504916677676,4.07956784844884
1570180465053961.0,2.4367288475692863,1.7486274086945273,1.1948249622674738,1.140010441927042,1.1573233392065356,1.4597547638094903,2.508821655722881,4.1318762539615355
1570180465053961.0,2.4414616612677555,1.7547919198899247,1.199812839923537,1.1346564105255965,1.1563949269950728,1.4481246060788102,2.5095388406657277,4.178468156960213
