timestamp,emg1,emg2,emg3,emg4,emg5,emg6,emg7,emg8
1570180417685185,-1,0,-1,1,2,-2,1,1
1570180417685185,0,1,2,1,-1,-5,-1,0
1570180417685185,0,-1,-1,0,-1,-5,-2,-4
1570180417685185,0,-2,0,0,-1,7,-1,-3
1570180417686181,0,0,-1,0,-2,-11,-3,-4
1570180417686181,-2,0,-1,-2,4,12,3,-4
1570180417687257,2,-1,0,0,1,6,1,10
1570180417687257,-2,-1,-2,-2,-2,-14,-3,-1
1570180417692174,2,0,0,-2,-2,-6,-1,2
1570180417692174,-1,0,-1,-1,1,13,1,0
1570180417705180,-2,-2,-2,-3,-8,-26,-5,-8
1570180417705180,-2,-1,-1,0,0,1,-2,-1
1570180417714111,-3,-1,0,1,-1,0,-2,-1
1570180417714111,1,-1,-2,0,-2,-4,-1,3
1570180417720092,0,0,-1,0,3,11,4,-2
1570180417720092,-1,0,-1,0,3,23,7,2
1570180417729113,-3,-2,0,-1,-3,-35,-13,-4
1570180417729113,0,0,-1,-1,0,2,5,1
1570180417752059,0,1,0,-1,-1,-4,-3,-2
1570180417752059,0,-1,-2,-1,0,0,3,1
1570180417752059,0,-1,-1,0,-3,0,-1,-3
1570180417752059,-1,0,-1,0,-3,-4,-1,1
1570180417775439,-2,-2,-3,-1,1,-2,0,-1
1570180417775439,0,0,-1,-1,-1,-5,0,-1
1570180417775943,0,0,-2,-1,1,18,4,5
1570180417775943,1,0,-1,0,-3,-10,-6,-9
1570180417812990,2,-1,0,-1,-2,-3,0,9
1570180417812990,-4,-1,0,0,1,1,0,-2
1570180417813842,0,-2,-2,0,-1,-2,-2,-9
1570180417813842,2,2,1,0,0,0,0,5
1570180417814950,8,4,-1,-2,2,0,0,2
1570180417814950,-18,-8,-2,-2,0,-3,-3,-2
1570180417820262,0,1,2,0,3,15,9,1
1570180417820262,-3,-2,-2,-2,0,1,0,-2
1570180417824919,0,1,1,0,-1,0,0,-3
1570180417824919,2,3,1,0,0,1,0,0
1570180417833786,-4,-7,0,1,0,-6,0,1
1570180417833786,-13,-9,-1,0,-1,1,1,5
1570180417847885,15,14,0,1,-1,0,-1,5
1570180417847885,1,-8,-4,-2,-3,-2,0,-4
1570180417856727,7,4,-2,-1,-1,-2,-10,3
1570180417856727,-10,0,-1,-1,-4,-8,1,-5
1570180417862710,-5,-7,-1,-1,-2,-5,-2,-8
1570180417862710,-22,-12,1,2,1,4,4,16
1570180417886018,10,8,2,1,0,-3,0,-3
1570180417886018,3,-4,-3,-3,1,1,-1,-1
1570180417886644,3,5,0,-4,-3,-1,1,-10
1570180417886644,26,12,0,-1,-3,-8,-15,12
1570180417899611,-17,-6,0,-1,-5,-2,0,-1
1570180417899611,10,5,-3,-3,-2,3,-6,-2
1570180417907597,-7,-8,-2,-1,-1,-2,0,3
1570180417907597,1,1,2,1,-1,-1,6,-8
1570180417923596,-1,0,1,0,1,-1,-1,3
1570180417923596,1,0,-2,-1,-1,9,5,-10
1570180417924548,-11,-5,-2,0,-1,-8,-3,-1
1570180417924548,9,1,-3,-3,-6,-4,3,-5
1570180417954473,5,4,-1,-1,-1,-1,5,16
1570180417954473,-4,-1,1,0,-2,-4,1,-7
1570180417954473,-13,-10,1,2,4,8,2,5
1570180417954473,16,10,1,0,1,2,1,-2
1570180417960526,-6,-2,-4,-3,-5,-7,9,-18
1570180417960526,3,-3,1,3,0,-3,-2,2
1570180417967641,6,7,2,1,0,2,4,1
1570180417967641,-31,-18,-3,1,7,6,-5,-3
1570180417983497,16,9,-9,-8,-6,-4,-6,-13
1570180417983497,10,3,1,2,1,-1,1,4
1570180417984385,-5,-3,0,2,0,-2,-1,4
1570180417984385,10,4,3,1,1,-2,4,-5
1570180418005636,-29,-15,0,1,2,6,-1,-1
1570180418005636,6,1,-1,0,-2,-4,-9,-7
1570180418013305,20,6,-3,-4,-5,-11,-7,11
1570180418013305,2,3,0,-2,-2,-3,4,-1
1570180418020483,1,-1,0,0,1,-6,-10,3
1570180418020483,-11,-8,-1,1,1,4,-1,-5
1570180418028269,-11,-5,-1,0,-2,0,1,-8
1570180418028269,15,11,-2,-2,-3,-4,-5,1
1570180418043468,-13,-8,-1,-2,-2,-2,11,-17
1570180418043468,-1,2,1,-1,-2,2,2,2
1570180418044225,2,3,-1,0,1,4,0,-4
1570180418044225,-9,-3,0,-3,-1,1,2,-2
1570180418066165,5,-3,-2,1,0,3,-1,2
1570180418066165,2,5,-2,-2,-4,-10,-5,-1
1570180418066165,-4,-6,-3,-3,-1,0,-1,0
1570180418066165,-3,-1,-2,-2,-1,-2,-2,-7
1570180418080129,-10,-10,2,2,1,-2,-8,5
1570180418080129,30,16,4,-1,3,13,3,11
1570180418087112,-4,-6,-2,-3,-3,-15,-7,-8
1570180418087112,2,0,-2,0,-1,2,3,4
1570180418103066,5,2,3,0,1,0,-6,6
1570180418103066,-15,-9,-2,-1,2,5,-1,0
1570180418104068,2,3,1,1,-1,4,2,-3
1570180418104068,-3,-2,-2,0,2,1,-1,-3
1570180418126121,9,2,1,1,1,4,-4,22
1570180418126121,-3,-1,-2,-1,-2,-9,-1,-3
1570180418126121,-4,-2,-1,0,3,11,1,-5
1570180418126121,-5,-4,-1,-1,-2,-3,-2,1
1570180418139974,3,4,-1,-3,-1,0,1,-1
1570180418139974,-2,-2,-2,-2,-2,-4,0,-1
1570180418148154,-3,0,-1,-1,2,-1,-1,0
1570180418148154,-2,-1,0,0,0,7,1,-5
1570180418162906,3,1,-2,-2,-1,-1,6,3
1570180418162906,-5,-2,1,1,0,-4,-1,-1
1570180418163956,-3,-4,0,0,0,1,2,-4
1570180418163956,1,0,0,-1,-2,-1,-9,-15
1570180418185846,-2,1,0,-2,-8,-21,-4,-7
1570180418185846,-5,-5,-1,-2,0,15,6,1
1570180418186894,0,-2,0,0,-1,5,-2,1
1570180418186894,2,0,0,-3,0,-8,2,1
1570180418208004,3,1,0,2,3,5,-3,1
1570180418208004,-9,-4,-2,-2,-2,-4,14,-22
1570180418209033,1,3,2,0,-2,-5,-6,-3
1570180418209033,-1,-3,-3,-3,1,8,8,-2
1570180418222756,-1,-1,0,-1,0,1,2,-3
1570180418222756,-1,0,-2,-3,-2,-5,1,5
1570180418230733,-1,-1,-3,0,-3,4,2,1
1570180418230733,-2,1,1,3,0,-3,-5,1
1570180418245694,1,0,-2,-1,-1,3,2,-2
1570180418245694,0,0,0,-1,-1,-7,-6,2
1570180418246685,-1,-1,0,-2,-2,0,0,-1
1570180418246685,0,-1,0,0,2,5,-2,6
1570180418268001,-3,-2,-2,-2,-1,-2,-2,-12
1570180418268001,-1,0,1,2,0,-2,-7,-3
1570180418268638,4,-1,-1,-3,-5,-11,-8,-6
1570180418268638,0,1,2,1,0,-9,3,8
1570180418283596,1,0,-1,0,0,6,-6,2
1570180418283596,-1,-1,0,0,-1,-8,-5,-3
1570180418284590,-3,-1,-2,-2,0,-1,6,-4
1570180418284590,4,-1,-1,-2,-7,-9,-19,13
1570180418305577,1,0,-1,0,0,4,4,-6
1570180418305577,3,0,0,0,1,0,-1,6
1570180418306675,-1,0,0,2,-1,4,1,0
1570180418306675,-3,-1,-2,-2,0,1,5,-3
1570180418328468,-4,0,-2,-1,-3,-5,5,-4
1570180418328468,5,3,1,2,0,0,-2,15
1570180418328468,1,0,-1,-1,2,8,1,4
1570180418328468,-3,-1,-2,1,0,2,3,-7
1570180418343474,0,0,1,0,0,-3,0,4
1570180418343474,-2,-2,-1,-2,-1,-5,-1,-3
1570180418344423,0,0,1,1,3,3,3,3
1570180418344423,-2,0,-1,0,-1,1,0,-10
1570180418365486,1,0,1,-1,1,2,-3,0
1570180418365486,-2,-1,-1,-2,-3,-2,-3,-4
1570180418366363,0,0,-1,0,1,-1,0,8
1570180418366363,-5,-2,-1,-1,-2,1,7,-10
1570180418388424,4,0,-2,-1,1,1,-9,11
1570180418388424,-2,0,-2,-2,0,4,-2,-3
1570180418389302,-3,-3,-3,-1,-1,-1,0,-7
1570180418389302,-3,-4,-2,-3,-9,-24,-2,-4
1570180418403271,-2,-1,1,3,6,14,8,-1
1570180418403271,-1,-2,0,1,1,1,-2,1
1570180418404263,2,8,1,-2,0,3,0,4
1570180418404263,-4,-5,-1,-1,1,5,-3,4
1570180418426255,-2,-1,-3,-4,-3,-4,-3,1
1570180418426255,4,4,0,-1,-2,-2,-1,-2
1570180418426255,-4,-9,-3,-1,2,0,-1,-8
1570180418426255,-2,0,1,0,2,12,-1,5
1570180418448193,-7,-7,1,0,-4,-13,-3,11
1570180418448193,-7,-6,-4,-2,3,8,4,-2
1570180418449140,-10,0,0,-1,-3,-4,-2,-3
1570180418449140,-7,-14,-1,-1,5,10,1,1
1570180418463105,28,24,0,-4,-12,-24,2,-10
1570180418463105,-5,-5,-2,-2,3,13,-9,7
1570180418464396,-10,-5,-1,1,3,-5,2,6
1570180418464396,-1,0,-1,-2,-1,0,4,1
1570180418486212,-16,-7,5,3,1,-2,-1,-6
1570180418486212,10,-4,-3,-1,-5,-10,1,0
1570180418486212,23,25,0,-1,-2,-1,-1,-6
1570180418486212,-28,-5,2,1,4,-6,-6,0
1570180418508079,26,-7,-9,-4,-4,10,2,1
1570180418508079,44,10,-3,-5,-8,-6,0,3
1570180418509212,-17,5,5,2,4,13,7,3
1570180418509212,93,59,13,6,-7,-15,2,15
1570180418522944,-4,-20,-4,0,10,15,3,1
1570180418522944,23,-28,-11,-5,2,-9,-21,7
1570180418524080,94,51,20,10,3,-1,11,23
1570180418524080,-73,-48,-19,-11,-7,-9,-10,-20
1570180418545882,34,55,26,14,-2,2,5,9
1570180418545882,-10,8,0,5,6,10,8,-2
1570180418546882,-30,-27,-16,-12,-3,-13,-11,-15
1570180418546882,55,23,7,-1,-1,20,12,27
1570180418567825,-37,-44,-10,3,22,3,-12,-3
1570180418567825,51,20,5,-6,-4,-7,3,-34
1570180418568821,-20,-64,1,8,-5,-5,9,10
1570180418568821,-16,33,6,4,-3,-24,-16,-22
1570180418582889,63,32,-11,-9,-2,4,7,9
1570180418582889,-70,-78,-8,0,-8,-6,-8,-18
1570180418583783,24,15,-1,3,4,-8,-12,-14
1570180418583783,49,14,0,2,-2,-8,3,26
1570180418605723,-78,-57,-16,-4,7,52,-14,-48
1570180418605723,82,54,-7,-10,-8,-21,1,1
1570180418606722,27,-6,9,5,8,9,14,15
1570180418606722,32,5,-8,-5,-7,-13,-11,-18
1570180418627665,-14,14,16,7,-7,-26,1,33
1570180418627665,-56,-25,0,3,5,14,13,31
1570180418628990,-30,-10,-4,-7,-4,-4,-11,-11
1570180418628990,0,-8,20,14,11,18,16,21
1570180418643620,-1,36,-8,-10,-5,-13,-14,-15
1570180418643620,-6,-20,6,12,-6,-17,7,-12
1570180418643963,45,32,-8,-9,17,54,-1,6
1570180418643963,-79,-52,-10,-5,-3,-10,6,-19
1570180418665563,95,42,0,-6,6,-2,15,-46
1570180418665563,-44,-32,11,9,15,3,-12,34
1570180418666561,-49,42,-5,-4,-18,-31,-15,-8
1570180418666561,-14,-31,-7,-4,2,14,3,-1
1570180418688503,-6,-22,-2,-6,-5,3,2,2
1570180418688503,39,74,11,0,1,33,12,4
1570180418688615,-38,-34,-1,0,-1,-3,-1,-12
1570180418688615,25,41,0,-1,-2,11,-10,5
1570180418703460,-50,-43,-3,-1,-9,-27,0,9
1570180418703460,14,48,11,4,7,15,7,1
1570180418703460,14,-17,-3,-3,-9,-12,4,-8
1570180418703460,-3,-22,-20,-14,-10,-13,-9,-17
1570180418725428,17,26,7,4,2,-6,1,5
1570180418725428,7,5,5,4,3,13,-14,33
1570180418726400,-9,-16,-2,2,3,-4,2,-42
1570180418726400,31,24,4,-5,-14,-11,-15,-3
1570180418749339,-6,0,-3,-1,1,-2,1,6
1570180418749339,-23,-26,-9,-7,-16,-9,3,-21
1570180418750476,39,13,-1,-5,1,5,5,13
1570180418750476,1,-11,5,9,23,-6,9,20
1570180418762304,10,-24,-2,-2,-7,23,-2,-11
1570180418762304,-33,5,-10,-3,-1,-3,2,34
1570180418770337,13,-9,2,2,0,-12,-10,25
1570180418770337,5,-1,0,6,3,-1,4,1
1570180418794219,38,28,13,2,14,44,9,16
1570180418794219,-46,-23,-2,6,-11,-46,-41,-8
1570180418794219,-33,-41,-20,-15,-3,16,-3,2
1570180418794219,47,23,6,1,-2,2,8,24
1570180418808731,-65,-22,3,10,-21,-2,-7,-10
1570180418808731,-2,22,2,-6,14,9,8,-30
1570180418809178,-10,-5,-7,-12,-2,-39,-15,-3
1570180418809178,-3,1,2,6,-18,14,-4,-22
1570180418831286,13,11,2,-3,38,-4,-3,15
1570180418831286,-8,15,20,14,-4,11,15,0
1570180418831286,-11,31,-1,-13,-33,-26,-3,-14
1570180418831286,9,-12,-15,-4,13,11,15,61
1570180418854107,1,-34,-17,-6,-21,-17,-17,30
1570180418854107,57,33,8,4,11,9,9,23
1570180418854107,12,57,30,17,0,1,1,-33
1570180418854107,-59,-69,-29,-3,-22,-4,-3,-41
1570180418868144,38,54,0,-4,24,1,9,-2
1570180418868144,55,-23,-13,-17,5,1,6,4
1570180418869030,42,33,17,17,26,12,9,27
1570180418869030,-24,-11,4,-12,7,0,-3,-29
1570180418891958,-13,15,15,47,37,14,11,-7
1570180418891958,-2,-23,-26,-39,6,-10,0,-26
1570180418891958,32,3,9,8,5,-12,14,19
1570180418891958,1,-19,-18,-11,10,9,-11,-10
1570180418914063,-13,20,10,-4,-47,-49,-17,-5
1570180418914063,12,-16,-25,-20,-62,-25,-11,-4
1570180418914900,-5,-12,-1,4,-9,14,8,13
1570180418914900,-80,-54,-17,-7,-16,-5,-15,-14
1570180418927868,-6,0,4,4,38,10,-2,16
1570180418927868,-8,54,22,32,30,20,-5,-47
1570180418929018,-43,-75,-34,-32,3,0,-17,4
1570180418929018,95,33,27,19,-19,19,24,-20
1570180418951849,-74,-34,-22,-12,-7,-31,-28,-82
1570180418951849,6,18,11,3,53,-3,19,15
1570180418951849,-4,-2,-5,-4,4,2,-17,-16
1570180418951849,29,58,29,10,3,-2,-2,12
1570180418973910,60,-5,-21,-12,-49,-1,14,8
1570180418973910,-82,-95,-14,5,3,0,-3,12
1570180418974738,50,47,8,2,-44,1,6,-6
1570180418974738,-94,-60,-23,-14,39,-18,-24,-34
1570180418988697,45,46,19,1,0,-7,33,7
1570180418988697,-90,-51,-4,4,-4,30,-6,-22
1570180418988697,26,-5,-12,-18,-9,-20,-3,14
1570180418988697,-25,-29,-8,0,-2,31,19,-52
1570180419011638,-14,-46,-3,13,3,-7,-7,12
1570180419011638,54,63,15,2,-20,3,10,12
1570180419011638,-50,-18,-7,4,21,2,-1,8
1570180419011638,105,50,13,0,-8,-8,2,26
1570180419032804,-32,4,-3,-2,27,8,1,12
1570180419032804,16,12,-7,-10,-29,-13,-3,-5
1570180419040776,-30,27,24,26,21,7,1,-6
1570180419040776,36,61,13,6,21,0,7,35
1570180419048601,43,-5,8,1,-26,7,1,20
1570180419048601,-15,-38,-23,-8,-17,-13,-13,-8
1570180419048601,-19,-27,-12,-6,1,4,1,-8
1570180419048601,40,27,13,-3,7,17,9,39
1570180419071685,-29,-21,-2,-5,-13,-12,-4,-4
1570180419071685,23,3,4,5,8,0,6,-6
1570180419072484,-41,-24,-18,-4,15,-15,-13,-14
1570180419072484,27,54,7,0,-22,0,6,17
1570180419094471,1,-30,1,7,-2,3,-4,-1
1570180419094471,34,20,8,4,-3,-7,2,13
1570180419095424,-3,-15,-6,-4,-2,13,7,10
1570180419095424,-5,24,4,-20,-9,-7,-5,9
1570180419108573,4,19,9,18,18,12,4,2
1570180419108573,0,-2,0,6,12,6,1,0
1570180419109381,26,14,1,-12,-3,0,0,5
1570180419109381,4,-11,-4,12,-1,-8,-7,-9
1570180419131486,-6,-16,-16,-27,-19,-2,-4,-12
1570180419131486,-27,-14,7,14,-1,-7,-4,-1
1570180419132319,-13,2,-5,-8,-5,11,-1,-11
1570180419132319,4,0,4,27,19,-6,-3,-2
1570180419154340,-39,-27,-7,-9,-6,5,3,0
1570180419154340,59,29,11,6,-1,1,3,11
1570180419154340,-53,-24,-14,-13,-20,-2,-2,-13
1570180419154340,-17,-39,-18,-10,-6,-4,-4,0
1570180419168363,39,22,-9,-23,-18,-6,-5,0
1570180419168363,-8,12,7,7,10,2,0,-1
1570180419169218,27,9,1,-9,10,2,4,0
1570180419169218,-23,-14,5,15,10,1,2,-4
1570180419191157,-2,4,2,-5,-1,-4,-5,-4
1570180419191157,-30,-24,-17,-22,-10,-6,-3,-7
1570180419191157,6,1,-3,0,3,0,-3,-1
1570180419191157,-45,-10,-5,-7,-5,-3,-1,3
1570180419214228,-1,4,-2,-4,6,2,1,0
1570180419214228,24,11,-1,1,-2,-2,0,2
1570180419215097,19,6,12,15,-4,3,5,14
1570180419215097,-27,-9,-5,-7,-4,-3,-5,-5
1570180419228167,13,34,24,9,-7,-7,-3,7
1570180419228167,-12,-31,-18,-7,-2,0,-2,-3
1570180419229057,20,-2,10,13,4,2,3,7
1570180419229057,-35,-24,-6,-1,0,0,1,-3
1570180419250000,55,31,1,5,3,2,0,-3
1570180419250000,29,31,5,-8,-7,-8,-5,-4
1570180419258118,-34,-20,1,6,-5,-1,1,0
1570180419258118,13,-2,-10,-13,-8,-6,-5,-5
1570180419273935,-15,0,5,3,1,0,-1,-2
1570180419273935,-63,-34,-8,-14,-3,-3,-7,-11
1570180419275030,12,18,1,3,-1,5,6,5
1570180419275030,63,21,8,1,-1,-7,-16,24
1570180419288285,-58,-28,-8,5,-2,-3,-4,-6
1570180419288285,16,8,2,-1,-2,-3,-1,-2
1570180419288897,6,4,2,4,0,0,-4,8
1570180419288897,5,4,-8,-10,-3,1,5,-4
1570180419311007,56,17,2,4,7,2,-10,20
1570180419311007,9,12,8,10,1,0,-3,-30
1570180419311834,-1,-3,2,2,-5,-2,-6,6
1570180419311834,-9,0,5,2,-5,-4,1,-7
1570180419332987,-32,-30,-11,-4,5,5,9,4
1570180419332987,12,13,4,8,0,-7,-3,-15
1570180419341138,4,5,7,9,6,3,2,1
1570180419341138,-5,-3,-12,-13,-7,-3,0,-9
1570180419347967,16,9,7,4,6,8,8,14
1570180419347967,-5,-20,2,13,5,5,5,5
1570180419355905,45,37,-6,-9,-3,-5,-3,-5
1570180419355905,4,-6,1,-3,-2,-2,-4,-4
1570180419370927,-38,-16,-3,0,-1,-4,1,-9
1570180419370927,94,41,5,-1,3,2,-7,23
1570180419378714,-16,-19,-6,1,-3,-1,-2,-29
1570180419378714,-5,-8,2,2,4,2,-1,-3
1570180419394374,24,3,-6,-10,-7,-1,1,8
1570180419394374,1,4,1,-9,-4,0,0,15
1570180419394616,-22,-15,-3,-1,2,1,0,4
1570180419394616,21,21,8,18,3,2,1,9
1570180419407796,-39,-16,-1,3,-3,0,0,-9
1570180419407796,2,2,-3,-2,-4,-2,1,4
1570180419416610,-13,-3,3,-1,1,0,3,0
1570180419416610,-35,-11,-7,-5,-3,-2,1,-13
1570180419430525,25,6,-4,-4,-2,-2,-1,-2
1570180419430525,-15,-3,2,-4,-6,2,5,0
1570180419431631,32,12,-6,-18,-5,-5,-3,1
1570180419431631,-28,-15,7,18,14,1,-2,-6
1570180419453463,7,8,3,3,0,4,7,2
1570180419453463,-22,-21,-6,-1,-2,-6,-7,-11
1570180419454455,16,8,1,-3,-7,-2,-2,-1
1570180419454455,3,3,-4,-9,-1,1,0,-1
1570180419467418,-1,-2,-5,-4,-10,4,0,-1
1570180419467418,-28,-15,-3,-1,17,3,3,3
1570180419475610,5,3,10,17,17,5,6,11
1570180419475610,-25,-18,-4,0,-4,-4,-1,-7
1570180419491357,-8,-10,-1,1,0,0,0,-1
1570180419491357,-21,2,-10,-16,-12,-4,-5,-7
1570180419491357,-20,-12,0,10,2,2,0,-1
1570180419491357,46,19,-3,-18,-11,-5,-3,5
1570180419514370,-8,-1,-4,-7,-4,-4,-4,-10
1570180419514370,4,-2,3,10,4,1,4,5
1570180419515292,9,-2,-5,-6,6,-9,-2,5
1570180419515292,-6,-5,-2,-6,-12,-1,2,0
1570180419527307,12,6,-4,-16,0,6,0,1
1570180419527307,13,4,-6,0,0,-2,0,3
1570180419535647,-48,-35,0,7,4,9,0,-8
1570180419535647,43,51,13,16,2,-7,-1,5
1570180419550320,-6,-6,5,9,3,-4,-3,-5
1570180419550320,-11,2,3,2,6,1,0,7
1570180419551521,1,-12,0,-4,-6,4,3,-2
1570180419551521,-26,-18,-5,-2,4,2,1,-4
1570180419574333,21,13,-4,-3,-3,-3,-2,1
1570180419574333,-11,-2,1,-7,-4,-2,1,0
1570180419575139,21,2,2,5,-4,-1,1,9
1570180419575139,27,19,-3,-2,2,1,-1,0
1570180419587274,-39,-24,-6,-3,-1,-2,-8,-15
1570180419587274,45,18,-1,-7,-6,-4,-2,5
1570180419595317,27,14,0,-3,-8,-3,-4,-4
1570180419595317,-3,-9,-6,-14,-2,2,1,0
1570180419619155,-2,-4,8,11,5,0,7,11
1570180419619155,7,2,-3,3,-4,-2,-4,-9
1570180419620015,9,11,2,4,-1,1,-1,-4
1570180419620015,-24,-15,1,-6,-2,0,-3,-4
1570180419634186,31,19,0,0,-1,-3,1,4
1570180419634186,-18,-10,3,0,0,2,3,2
1570180419634973,2,5,-1,-1,-3,-1,-1,1
1570180419634973,-12,-11,-6,-3,-4,-5,-2,1
1570180419656965,-9,-3,-1,-4,1,4,2,0
1570180419656965,47,21,0,5,3,2,0,0
1570180419656965,-27,-17,-2,-9,-4,-4,-2,-3
1570180419656965,8,-1,7,15,9,4,2,3
1570180419669886,-9,9,-2,-10,-3,-3,-3,-1
1570180419669886,10,-3,-4,4,-1,-2,-4,-5
1570180419678862,15,11,0,-3,-2,1,0,5
1570180419678862,-18,-10,1,5,0,-3,0,-4
1570180419693941,9,-2,0,1,3,0,1,0
1570180419693941,-24,-14,-1,-6,-1,6,2,2
1570180419700301,-8,4,-1,1,-5,-9,-1,-2
1570180419700301,-9,-8,-6,-9,-4,0,-4,-5
1570180419717754,-7,-5,-2,0,-3,-6,-3,-3
1570180419717754,-37,-16,-2,-7,0,1,2,1
1570180419719749,60,34,6,9,2,4,1,6
1570180419719749,-47,-12,0,1,0,-4,-2,-2
1570180419730718,19,7,1,5,2,-1,-3,0
1570180419730718,-4,-4,-2,-2,-2,1,0,3
1570180419738745,16,0,-7,-13,-3,0,3,3
1570180419738745,-27,-10,-5,-5,-4,-2,-3,-8
1570180419753654,-5,0,1,7,2,1,-2,-1
1570180419753654,-26,-11,4,4,3,2,-1,-1
1570180419767615,22,2,-7,-3,-6,-1,-5,-2
1570180419767615,23,11,2,0,1,-1,2,3
1570180419776687,-14,-13,-6,-3,-4,-4,-1,-4
1570180419776687,-5,-1,0,0,1,2,1,3
1570180419778308,-15,-3,2,4,4,-3,-4,-5
1570180419778308,-16,-16,2,2,3,7,2,0
1570180419790617,25,20,1,-3,-6,-1,-2,-4
1570180419790617,-7,-5,-2,0,1,6,-2,-2
1570180419799532,-13,-2,1,0,-2,-6,2,2
1570180419799532,3,0,-5,0,3,-4,-3,-4
1570180419814491,-2,-6,-2,4,-1,-4,-2,0
1570180419814491,5,7,0,1,0,0,1,-1
1570180419815493,-20,-10,0,1,-1,4,-1,0
1570180419815493,18,8,5,3,0,2,3,3
1570180419836598,-10,-6,-1,-4,-1,1,-2,-3
1570180419836598,4,0,-2,-3,-4,-4,-1,1
1570180419838489,10,17,0,-2,2,-2,0,-1
1570180419838489,3,6,8,7,-1,2,2,5
1570180419850404,-13,-6,-2,-2,1,1,1,-2
1570180419850404,-6,-6,4,2,1,-1,3,8
1570180419857563,-26,-19,-4,-2,-4,-1,-1,-14
1570180419857563,12,3,-4,-2,0,5,0,1
1570180419873535,0,-17,2,0,2,1,4,3
1570180419873535,29,45,2,-2,-2,-7,-6,-4
1570180419881419,-12,-10,0,-2,-2,-14,-1,9
1570180419881419,2,4,3,4,4,19,0,-21
1570180419896272,-36,-25,-7,-3,-2,-4,1,-8
1570180419896272,0,-6,-2,0,0,-5,-1,4
1570180419898266,-7,-6,-1,-1,0,5,-3,-8
1570180419898266,25,16,2,1,-1,-4,5,19
1570180419910238,-21,-5,-10,-9,-5,-1,7,-30
1570180419910238,-4,-3,0,-1,-2,5,7,-19
1570180419935012,-4,-8,-3,0,1,2,6,4
1570180419935012,-1,-3,2,1,-2,-12,-1,15
1570180419935183,20,12,-1,-2,0,14,2,1
1570180419935183,1,-1,-1,-2,-2,-5,1,-3
1570180419937291,-11,-3,1,0,0,4,1,0
1570180419937291,-8,-10,-5,-3,-2,-3,-1,-3
1570180419956332,11,2,-2,-5,-1,-6,-10,1
1570180419956332,47,36,1,2,0,1,0,7
1570180419958112,-56,-40,-7,-3,-1,-1,-10,-9
1570180419958112,6,7,-1,-3,-2,-3,-5,-3
1570180419971375,-5,-2,2,3,2,-2,-2,9
1570180419971375,-22,-18,0,2,-1,1,0,1
1570180419977120,24,14,2,-1,3,2,6,-4
1570180419977120,-10,-5,-4,-1,0,-1,0,-3
1570180419994210,3,3,0,0,1,1,0,4
1570180419994210,23,9,3,3,0,2,1,3
1570180419995009,-16,2,0,1,-1,0,-3,-6
1570180419995009,26,8,2,0,-1,0,-2,3
1570180420016954,-64,-22,-2,-4,-5,-2,-4,-2
1570180420016954,-3,-4,0,2,-1,-1,-2,-4
1570180420017998,15,-1,-2,-1,-1,2,2,6
1570180420017998,-12,-1,5,6,2,2,2,1
1570180420030913,61,34,0,-1,-1,-3,-2,3
1570180420030913,28,4,2,-2,-1,-2,0,7
1570180420044931,-64,-24,-12,-7,-4,-3,-4,-14
1570180420044931,-7,-9,-7,-6,-4,-4,-1,-4
1570180420053909,10,-3,0,2,2,0,0,4
1570180420053909,-20,-8,0,1,0,-2,-2,0
1570180420056010,36,8,11,8,5,4,3,14
1570180420056010,-4,17,-13,-7,-3,-2,-4,-11
1570180420076789,-6,-12,-2,-2,-4,-6,-8,-2
1570180420076789,-19,-12,-3,-4,-1,-2,-1,-2
1570180420077786,-4,2,0,-1,-1,-1,-2,-2
1570180420077786,7,-2,5,4,3,3,5,6
1570180420090987,18,8,1,0,1,-2,-1,1
1570180420090987,-41,-20,-11,-7,-4,-4,-4,-16
1570180420097863,21,7,1,0,-1,0,0,5
1570180420097863,-30,-8,1,-1,-2,-1,2,-2
1570180420113696,29,17,3,5,3,1,3,11
1570180420113696,-12,-14,-1,-1,-1,0,-5,-4
1570180420115689,32,30,3,-1,1,0,2,2
1570180420115689,-32,-38,-3,-1,-3,-3,-14,13
1570180420136834,81,56,13,6,3,4,5,31
1570180420136834,-107,-63,-19,-12,-8,-11,-16,-40
1570180420137630,20,5,-2,1,1,-1,-4,5
1570180420137630,28,8,2,-1,-3,-3,-2,-1
1570180420149951,-19,-13,4,6,2,2,6,-1
1570180420149951,2,11,1,0,1,1,0,2
1570180420158570,7,2,-2,-2,0,1,7,-4
1570180420158570,5,2,1,1,0,1,4,-1
1570180420174532,-55,-34,-7,-6,-2,-2,-3,-12
1570180420174532,54,37,5,0,0,1,5,4
1570180420175586,-31,-26,1,2,2,-1,-5,-10
1570180420175586,45,23,-1,-1,0,1,5,8
1570180420204482,58,43,7,2,1,3,2,14
1570180420204482,-62,-56,-11,-2,-2,-4,-8,-12
1570180420205707,13,10,2,0,-2,1,3,7
1570180420205707,-14,1,-2,-3,-1,-4,-9,-36
1570180420210510,33,-8,-2,0,-2,0,7,20
1570180420210510,-3,14,11,6,5,3,4,-11
1570180420219414,7,5,-11,-9,-8,-6,-10,14
1570180420219414,-41,6,7,3,2,2,2,-10
1570180420233547,0,-26,-11,-6,-4,-7,-13,-4
1570180420233547,-16,-1,2,2,4,2,3,-8
1570180420235545,49,13,11,9,5,3,10,27
1570180420235545,26,13,1,1,2,7,-8,-18
1570180420256491,24,5,-2,-3,-2,1,12,21
1570180420256491,-21,-33,-18,-8,-3,10,-16,-30
1570180420262532,-59,-35,-10,-5,-13,-27,-16,-61
1570180420262532,29,-1,0,0,-2,-4,9,23
1570180420270476,-66,-13,7,7,8,10,2,-41
1570180420270476,89,36,11,6,3,6,27,87
1570180420279251,7,15,8,8,6,9,1,-6
1570180420279251,-11,5,-9,-7,-6,-7,-8,-6
1570180420294398,2,3,1,-1,-1,-2,-3,-8
1570180420294398,20,6,0,-1,-3,-6,-3,30
1570180420295863,9,22,11,4,5,9,18,-37
1570180420295863,-72,-61,-13,-3,-1,-8,-9,5
1570180420316152,66,36,-3,-6,-5,-3,-5,-29
1570180420316152,67,32,12,2,-1,-1,8,35
1570180420318151,-47,-31,-17,-11,-8,-5,-8,-14
1570180420318151,-11,-4,3,2,2,3,2,-8
1570180420330275,-31,-22,-2,-3,-1,-4,-9,-18
1570180420330275,14,1,4,4,3,3,11,30
1570180420339089,5,10,0,-2,-1,0,-8,23
1570180420339089,16,-2,1,0,2,1,10,31
1570180420354235,-43,-4,-5,-2,-2,-4,-7,-15
1570180420354235,-7,20,8,1,1,3,5,-37
1570180420355166,41,12,0,1,1,-1,0,34
1570180420355166,7,-3,0,3,2,5,3,1
1570180420377039,-5,-12,-8,-5,1,6,-2,20
1570180420377039,-20,-9,1,2,-4,-2,-2,-48
1570180420377987,29,14,-2,-3,-6,-19,-9,-14
1570180420377987,-26,-17,-5,-2,5,19,8,19
1570180420390162,-15,-3,6,4,2,3,2,15
1570180420390162,2,5,-6,-2,-1,-4,-6,-12
1570180420398936,14,-8,-2,-1,3,7,4,12
1570180420398936,30,17,0,-5,-6,-7,-9,-72
1570180420413890,1,-7,3,2,0,4,0,15
1570180420413890,-7,-3,1,1,6,2,-6,-7
1570180420419877,10,7,2,2,-1,3,10,22
1570180420419877,8,7,2,-3,-5,-13,-2,-8
1570180420437827,-41,-16,-6,-2,-2,1,-6,-9
1570180420437827,-1,-1,0,-2,-2,-6,-5,6
1570180420439820,-16,-7,-3,-3,-4,3,-4,-8
1570180420439820,9,5,1,0,3,18,6,13
1570180420449798,-13,-1,0,1,3,-12,-2,-18
1570180420449798,10,2,-2,-1,4,3,-5,12
1570180420458850,2,-1,0,-2,-2,7,5,6
1570180420458850,7,3,-1,-2,-7,1,0,-4
1570180420473868,11,4,2,4,16,5,3,22
1570180420473868,2,-4,-5,-3,-14,1,7,13
1570180420479836,-20,-2,2,2,0,-19,4,-6
1570180420479836,-1,-3,-2,-2,-10,-19,-15,-18
1570180420497030,-8,-2,-2,-1,-8,-28,-2,-20
1570180420497030,-7,1,-3,-8,-5,41,11,-23
1570180420497668,-4,-3,-1,1,12,21,4,11
1570180420497668,15,9,5,6,6,3,-6,22
1570180420509743,23,6,-5,-4,-11,-11,-25,11
1570180420509743,-32,-20,-7,-2,0,-18,-10,-30
1570180420518608,-21,-6,-1,-1,-8,1,9,-12
1570180420518608,16,11,4,3,2,-7,-2,6
1570180420533613,0,0,0,1,2,-1,8,3
1570180420533613,10,4,1,2,8,12,-10,3
1570180420540722,-1,-2,-2,-5,-12,-24,-11,-7
1570180420540722,-7,-3,1,4,-5,-18,-1,13
1570180420556788,-22,-5,-1,-2,14,43,26,-86
1570180420556788,19,5,1,1,-17,-34,-17,51
1570180420558112,6,-4,-1,-3,-4,8,0,20
1570180420558112,3,1,-4,-4,-5,-3,-6,-3
1570180420570720,-5,-1,-1,0,7,-2,8,3
1570180420570720,-8,-1,-1,1,9,4,9,-5
1570180420578467,2,-1,0,1,7,12,-4,-3
1570180420578467,-3,0,1,-2,-8,-4,4,-4
1570180420593715,5,-1,0,-1,-5,2,9,29
1570180420593715,-3,-4,0,0,2,-8,-7,-13
1570180420600390,6,3,1,2,-3,-10,-18,7
1570180420600390,-5,-1,-3,-3,4,10,8,-4
1570180420616351,-10,-4,-1,-2,-8,-7,-5,11
1570180420616351,0,0,-3,-1,-3,-4,6,1
1570180420618340,-7,0,0,-2,-1,4,5,-29
1570180420618340,4,-1,-1,1,3,0,-7,20
1570180420638399,-1,-2,0,0,-3,-2,-7,13
1570180420638399,4,0,-1,-3,-5,-8,2,-4
1570180420654364,0,-1,0,0,4,6,2,2
1570180420654364,-6,-2,-1,-2,4,5,4,-7
1570180420655248,0,0,-1,-1,-4,-7,1,4
1570180420655248,1,2,0,-1,-3,-11,-6,2
1570180420661226,-1,-2,0,0,3,-1,0,-1
1570180420661226,1,2,1,2,-1,0,1,-1
1570180420676362,-3,-1,-1,-2,-6,-2,-3,-3
1570180420676362,-4,-2,-1,-2,-1,6,1,-6
1570180420678186,0,2,0,-1,1,-4,0,10
1570180420678186,2,-1,0,-2,-1,3,0,3
1570180420698141,-4,1,0,1,-3,-3,6,4
1570180420698141,7,4,1,3,6,7,-11,13
1570180420706149,0,-1,-2,1,3,1,8,7
1570180420706149,-3,-2,-2,-2,2,9,11,-4
1570180420713134,5,-3,-3,-3,-7,-6,-16,13
1570180420713134,-21,-1,3,-1,-1,-4,-1,-46
1570180420720118,3,2,-2,2,0,0,-2,0
1570180420720118,0,-1,0,0,2,2,0,3
1570180420737051,2,-2,-2,0,2,-5,-7,5
1570180420737051,-1,0,-2,0,2,9,6,11
1570180420738279,-3,-1,0,-1,-2,1,-3,1
1570180420738279,-3,-1,-3,-1,-3,-3,0,2
1570180420758971,-3,-1,0,0,-3,-1,-2,-1
1570180420758971,4,-2,-1,-1,-2,-7,-3,5
1570180420760960,-2,-1,-1,-1,-1,1,5,-9
1570180420760960,2,0,0,0,0,-3,-1,2
1570180420773928,-5,-1,-1,-1,-1,14,1,-14
1570180420773928,0,-2,0,-3,-2,-5,6,-6
1570180420788291,11,0,1,0,-1,1,-13,36
1570180420788291,-4,-2,-1,-1,3,-3,-2,-13
1570180420796925,-8,-1,-2,-2,-3,4,4,2
1570180420796925,12,0,1,0,-6,-8,2,2
1570180420798022,-2,-2,-1,-1,5,11,5,-13
1570180420798022,-12,-5,-2,-1,3,4,-5,-33
1570180420819127,3,1,1,1,3,-7,-5,10
1570180420819127,-2,0,-1,-4,-15,-11,-2,5
1570180420820807,-13,-2,-1,-2,-5,-7,-6,-29
1570180420820807,25,2,0,2,1,1,0,41
1570180420832816,-10,-5,-3,-2,3,3,1,-25
1570180420832816,4,0,-1,0,4,1,-5,13
1570180420839975,25,5,2,3,1,0,2,24
1570180420839975,-1,-2,-3,-4,-4,0,6,8
1570180420856886,5,0,-1,1,-5,-5,0,4
1570180420856886,0,1,-1,0,3,3,3,10
1570180420857709,-6,-1,-2,2,1,1,-2,0
1570180420857709,-4,1,2,2,12,1,-5,-9
1570180420878783,4,1,2,-1,-9,-4,2,3
1570180420878783,-2,-1,-3,-2,-7,-3,-1,-6
1570180420880647,-12,-2,-1,-3,-9,-4,-3,-12
1570180420880647,26,-2,-2,-3,-9,-5,4,20
1570180420893762,-22,-3,0,1,7,0,-5,-24
1570180420893762,4,-1,-2,1,8,5,10,11
1570180420899749,-5,-1,-1,-1,-1,-5,-3,-5
1570180420899749,-6,3,-1,1,1,-1,-2,-3
1570180420916844,2,-2,-1,-1,1,1,-5,5
1570180420916844,0,-3,-1,1,1,1,1,-2
1570180420918567,-7,-2,-1,-1,0,0,1,-7
1570180420918567,5,2,-1,-1,-4,-2,-3,9
1570180420938694,3,1,0,-1,0,-2,1,-5
1570180420938694,-12,0,-1,-2,-1,-1,-4,-18
1570180420940534,0,1,0,-1,2,0,-2,-2
1570180420940534,-8,-3,1,0,-4,-1,-2,-10
1570180420952632,2,0,-1,-3,-3,0,1,3
1570180420952632,4,-2,-2,-2,0,1,-1,6
1570180420961427,-1,-3,-2,-2,0,-2,1,-5
1570180420961427,-4,-1,-2,-1,-2,-1,4,-4
1570180420975440,6,1,-1,-1,-1,-4,-10,4
1570180420975440,-4,0,-1,-1,0,1,-4,-2
1570180420984369,9,2,1,0,0,0,8,23
1570180420984369,-8,-3,-2,-2,-4,0,0,-3
1570180420998467,-8,-1,-2,1,1,-1,1,-3
1570180420998467,-3,-2,-2,0,1,0,-3,0
1570180421006356,-3,-2,-1,-1,-2,0,-3,-19
1570180421006356,5,1,1,-1,0,-3,-15,20
1570180421012641,1,-1,-1,0,-1,-1,-1,2
1570180421012641,1,0,0,0,0,-1,2,-2
1570180421021426,-6,-4,0,-1,-1,-1,2,-8
1570180421021426,-10,-1,0,-1,-1,-2,-1,-17
1570180421036759,-4,-3,0,0,-1,-1,-9,-27
1570180421036759,2,0,0,0,-1,0,2,8
1570180421038224,8,1,2,2,-1,0,-1,23
1570180421038224,-2,3,2,1,0,-3,-6,-6
1570180421059319,6,-1,-1,-2,-2,-1,4,13
1570180421059319,-1,0,-1,-1,0,0,1,-7
1570180421060789,-1,0,-2,-1,1,0,-3,-1
1570180421060789,-15,-2,-2,0,0,1,1,-25
1570180421073178,8,3,1,-1,0,0,4,7
1570180421073178,3,0,1,0,1,0,0,1
1570180421081267,-1,-2,-3,0,-1,-2,-5,-3
1570180421081267,-5,-2,-1,-1,-1,-2,-3,-5
1570180421097063,-14,-3,-4,-3,-2,-2,-5,-18
1570180421097063,3,-2,0,1,-1,-1,-1,5
1570180421098060,0,0,0,-1,-1,-1,0,0
1570180421098060,5,-1,-2,-2,-1,0,4,4
1570180421119200,12,2,-1,-1,-1,0,5,7
1570180421119200,0,-1,-1,0,0,1,-1,0
1570180421120560,-6,-2,0,-1,0,-2,-3,-11
1570180421120560,0,-2,-2,0,0,1,1,0
1570180421133004,0,-1,-1,-2,-1,1,1,8
1570180421133004,-4,-2,-2,-1,-2,0,-3,-4
1570180421141946,-2,-2,-1,-1,0,1,0,-4
1570180421141946,-4,3,3,2,0,2,3,-11
1570180421156953,0,-1,0,1,0,0,-2,11
1570180421156953,-2,-1,-2,-1,0,0,2,-4
1570180421158009,2,-2,-2,-3,-1,-1,1,1
1570180421158009,-1,-1,-2,-2,-1,-1,-2,-7
1570180421179282,1,-1,-1,0,-2,1,2,7
1570180421179282,3,1,-1,-2,-1,-2,2,5
1570180421180922,-3,-1,-1,1,-2,0,2,0
1570180421180922,1,-3,-1,-1,-1,-1,-2,5
1570180421192812,3,0,0,-1,1,1,2,4
1570180421192812,-2,-2,-1,-2,0,-2,-4,1
1570180421207969,3,0,-1,-1,1,0,0,1
1570180421207969,0,-2,-1,-2,-2,-2,-1,2
1570180421216909,-8,-3,-1,-2,0,0,1,-8
1570180421216909,1,2,0,0,-2,0,0,-3
1570180421217739,-4,-1,0,-1,-1,-1,-2,-3
1570180421217739,7,0,-2,-2,-2,-2,-2,11
1570180421238897,0,-1,0,0,0,0,0,-1
1570180421238897,-6,-1,1,0,1,-1,-4,-11
1570180421240682,9,1,-2,-3,-2,-1,-1,22
1570180421240682,-1,-2,0,1,-1,-1,0,-2
1570180421252871,3,-1,-1,-1,-1,-1,0,2
1570180421252871,-4,0,-2,-2,-1,-2,-3,-7
1570180421261631,-3,0,-1,-1,0,0,1,-9
1570180421261631,2,0,-1,-1,0,0,0,11
1570180421283708,-2,1,0,-1,-2,-2,-2,-1
1570180421283708,-3,0,0,0,0,2,-1,-4
1570180421285624,-5,0,-1,-1,0,0,-2,-8
1570180421285624,-1,0,-1,-2,-1,0,0,-4
1570180421298646,1,0,0,-2,0,-1,1,1
1570180421298646,0,-1,1,-1,-2,-2,-1,-6
1570180421300517,0,0,-2,-1,1,-1,0,-4
1570180421300517,2,0,-3,-1,-1,-1,-1,4
1570180421312670,-1,-2,1,0,-1,1,-2,-3
1570180421312670,1,0,-2,-1,1,-1,-1,-3
1570180421321463,-2,0,-1,0,-2,1,-3,-8
1570180421321463,-3,0,0,-2,1,-1,-2,-9
1570180421336713,-4,0,0,-1,2,-2,-2,-5
1570180421336713,4,0,0,-1,0,2,2,7
1570180421338424,-1,-2,2,0,0,-1,-7,8
1570180421338424,1,0,-3,-4,-3,0,3,4
1570180421359409,4,0,-1,-1,1,2,6,2
1570180421359409,-2,-1,0,-2,-4,-5,-4,2
1570180421360440,-2,0,-1,-2,0,-3,1,3
1570180421360440,0,-1,0,1,-1,2,-1,0
1570180421372532,0,-2,-3,-3,1,-1,-2,3
1570180421372532,-1,-3,-1,0,1,2,3,3
1570180421381302,-2,-2,1,0,-1,0,-1,-9
1570180421381302,-6,-2,0,1,0,-1,-6,-14
1570180421396403,0,-2,-1,1,-2,-1,1,6
1570180421396403,-2,1,0,1,0,1,1,2
1570180421398255,-2,0,-1,-1,-1,1,0,-5
1570180421398255,0,0,-1,0,1,1,1,3
1570180421419514,0,-1,-2,0,-2,-1,-1,7
1570180421419514,0,-1,0,-1,-1,-2,-3,4
1570180421420203,0,-3,-1,0,-1,-1,3,5
1570180421420203,-2,0,-1,-1,-2,-1,2,0
1570180421432303,-1,1,0,-1,0,-1,-2,-3
1570180421432303,1,-1,-2,-1,1,1,1,4
1570180421441144,1,1,-1,-2,-2,-2,2,-6
1570180421441144,4,1,2,-1,1,-3,-1,7
1570180421456321,-5,-4,-1,-1,-1,-2,-3,-7
1570180421456321,2,-1,-1,0,0,0,-1,5
1570180421458099,1,2,0,-1,1,2,-2,0
1570180421458099,-1,1,0,-1,1,-2,-2,-2
1570180421479209,0,-1,-1,1,2,1,1,-7
1570180421479209,2,0,-1,-1,-1,-2,-3,-2
1570180421480351,-2,-1,0,0,-1,-1,-3,-7
1570180421480351,0,-3,-1,0,0,1,0,-1
1570180421493009,-3,3,3,1,0,-1,-2,-7
1570180421493009,-2,0,-2,-2,-1,-1,-2,-14
1570180421501981,0,-1,-1,-1,-2,-3,-2,4
1570180421501981,-2,-1,-2,-1,-2,0,-2,-1
1570180421516203,0,-2,-3,-1,-3,-1,-2,-3
1570180421516203,-4,-1,-1,-1,-1,0,-2,-8
1570180421522994,-4,0,-1,-2,0,-1,-1,-8
1570180421522994,-4,-2,0,-1,0,1,-1,-11
1570180421539085,5,-1,-1,-1,-2,1,1,13
1570180421539085,-1,-2,0,0,-1,-1,-1,-5
1570180421540876,-1,-1,0,1,-1,0,2,3
1570180421540876,-10,-2,1,3,-1,0,0,0
1570180421562027,8,-2,-1,-3,-2,-3,-1,5
1570180421562027,-5,-1,0,-2,0,-1,-1,-4
1570180421563813,-6,-1,-1,-2,0,2,1,-3
1570180421563813,8,-1,-3,-2,0,-2,0,2
1570180421576779,-1,3,2,0,-1,0,-4,-6
1570180421576779,-1,-2,-4,-2,-1,0,-2,-8
1570180421577783,1,-1,-1,-1,-3,0,0,8
1570180421577783,2,0,-1,-1,-1,-2,-1,2
1570180421598723,-9,-2,-2,-1,-2,-2,-1,-3
1570180421598723,-9,3,2,1,2,1,3,1
1570180421600719,14,-14,-10,-6,-2,-3,-3,4
1570180421600719,7,0,0,0,0,-1,-1,-8
1570180421621831,-1,-3,-2,-1,-1,-2,-1,-4
1570180421621831,-11,5,3,2,-1,1,0,2
1570180421622658,20,-2,-4,-2,0,-1,-1,3
1570180421622658,-3,0,-3,0,0,-2,0,2
1570180421636871,-2,1,1,2,2,-1,-3,-10
1570180421636871,4,-1,-1,-1,-1,-1,1,6
1570180421637619,0,2,1,1,1,1,4,13
1570180421637619,0,-3,-3,-3,-2,-1,1,5
1570180421658564,0,1,0,-1,-1,0,1,3
1570180421658564,0,-2,-3,0,-1,-2,-2,7
1570180421660556,-5,0,1,1,-1,0,-1,-9
1570180421660556,-6,1,0,1,0,1,-3,-15
1570180421681791,-1,-2,-2,-1,-1,-1,-1,8
1570180421681791,4,-4,0,-1,-1,-1,1,1
1570180421683361,-6,2,0,0,1,0,-1,-2
1570180421683361,1,0,2,1,0,-1,-3,0
1570180421695710,-5,0,-2,-2,-2,0,0,-8
1570180421695710,2,-3,-2,-2,-1,-2,-1,-3
1570180421703442,-3,2,0,-1,0,-2,0,0
1570180421703442,-2,0,-1,-2,-1,0,1,4
1570180421718411,-5,-2,-1,0,-1,0,-5,-21
1570180421718411,4,1,0,0,0,1,0,4
1570180421720396,-8,1,0,2,0,0,0,-10
1570180421720396,-3,-2,-1,0,-3,-1,0,9
1570180421741482,-1,0,-1,-1,-3,-4,-4,-6
1570180421741482,0,-2,-1,-2,-1,0,-1,-3
1570180421743386,-5,0,0,1,-1,0,-2,-7
1570180421743386,-3,0,0,0,0,-1,-1,-11
1570180421756299,5,0,0,-1,0,-1,0,8
1570180421756299,0,1,-2,2,-2,0,0,2
1570180421762470,1,-1,-1,0,0,1,-1,13
1570180421762470,-3,-2,-2,1,-1,-2,-2,-2
1570180421779307,-4,-2,-1,-1,-1,0,0,3
1570180421779307,0,0,-1,0,-1,-1,-1,5
1570180421780524,-1,1,2,1,0,0,-3,-1
1570180421780524,-6,-1,-2,-3,-1,0,-2,-13
1570180421801215,2,-1,-1,-2,0,0,1,13
1570180421801215,-3,-5,-3,-2,-1,1,-2,-8
1570180421803178,-1,0,-1,-1,-2,0,2,2
1570180421803178,0,0,1,0,-1,-2,-3,-4
1570180421816138,2,-1,-1,-1,-2,-1,1,4
1570180421816138,-4,1,1,-1,0,-1,-1,-11
1570180421823256,-11,-2,-1,-1,-1,-1,-6,-22
1570180421823256,7,-2,-3,-1,0,2,3,16
1570180421839076,-1,-1,-2,0,0,1,3,-5
1570180421839076,4,-1,-2,-2,1,-3,0,6
1570180421840073,1,1,0,-1,0,0,1,1
1570180421840073,-3,2,0,-1,0,-1,-1,-6
1570180421861396,1,-1,-3,0,-1,0,2,7
1570180421861396,-2,-1,2,1,-1,-1,-2,-4
1570180421863436,0,-4,0,-1,-2,-1,-3,-3
1570180421863436,2,-1,0,-2,-3,1,1,9
1570180421876239,-4,-1,-1,-3,0,0,-3,-25
1570180421876239,7,0,-1,0,-1,-1,2,28
1570180421882136,-2,-1,-1,0,-2,0,2,-6
1570180421882136,3,1,-1,1,1,2,2,8
1570180421899092,-1,-2,1,0,0,0,-2,-2
1570180421899092,-3,-1,-1,0,-1,-1,-2,-11
1570180421900256,1,1,-1,0,-1,-2,0,2
1570180421900256,-1,-2,-1,-1,-1,-1,-2,0
1570180421921034,2,0,0,0,-2,0,3,7
1570180421921034,1,0,1,0,-1,1,-1,-3
1570180421923030,1,0,-1,0,-1,0,-1,5
1570180421923030,1,0,0,-3,-3,-4,-2,2
1570180421936213,-4,-1,-1,1,0,1,0,-3
1570180421936213,-2,-1,1,0,0,-1,-3,-8
1570180421942980,-2,0,-1,-1,-1,-2,-1,-11
1570180421942980,5,-1,-3,-1,0,0,3,21
1570180421959277,3,0,0,-1,0,0,0,9
1570180421959277,2,0,-2,-2,-1,0,-1,3
1570180421960644,-1,1,0,1,0,0,2,2
1570180421960644,-1,-1,1,0,-1,0,0,-6
1570180421980967,-1,0,0,0,-2,-1,-2,-5
1570180421980967,3,0,-1,-2,-1,-1,2,7
1570180421988001,0,0,0,-1,0,1,-2,3
1570180421988001,-4,-2,-1,0,1,-1,-1,-11
1570180421995840,1,-1,-2,0,2,0,-2,4
1570180421995840,-2,0,-2,-1,0,1,3,5
1570180422002982,0,-1,0,0,0,0,-2,-2
1570180422002982,-1,-2,-1,-1,-1,0,-2,1
1570180422018828,0,-1,0,-2,0,0,0,2
1570180422018828,-3,0,-3,-2,-1,-1,-1,-3
1570180422020767,0,-1,-2,0,-1,-1,-1,3
1570180422020767,1,1,0,-1,-1,1,-2,1
1570180422041838,-2,0,1,-1,-1,-2,0,-2
1570180422041838,-3,-2,-2,-3,0,-2,-2,-2
1570180422042711,0,0,0,-1,-2,-2,-1,1
1570180422042711,-6,0,-2,-1,0,-1,0,-10
1570180422054754,4,1,-1,0,1,0,0,6
1570180422054754,1,-1,1,1,-3,-1,-1,-4
1570180422063733,-1,-3,-1,1,1,0,-1,-6
1570180422063733,2,-2,0,0,-2,-1,-1,8
1570180422078736,-1,-2,-1,-1,-1,1,1,-1
1570180422078736,-2,-1,0,-1,-1,1,-4,-14
1570180422080747,1,0,-2,-2,0,0,0,6
1570180422080747,0,1,-1,-1,1,-1,-1,-1
1570180422101551,-1,1,-1,0,-2,-3,-2,-5
1570180422101551,0,-2,0,-1,0,0,0,0
1570180422103554,0,0,0,-1,0,-1,-2,-3
1570180422103554,-1,1,-1,-1,0,-1,-1,-1
1570180422115788,-4,-1,-2,-1,-3,0,-2,-3
1570180422115788,-2,-1,-2,-1,-2,-1,-2,-1
1570180422123835,0,-2,-1,-1,0,-1,0,1
1570180422123835,-1,-1,-1,0,-1,1,1,-4
1570180422139451,-6,-1,-1,0,1,-1,-7,-39
1570180422139451,8,2,1,0,-1,-1,3,21
1570180422140451,-3,-1,-4,-1,-2,-2,0,0
1570180422140451,0,0,1,0,-2,-3,-2,-4
1570180422161580,-2,-1,-1,0,1,0,0,-4
1570180422161580,-1,-4,-2,0,0,1,1,-6
1570180422163393,0,0,-1,0,-2,-1,-1,0
1570180422163393,-2,-1,1,0,2,0,-1,-1
1570180422175423,0,-1,0,-1,0,-2,0,5
1570180422175423,-2,-1,-3,-1,1,-1,0,-5
1570180422184334,1,0,0,-3,1,-1,-2,-3
1570180422184334,-1,0,-1,-1,-1,-2,-3,-3
1570180422199289,0,0,2,1,-1,-1,1,14
1570180422199289,-3,-3,-1,-1,-1,-2,-1,-6
1570180422200288,0,0,0,0,-2,-2,0,-3
1570180422200288,-1,-2,-2,-2,-1,-2,1,-2
1570180422221403,1,0,0,0,-1,0,-1,8
1570180422221403,-2,0,-2,-1,-2,0,0,0
1570180422223326,1,-2,-2,-1,0,1,1,2
1570180422223326,0,0,0,1,-2,1,-2,-3
1570180422235406,0,-1,-3,-2,-1,-2,2,7
1570180422235406,-3,0,3,3,-1,0,-2,-8
1570180422244172,-2,-3,-3,-3,0,2,3,11
1570180422244172,1,0,-2,1,0,-1,-1,-4
1570180422259245,-1,0,-2,-1,0,0,-1,0
1570180422259245,-1,0,0,0,-1,0,-1,2
1570180422260474,-3,-1,0,0,0,1,-1,-5
1570180422260474,-2,-1,-1,0,-1,1,2,1
1570180422281076,-1,-2,-2,-2,-1,1,1,0
1570180422281076,-1,-2,-2,-1,0,-1,-3,1
1570180422283067,1,1,0,0,-1,-1,0,1
1570180422283067,0,-1,-1,0,-2,0,1,4
1570180422295295,0,-1,0,-1,-1,0,0,-2
1570180422295295,0,-2,-1,0,0,-2,0,-4
1570180422309997,-1,-1,-1,1,-1,-1,1,8
1570180422309997,1,1,-2,0,0,-2,-2,-5
1570180422319180,3,-1,-2,0,0,1,1,11
1570180422319180,1,-1,-2,-1,0,-1,0,2
1570180422320588,2,1,1,-2,-2,-1,-3,-1
1570180422320588,-5,-3,-1,0,0,0,0,-6
1570180422341591,-2,-1,0,1,-1,1,-1,0
1570180422341591,-2,0,0,-1,0,-1,-1,-4
1570180422342907,-2,-2,-1,0,2,-2,-3,-6
1570180422342907,-1,1,0,-1,-1,0,-1,-5
1570180422354875,0,1,0,-3,-1,-3,-1,-3
1570180422354875,2,0,-1,-1,0,0,2,1
1570180422370083,-2,-1,-3,-2,0,0,0,4
1570180422370083,0,-2,0,-2,-1,0,0,-1
1570180422378892,0,0,0,0,0,-2,-2,-2
1570180422378892,-1,-1,-1,-2,-2,0,1,-2
1570180422380807,3,0,0,-1,1,-2,1,4
1570180422380807,-3,-1,0,1,0,-1,-2,-1
1570180422401813,1,-1,0,-1,-1,-1,0,3
1570180422401813,-2,-1,-1,-2,-2,0,0,1
1570180422402751,-2,-1,0,0,0,-1,0,-9
1570180422402751,0,0,0,-2,0,-3,0,3
1570180422414721,-2,-1,0,0,2,0,0,-3
1570180422414721,0,0,0,0,-1,0,-1,-3
1570180422423695,-2,0,-1,-2,0,2,-1,-3
1570180422423695,2,1,0,0,-1,0,-2,0
1570180422438657,-2,-2,-2,1,-3,-1,0,-1
1570180422438657,-1,0,0,-1,0,-1,-1,-1
1570180422440645,1,0,1,-1,-1,0,0,4
1570180422440645,-1,0,-1,-1,-1,1,0,-5
1570180422461594,-2,1,-2,0,-1,-2,-2,-3
1570180422461594,-1,0,-1,1,2,0,0,0
1570180422462616,-2,-2,-1,-1,-1,-2,-3,-3
1570180422462616,1,-1,0,0,0,0,0,3
1570180422483613,-1,-1,-1,-2,-2,-1,-1,0
1570180422483613,-3,-1,-2,-3,-2,-1,0,2
1570180422485524,1,1,1,0,-1,-1,0,4
1570180422485524,-2,0,-2,-2,-1,-1,-1,1
1570180422498488,2,0,0,-1,-2,-1,-1,-5
1570180422498488,-2,-4,-2,-1,-1,1,0,11
1570180422505471,-2,0,-1,-1,-1,-1,-1,-3
1570180422505471,1,0,-1,0,0,0,0,1
1570180422521434,1,-1,-1,-3,1,-2,1,4
1570180422521434,-2,-1,-1,1,-1,-2,-2,-10
1570180422523422,-3,0,-1,0,-1,-1,0,-3
1570180422523422,0,-2,-2,0,1,-1,-3,-15
1570180422543369,-8,-1,2,1,0,0,-5,-14
1570180422543369,1,0,0,-2,0,-1,1,2
1570180422545405,-1,-2,0,-1,0,-2,-1,1
1570180422545405,1,1,0,-1,-1,-1,1,5
1570180422558329,0,-1,-3,-1,0,0,-1,3
1570180422558329,3,0,0,1,-2,0,-2,-1
1570180422560324,-1,0,-2,1,1,-1,-2,-5
1570180422560324,-1,-1,1,-3,0,0,2,2
1570180422580271,1,-1,-2,0,0,-2,-1,5
1570180422580271,0,-2,-1,1,-1,-1,0,1
1570180422596231,1,-1,1,0,-1,-1,-2,-6
1570180422596231,0,-1,-2,-2,0,0,0,5
1570180422604207,0,0,0,0,0,1,1,1
1570180422604207,-4,0,-1,1,0,-2,-2,-4
1570180422605205,3,0,-2,-1,0,2,1,0
1570180422605205,-1,-2,-2,-1,-1,-1,-1,3
1570180422618171,-5,-1,2,1,0,1,-3,-15
1570180422618171,5,0,0,-3,1,-1,1,14
1570180422625260,-2,-1,0,-2,0,-1,-4,-14
1570180422625260,2,1,0,-1,-1,0,2,12
1570180422640110,-1,-2,-2,0,0,-1,1,-1
1570180422640110,2,-1,-1,0,0,-2,0,2
1570180422649087,-5,1,0,2,-1,-1,-1,-1
1570180422649087,0,-1,1,-1,-2,-2,-3,-6
1570180422664050,0,0,-1,-1,0,-1,-2,-1
1570180422664050,-1,-1,0,0,0,0,-1,-1
1570180422666284,1,0,-2,-1,0,0,1,6
1570180422666284,-1,0,-1,1,-2,-1,0,-3
1570180422678008,-1,-2,-1,-3,-3,-3,-1,0
1570180422678008,1,-1,-1,-1,0,5,0,1
1570180422684990,1,-2,1,-2,-1,-1,1,2
1570180422684990,-2,-2,0,0,-1,-1,0,-5
1570180422700968,2,-1,-1,-1,-2,-1,0,4
1570180422700968,-2,-1,-1,1,0,-1,-2,-6
1570180422702946,-1,0,1,0,-1,-1,-1,3
1570180422702946,-2,0,-2,0,0,-2,-1,-8
1570180422724195,0,-1,-2,-1,1,1,1,1
1570180422724195,1,0,0,0,-1,-2,-1,-1
1570180422725192,-4,-2,0,0,-1,0,-4,-8
1570180422725192,2,-1,-1,-1,0,1,6,24
1570180422738159,-2,0,1,-2,0,1,2,-11
1570180422738159,-1,-1,-2,-1,-2,-2,0,2
1570180422745553,3,1,1,1,0,-2,-2,1
1570180422745553,-1,0,-2,-2,1,0,-3,-7
1570180422761886,1,0,0,0,0,-1,-1,5
1570180422761886,-2,-1,-1,0,-1,-1,0,-9
1570180422762506,2,-1,-1,-3,-1,0,2,12
1570180422762506,-1,-1,-1,0,-3,-2,-2,-6
1570180422784070,3,0,0,-1,0,-1,-1,7
1570180422784070,-3,-1,0,-1,-1,-1,-1,-6
1570180422784891,1,0,-2,0,0,0,1,1
1570180422784891,0,-1,0,-1,-2,0,-1,1
1570180422797861,-1,0,-1,-1,-1,0,0,3
1570180422797861,0,-1,0,-1,-1,-1,-4,-4
1570180422812881,-3,-1,-2,0,1,0,0,-5
1570180422812881,-6,-1,-1,-3,0,-2,-4,-18
1570180422820867,-2,-1,-1,0,-1,-1,-2,-4
1570180422820867,0,-1,0,-2,-1,0,0,1
1570180422822864,2,0,1,0,0,0,2,12
1570180422822864,-1,0,0,2,-1,-2,-3,-1
1570180422844173,0,-2,-1,-1,0,-2,0,3
1570180422844173,-6,1,-1,0,0,0,-3,-20
1570180422845093,1,-3,-2,-2,-1,-1,0,6
1570180422845093,-6,-1,1,0,1,0,-2,-8
1570180422858107,1,0,0,0,0,1,-1,-5
1570180422858107,1,0,0,0,-1,0,0,5
1570180422864946,-2,-1,-2,-1,-2,-1,-1,-9
1570180422864946,-1,-1,0,-2,0,0,0,3
1570180422881905,-2,-2,-1,-1,-1,0,-2,-2
1570180422881905,-3,0,-1,-2,0,-1,-3,-8
1570180422882944,-1,1,-2,1,0,-2,-2,-8
1570180422882944,2,-1,0,2,0,1,0,0
1570180422903873,1,-1,0,-2,0,-2,-3,5
1570180422903873,0,-1,-2,-2,-2,-1,1,3
1570180422905950,-2,-2,-1,0,-2,0,-2,-6
1570180422905950,0,-1,-1,1,0,-1,-1,0
1570180422917772,-2,-1,-1,-2,-1,1,-1,-3
1570180422917772,-1,-1,0,1,-2,-2,-3,-11
1570180422926041,0,0,0,-3,-1,-1,-2,-8
1570180422926041,2,0,0,-1,-1,1,0,1
1570180422941103,-1,-1,-1,1,0,-1,0,0
1570180422941103,0,-1,0,0,2,0,-1,4
1570180422947284,-3,0,0,1,-1,0,-2,-9
1570180422947284,5,-1,-1,-1,-1,1,0,5
1570180422964967,1,2,-2,-1,-1,-1,-1,-3
1570180422964967,-1,-1,0,0,-2,-1,0,0
1570180422965831,0,0,0,-1,-2,0,-2,-1
1570180422965831,-3,0,0,-2,1,0,-2,-3
1570180422978794,-2,2,2,2,-1,0,0,-10
1570180422978794,5,-2,-4,0,-1,0,4,19
1570180422985362,1,-2,-2,-1,-1,0,1,1
1570180422985362,-2,-2,-1,-1,0,-1,-1,-1
1570180423001835,0,-2,1,-2,-2,-1,-1,4
1570180423001835,-2,-1,0,-1,0,0,-1,-4
1570180423002828,-1,-1,1,-1,-2,0,2,0
1570180423002828,2,0,-1,-1,-3,-1,0,10
1570180423023927,-1,-1,-4,-1,0,0,1,0
1570180423023927,1,-1,0,-1,-2,-1,0,4
1570180423025935,-1,0,-2,0,0,-1,-2,1
1570180423025935,-3,-1,-1,-1,0,-1,-1,-4
1570180423037901,-2,-2,-2,-1,1,0,0,0
1570180423037901,-2,-2,0,-2,-1,0,0,-3
1570180423046877,-1,0,-1,0,-1,-1,0,-10
1570180423046877,-1,-3,-2,-2,0,-2,0,-1
1570180423061838,-3,-1,-1,0,-2,-1,15,-17
1570180423061838,-11,0,0,0,0,-2,0,-38
1570180423063929,3,0,-1,-1,-1,0,2,32
1570180423063929,-4,0,-1,1,0,-2,-3,-12
1570180423083781,7,-5,-3,-4,-4,1,1,11
1570180423083781,2,1,-1,1,0,2,4,1
1570180423085772,1,0,-1,0,-1,0,-2,-3
1570180423085772,1,0,0,1,-1,-2,-1,3
1570180423096885,-4,1,-1,0,-1,-2,-4,-1
1570180423096885,-1,-1,0,-1,0,-1,-4,3
1570180423106715,1,0,-1,-2,-2,-1,-2,2
1570180423106715,4,1,0,0,1,-2,0,7
1570180423122672,1,0,0,-1,0,0,-5,-3
1570180423122672,4,-1,0,0,-1,0,-3,10
1570180423122672,-5,-1,-1,-1,-1,-1,3,-8
1570180423122672,-2,-3,-1,-3,0,-1,2,-2
1570180423151597,-3,1,0,0,-2,-2,-3,1
1570180423151597,-2,-1,-2,-2,-1,-1,1,3
1570180423152765,1,-1,0,1,-2,-1,-2,-7
1570180423152765,0,-1,-1,0,0,0,-1,1
1570180423157619,-1,0,1,0,1,1,-6,-1
1570180423157619,0,-1,-1,2,0,-1,-1,0
1570180423166558,-2,-2,-2,-1,0,-1,1,-3
1570180423166558,0,0,-1,-1,0,1,-1,4
1570180423181516,-4,-1,-1,-2,0,-2,-4,-12
1570180423181516,3,0,-2,-1,1,-1,3,14
1570180423182514,-2,-1,1,0,2,-1,-2,-5
1570180423182514,2,1,0,-1,-2,0,0,-2
1570180423203464,-1,-1,-2,-1,-1,0,-1,7
1570180423203464,0,0,1,-1,0,0,-3,-6
1570180423205452,1,-1,0,-3,1,-3,0,4
1570180423205452,-6,-1,1,-1,-1,-1,-3,-10
1570180423226398,-1,-1,-1,0,0,0,-2,0
1570180423226398,-2,0,0,0,1,-1,-1,-2
1570180423228390,0,0,-2,0,1,0,1,2
1570180423228390,-3,-1,-1,-1,0,-2,-2,-8
1570180423241357,-1,1,0,1,-2,0,0,-1
1570180423241357,2,-1,0,-2,-2,1,2,8
1570180423243350,-1,-1,1,0,-1,0,-3,2
1570180423243350,-4,-2,-1,-2,-4,-2,-5,-17
1570180423263691,3,1,-1,1,0,-2,0,8
1570180423263691,-5,-4,-4,-1,0,-1,-1,-4
1570180423265455,0,1,1,0,0,-1,-3,-2
1570180423265455,1,0,1,0,-1,0,1,3
1570180423277426,-2,0,1,-1,0,-2,0,9
1570180423277426,-3,-1,-3,-2,-2,-1,3,-10
1570180423286400,-1,0,-2,-2,0,-1,0,-5
1570180423286400,1,0,-2,0,1,0,-1,13
1570180423301361,4,0,-2,-2,0,2,1,2
1570180423301361,-3,-1,2,1,0,0,0,-2
1570180423303358,-1,-1,1,0,0,-1,0,1
1570180423303358,3,-2,-1,0,-3,0,4,4
1570180423323305,-1,-1,-2,0,-1,-1,2,-3
1570180423323305,1,1,1,-1,-1,0,-3,4
1570180423325676,-6,-2,-2,-1,-2,0,-3,-16
1570180423325676,5,2,1,1,0,-1,3,15
1570180423337267,-3,-1,0,0,0,-1,-2,-10
1570180423337267,0,0,-1,-1,-2,-1,-5,-1
1570180423346240,0,-2,-2,-1,-2,0,2,5
1570180423346240,0,-2,-3,-1,-2,-2,-5,-6
1570180423360204,-4,-2,-1,-1,-2,1,-1,-2
1570180423360204,2,-1,0,0,2,-3,0,5
1570180423375163,-5,-2,-3,-1,0,2,3,-10
1570180423375163,-1,1,1,0,-1,-1,0,0
1570180423384141,0,0,-2,-1,0,-1,-2,-4
1570180423384141,2,-1,-1,-1,-1,-2,-2,3
1570180423385137,0,1,0,1,1,0,0,4
1570180423385137,-1,-2,-2,0,0,2,1,0
1570180423397173,-1,-1,0,-2,-1,-3,-2,0
1570180423397173,-3,1,1,1,-1,1,1,-5
1570180423406125,3,-3,-1,0,-1,-1,-3,3
1570180423406125,-8,-1,-1,-2,-2,-1,0,-10
1570180423420083,3,-1,-2,-2,-1,1,3,5
1570180423420083,1,0,-2,-1,0,-2,0,2
1570180423429392,-1,-1,1,0,0,-2,0,3
1570180423429392,0,0,0,-1,0,-1,0,2
1570180423443978,-1,-1,0,-1,-1,1,0,4
1570180423443978,0,0,-1,1,0,0,-1,3
1570180423444978,-1,1,-2,-1,-1,-1,-4,-4
1570180423444978,2,-2,-2,1,-1,0,1,3
1570180423465921,-6,-4,-2,-2,-1,1,13,-20
1570180423465921,2,-1,1,-1,-1,1,7,-5
1570180423467945,1,2,0,0,-1,-2,-3,4
1570180423467945,-1,-1,-1,0,-2,-2,-6,-8
1570180423481029,4,1,2,2,-2,0,1,9
1570180423481029,0,-1,0,-1,1,-2,0,1
1570180423482875,-7,-1,0,-1,0,-1,-2,-18
1570180423482875,-1,1,1,-1,0,-2,-3,-12
1570180423503839,3,1,1,1,0,-1,-3,8
1570180423503839,-1,-1,-2,-1,-2,-1,-2,2
1570180423505814,0,0,-1,0,-3,2,-2,4
1570180423505814,0,-1,-1,0,-1,1,0,0
1570180423525874,-1,0,1,-1,-1,-2,-4,0
1570180423525874,-1,0,0,0,-1,-2,-4,7
1570180423532817,2,-1,-1,-1,0,-1,4,3
1570180423532817,-1,1,0,0,-2,-2,-2,2
1570180423541718,4,-1,-2,-2,-1,0,0,16
1570180423541718,-3,1,0,-1,0,0,-3,-1
1570180423542715,1,0,-1,-1,-1,-3,-3,0
1570180423542715,-2,-3,-1,0,2,0,2,3
1570180423563658,-2,-2,-1,2,0,0,-3,-1
1570180423563658,-1,-2,-3,-1,-1,-1,-2,-2
1570180423565654,2,1,2,1,0,0,2,8
1570180423565654,-1,0,-1,-2,1,1,4,-2
1570180423585600,-1,-1,0,0,1,-3,-1,-2
1570180423585600,0,-1,-1,-1,0,0,-2,-2
1570180423593830,0,-1,0,0,-2,0,0,10
1570180423593830,3,1,0,1,1,-1,0,0
1570180423600972,-2,-1,1,-1,-2,-2,-2,-2
1570180423600972,-2,-2,0,1,-1,1,-2,-3
1570180423607543,-2,-1,-3,-1,-2,0,5,-2
1570180423607543,0,-1,-1,-1,-2,-1,-1,3
1570180423623501,-1,0,-2,0,0,-1,-2,-3
1570180423623501,0,1,-1,-2,-2,0,-1,-5
1570180423625494,-1,-2,0,-2,0,0,-1,-1
1570180423625494,0,-2,0,0,-2,-1,1,2
1570180423646515,-1,-2,-1,-3,1,-2,-3,-5
1570180423646515,-1,-1,-2,0,0,0,1,0
1570180423648170,0,-1,0,1,1,0,-3,-2
1570180423648170,1,0,-1,-1,0,-1,2,2
1570180423660513,-1,1,-1,0,-2,-1,-1,-3
1570180423660513,0,-1,0,-1,-2,-2,-2,0
1570180423667382,0,1,0,-1,-1,-1,-1,-2
1570180423667382,0,-1,-1,-1,2,-1,-1,1
1570180423683419,-1,-1,0,-1,-1,1,1,-1
1570180423683419,-1,-1,-1,-1,0,-2,0,1
1570180423685333,-2,0,-1,0,-1,0,0,-2
1570180423685333,-1,-2,-1,-2,0,-1,-1,0
1570180423706283,-1,0,-1,-1,-1,-1,-3,1
1570180423706283,-1,-1,-1,0,0,0,-2,-3
1570180423708272,5,0,0,0,0,-2,1,7
1570180423708272,-3,-1,-1,0,-2,-1,-2,2
1570180423721237,2,-1,0,0,0,1,1,2
1570180423721237,0,-1,0,-2,-1,0,-1,-4
1570180423727223,-6,-2,-2,-1,0,-1,-2,-10
1570180423727223,0,1,-1,1,-1,0,2,11
1570180423744175,-2,-2,-1,2,0,0,-1,-6
1570180423744175,-1,-2,-2,0,0,-2,0,2
1570180423745174,-2,-1,1,-2,0,-2,-1,-1
1570180423745174,-1,0,-2,-2,-1,0,1,-3
1570180423766117,0,0,0,0,0,-2,0,1
1570180423766117,-1,-1,-1,1,0,-1,0,-2
1570180423768111,-1,-3,-1,0,-1,-4,-1,-1
1570180423768111,-9,-2,1,-1,0,-1,-2,-15
1570180423781076,-1,1,0,0,-1,-1,-2,0
1570180423781076,0,0,-1,-2,-1,0,-1,-2
1570180423787060,2,-2,0,0,-1,-1,-1,1
1570180423787060,1,-1,1,-1,0,0,0,0
1570180423804017,-3,-2,-2,-3,0,-1,-2,-13
1570180423804017,-1,1,1,1,-1,-3,0,0
1570180423805013,1,0,-1,-1,0,0,0,4
1570180423805013,0,-2,-2,-1,0,-2,-2,2
1570180423826343,1,-2,-2,0,0,1,0,0
1570180423826343,1,-1,-2,-2,-1,2,1,2
1570180423827951,-1,-1,-1,0,-2,1,-1,-2
1570180423827951,2,0,-2,3,-1,-1,0,4
1570180423840917,2,0,-1,-2,-3,-1,1,8
1570180423840917,0,-1,-2,-1,-2,-1,-2,-3
1570180423846900,-2,-2,0,0,-1,0,0,1
1570180423846900,0,-2,-2,-2,1,1,0,-4
1570180423863855,-2,0,1,0,0,-2,-1,4
1570180423863855,0,1,-1,1,0,-2,-1,-1
1570180423864853,1,2,-2,0,-1,0,0,-3
1570180423864853,-2,0,-1,-1,-1,0,-3,0
1570180423885797,-1,0,-1,-1,-1,0,-1,-2
1570180423885797,0,-2,0,-2,0,-1,-1,1
1570180423888069,-1,-1,-1,-2,0,-2,0,1
1570180423888069,-1,0,-2,0,0,-1,2,-1
1570180423900756,0,-1,0,1,-2,1,0,-1
1570180423900756,2,-1,0,2,0,-1,-1,6
1570180423907739,-2,-1,0,-1,0,-1,0,0
1570180423907739,2,-1,-1,-2,-1,1,1,6
1570180423923695,0,-2,0,0,0,0,0,4
1570180423923695,-2,0,0,-2,0,-2,-6,-20
1570180423929680,2,0,-1,1,-1,-1,1,5
1570180423929680,-1,0,-1,-2,-1,-1,0,-2
1570180423946634,-1,0,-2,-1,0,-1,2,3
1570180423946634,-2,0,-3,-1,-3,1,1,2
1570180423947631,0,-1,0,0,0,-1,-2,-5
1570180423947631,1,-1,0,-1,1,-1,0,0
1570180423960597,1,-1,1,-2,-2,-1,-3,-2
1570180423960597,-3,-1,-1,0,0,0,-2,0
1570180423984533,-1,-1,-1,-2,-1,-1,-1,0
1570180423984533,0,-1,-1,-1,-2,-2,-3,1
1570180423985531,2,0,-2,-1,0,0,1,5
1570180423985531,0,-2,0,1,-1,1,0,-9
1570180423986527,1,-2,-3,-3,-2,0,-1,1
1570180423986527,-3,-1,0,-1,-2,-2,-2,-3
1570180424006475,-3,-1,1,-1,1,0,0,-5
1570180424006475,1,-1,0,0,0,-2,1,8
1570180424007472,-1,-1,-1,-1,-2,0,-2,2
1570180424007472,2,-2,1,2,0,-1,-1,-3
1570180424019439,2,-2,-1,0,0,0,-1,4
1570180424019439,-1,1,1,-1,1,-1,1,3
1570180424034399,-1,-1,-1,0,-1,0,0,-4
1570180424034399,-1,-1,-1,0,-2,-2,0,-1
1570180424043375,-4,1,1,1,0,-1,-4,-1
1570180424043375,0,-3,-2,-1,0,0,0,1
1570180424045467,-1,-1,-2,-1,0,0,-2,-1
1570180424045467,1,0,1,-1,-1,0,0,-2
1570180424066340,2,-1,-2,-2,-2,-1,2,6
1570180424066340,-2,-1,-1,-1,-1,-1,-1,-2
1570180424067311,-1,1,0,0,0,-3,-1,-4
1570180424067311,2,0,-2,-2,0,0,1,14
1570180424080278,-1,1,0,-2,1,-2,-1,-5
1570180424080278,1,0,-1,0,-1,1,1,4
1570180424095236,-1,-2,0,1,1,0,-1,-1
1570180424095236,-2,-2,-1,-1,0,-1,0,-3
1570180424104213,-3,-1,-2,0,-1,-1,-3,-5
1570180424104213,0,0,-1,-2,-1,0,0,2
1570180424105210,1,1,-1,0,0,0,2,8
1570180424105210,-1,0,0,-1,-1,1,0,-5
1570180424126154,0,1,-1,0,0,-1,-1,-2
1570180424126154,-1,-1,-1,1,1,-2,-1,-1
1570180424128149,-2,-2,0,1,-2,-2,-4,-4
1570180424128149,-2,0,-2,-1,0,-1,-1,-1
1570180424140116,1,0,-1,0,-2,-1,-2,-7
1570180424140116,-2,-1,-1,0,0,-1,-3,2
1570180424149094,1,-2,-1,-1,-1,1,1,-1
1570180424149094,1,0,-2,1,-1,0,-1,4
1570180424164052,-3,-2,-3,-2,-1,0,0,-14
1570180424164052,-1,-2,-2,-1,0,0,2,-1
1570180424166049,0,1,1,1,1,-1,-2,-4
1570180424166049,-1,1,-1,1,-1,-2,-2,-4
1570180424186111,3,-2,0,-1,-1,-2,2,11
1570180424186111,0,1,-2,-2,-1,0,0,1
1570180424187992,-2,-1,-2,-2,1,-1,0,-4
1570180424187992,0,1,-1,-1,-2,-1,-1,-4
1570180424199956,-1,0,0,0,0,0,-2,-1
1570180424199956,-1,-2,0,-3,-3,-1,-2,1
1570180424208933,0,-1,0,0,-2,-1,0,-1
1570180424208933,-2,-2,-1,-1,1,0,0,0
1570180424223893,0,-1,-1,0,-1,-1,0,-2
1570180424223893,-5,-1,0,0,-2,1,-2,-10
1570180424224906,3,-1,-1,-1,-1,-1,0,5
1570180424224906,-2,-1,0,-1,-2,1,-1,-1
1570180424245834,-3,-3,-3,-3,-1,0,0,1
1570180424245834,0,1,1,2,1,-1,0,-1
1570180424247829,-4,-1,1,-3,0,0,-3,-4
1570180424247829,0,0,0,0,-3,-1,0,1
1570180424259799,0,1,-2,1,0,0,1,2
1570180424259799,-1,0,0,-1,0,0,-1,-3
1570180424268774,2,0,-2,0,-1,0,2,6
1570180424268774,0,0,0,1,-1,-2,-2,-6
1570180424283733,-1,-2,-1,0,-1,-1,1,-1
1570180424283733,0,0,-2,-1,0,0,0,8
1570180424285728,1,1,1,3,-1,-3,-1,0
1570180424285728,-3,-2,-1,-2,1,-1,-1,-3
1570180424306672,0,-1,1,1,-2,-1,0,2
1570180424306672,1,-1,-3,-1,0,-1,1,-1
1570180424307669,-1,-1,-1,-2,-1,0,-2,1
1570180424307669,-1,-1,0,0,2,-1,0,-3
1570180424319719,1,1,1,0,-2,-2,-1,6
1570180424319719,0,-1,0,0,-1,0,-1,-3
1570180424328613,-3,-3,-1,-1,-3,0,3,-6
1570180424328613,-1,-2,-1,0,0,-1,-4,-14
1570180424343573,-1,0,1,-1,0,1,1,2
1570180424343573,-2,0,-1,-1,-2,-1,-4,2
1570180424345570,0,-1,-2,-3,1,0,-1,1
1570180424345570,0,-2,0,-1,-2,-3,-4,4
1570180424365563,2,-2,-1,0,-1,0,1,0
1570180424365563,0,-1,-2,0,-1,0,-1,-1
1570180424373515,-3,0,0,-1,-1,-1,-2,0
1570180424373515,-1,-1,0,-1,-1,-1,0,5
1570180424379478,0,-2,-2,0,1,-1,-1,-3
1570180424379478,1,-1,0,-1,-1,-1,1,0
1570180424388455,-1,2,-1,1,-1,-2,-3,-3
1570180424388455,1,0,-1,-2,2,1,3,4
1570180424403472,-4,0,0,0,0,0,-3,-5
1570180424403472,0,-1,0,-3,0,0,1,-2
1570180424405409,0,-2,0,0,-1,1,0,-1
1570180424405409,-2,0,-2,-1,1,0,0,-1
1570180424426412,1,1,0,-1,-1,-1,-4,-4
1570180424426412,1,0,-1,-1,1,0,0,6
1570180424428347,0,-1,0,0,-1,-1,0,3
1570180424428347,-1,-1,-1,-1,-2,0,1,1
1570180424449522,-2,-3,0,0,-2,0,1,-1
1570180424449522,0,0,1,1,0,1,4,14
1570180424451340,0,1,-2,-1,0,1,0,-2
1570180424451340,1,0,0,-1,-1,-1,0,-6
1570180424464250,-2,-1,0,-1,-1,-2,0,1
1570180424464250,-1,-1,1,1,-2,-3,-2,-8
1570180424465250,-3,-1,1,-1,0,-1,1,-4
1570180424465250,2,0,-1,0,-1,2,1,3
1570180424486193,-1,-1,0,1,0,-2,-1,-1
1570180424486193,-1,-2,0,-1,0,-2,-2,-5
1570180424488188,1,-1,-1,-2,-2,-1,-2,-2
1570180424488188,4,0,-1,-2,-3,0,3,7
1570180424509131,-2,0,0,-3,-3,-1,-2,1
1570180424509131,-1,-1,-2,-2,-1,0,0,-2
1570180424510129,1,1,-1,-1,-1,0,-1,0
1570180424510129,-2,-2,-1,0,0,-1,-3,1
1570180424523098,-2,-2,-1,-1,0,-1,-1,-5
1570180424523098,2,0,-2,0,0,0,2,7
1570180424530079,0,-1,0,0,0,0,-1,0
1570180424530079,-1,-2,1,-1,-2,-1,-3,-5
1570180424546306,-1,-1,-1,0,-2,-1,-2,-2
1570180424546306,-1,0,-2,0,-2,-1,-1,-1
1570180424548035,-1,-3,0,0,-1,-1,-1,1
1570180424548035,-1,1,-1,0,0,-2,-2,-3
1570180424568970,-2,-2,-2,-2,-1,-1,-4,-14
1570180424568970,-1,-1,1,-1,0,1,-3,-6
1570180424569969,-1,-2,0,-1,1,0,-2,-2
1570180424569969,-1,-1,1,0,1,1,1,3
1570180424582939,-1,0,1,0,0,1,-2,-3
1570180424582939,1,0,-3,-2,-2,0,3,3
1570180424590917,0,1,0,0,-1,-3,-3,1
1570180424590917,-3,-3,-2,-1,0,-2,0,4
1570180424604922,0,0,-2,0,0,1,1,6
1570180424604922,-2,-2,-1,1,-1,-2,-2,-5
1570180424613851,0,-1,-2,0,0,-1,2,2
1570180424613851,1,0,-3,-1,-1,1,0,3
1570180424628816,0,0,-1,-1,0,-1,0,5
1570180424628816,-5,0,-2,-1,-1,0,-2,-7
1570180424630805,-3,0,-1,-2,0,0,-1,1
1570180424630805,1,0,0,0,0,-2,-3,-5
1570180424643024,-1,-2,0,0,1,0,1,0
1570180424643024,-1,0,0,-1,0,-1,-1,-3
1570180424651805,-1,0,-2,-1,-2,0,2,-3
1570180424651805,-2,0,-2,-1,-1,0,1,-1
1570180424666711,-2,0,0,-1,1,-1,2,3
1570180424666711,2,-1,-1,0,0,0,0,2
1570180424667709,-3,-2,-1,-1,-1,1,-1,-4
1570180424667709,0,1,0,0,0,-1,-1,1
1570180424688652,-1,-1,-1,0,-1,-2,0,-2
1570180424688652,-1,-1,1,1,0,-2,-1,-2
1570180424690646,0,-1,-3,0,-1,-1,0,0
1570180424690646,-1,-1,-1,-1,-2,0,-3,-1
1570180424703611,1,1,-3,0,-2,0,-2,0
1570180424703611,-4,-2,0,-1,-1,-2,1,-10
1570180424709597,3,0,0,0,0,-1,2,9
1570180424709597,-2,0,0,0,0,-1,2,0
1570180424726755,1,0,-1,-2,-2,-1,-1,1
1570180424726755,0,-1,-1,-3,-1,-2,-3,-1
1570180424728549,-1,-1,-1,-1,-1,-1,-1,3
1570180424728549,0,-1,-1,-1,-1,0,-2,-7
1570180424748491,-4,-1,-1,-1,-3,2,0,-3
1570180424748491,5,0,1,1,0,0,0,8
1570180424750486,-2,0,1,-2,-1,-2,-3,-7
1570180424750486,2,0,-1,-1,0,-1,2,8
1570180424763768,-2,-1,0,-1,0,-1,-2,-7
1570180424763768,-3,-1,-2,-2,-1,0,-2,-2
1570180424769437,-2,-1,-2,0,-1,0,0,-3
1570180424769437,-4,0,-1,-1,1,-1,0,-8
1570180424786388,1,-1,0,-2,1,0,-1,3
1570180424786388,0,0,0,0,1,-2,0,2
1570180424788009,1,-1,0,0,1,0,-1,-2
1570180424788009,-1,0,3,0,-1,0,0,2
1570180424809333,-2,0,-1,-2,-1,-1,-3,-13
1570180424809333,0,-1,0,0,-1,0,-1,-1
1570180424810327,-1,-1,-2,-1,-1,0,0,-2
1570180424810327,0,-2,1,0,-1,-1,1,5
1570180424823293,2,0,0,1,0,0,0,7
1570180424823293,-2,-1,0,-1,-1,-2,0,-1
1570180424830272,-3,-1,-2,-3,-2,1,-3,-11
1570180424830272,1,0,-1,-4,-1,0,0,-3
1570180424846229,0,0,3,3,-1,-2,-1,-1
1570180424846229,-1,1,-1,-2,1,0,-4,-4
1570180424848323,1,-1,-1,-1,-1,0,-2,5
1570180424848323,-3,-1,-1,-1,-1,-1,-2,-14
1570180424869203,1,1,-2,0,-1,0,1,2
1570180424869203,-1,-1,0,0,0,-1,1,-3
1570180424870466,1,-2,0,-1,0,-1,-1,1
1570180424870466,0,-1,-1,0,0,-1,0,2
1570180424883132,2,0,-1,0,1,-1,0,0
1570180424883132,-1,-1,0,-1,-1,1,0,0
1570180424891110,-2,0,0,-2,0,-2,1,-4
1570180424891110,0,-1,-2,-1,0,0,0,3
1570180424906070,-1,-1,-2,-1,0,1,2,4
1570180424906070,0,-2,0,-2,-3,1,1,1
1570180424908064,-1,0,2,-2,1,-1,-2,-4
1570180424908064,1,-1,-1,-1,1,1,-2,3
1570180424928011,-3,-2,-1,-1,0,-3,-4,-13
1570180424928011,3,-1,-1,-2,1,1,1,6
1570180424929009,1,0,-1,0,-1,-1,-3,0
1570180424929009,-1,-1,0,0,-2,-2,-3,-4
1570180424950949,-1,-2,-1,-1,0,0,0,0
1570180424950949,-1,-1,-3,0,-1,0,0,-3
1570180424952055,-3,-1,0,0,1,-2,1,0
1570180424952055,0,-1,0,1,0,0,0,3
1570180424965912,0,-1,0,-1,-1,-1,-1,3
1570180424965912,-2,0,0,1,0,0,0,0
1570180424965912,-1,-1,-3,-1,-1,-2,1,2
1570180424965912,-2,1,0,-2,-1,0,-1,-3
1570180424987855,-1,-1,1,0,0,-1,0,3
1570180424987855,-1,0,-1,-2,-1,-1,-1,3
1570180424988849,0,-1,0,0,-1,0,-4,-10
1570180424988849,-1,1,1,0,-2,-2,-5,-1
1570180425010788,3,0,1,0,1,1,2,11
1570180425010788,-1,-1,1,-1,0,-2,-1,-3
1570180425011832,0,1,-2,2,0,1,0,3
1570180425011832,-1,0,-3,-2,-1,1,1,-5
1570180425025797,-1,0,-1,-1,-1,-1,-1,-2
1570180425025797,-2,-2,0,0,-1,-2,-1,0
1570180425026747,-1,2,0,-1,-2,-2,-1,0
1570180425026747,0,-1,0,-1,1,0,1,-5
1570180425048689,0,-2,-4,-2,0,1,4,13
1570180425048689,-2,1,1,1,0,-2,-3,2
1570180425048689,2,-2,-3,-2,0,1,2,3
1570180425048689,0,-1,-2,-1,0,-1,0,0
1570180425071632,0,0,0,-2,-1,-1,0,-2
1570180425071632,0,-2,-3,-2,-1,1,-1,-3
1570180425071632,1,1,2,1,-1,0,0,4
1570180425071632,0,-1,0,0,0,0,0,2
1570180425085665,-4,1,0,0,-1,1,-1,-13
1570180425085665,9,0,-2,0,0,1,4,18
1570180425086588,-1,-1,0,0,0,-3,-7,-2
1570180425086588,0,-2,-1,-2,0,-1,2,8
1570180425108527,-1,0,1,1,0,-2,-3,-4
1570180425108527,-2,0,-2,-3,0,0,-1,-7
1570180425108763,-2,-2,-1,1,0,1,0,-1
1570180425108763,0,2,-1,0,-2,-1,-3,1
1570180425131469,1,0,1,-2,-2,-1,-6,6
1570180425131469,-2,-2,0,-2,-1,0,0,2
1570180425132464,0,-2,-3,-2,1,1,6,16
1570180425132464,-1,1,1,2,-1,-1,-2,-7
1570180425145468,-3,-1,-2,-1,-2,-1,-3,-12
1570180425145468,-3,-1,-1,1,0,0,0,-3
1570180425146427,-1,-2,0,-2,-2,0,-3,-4
1570180425146427,-1,-1,-1,-1,1,-1,1,1
1570180425168370,0,2,-2,-1,-2,0,1,0
1570180425168370,-2,0,0,0,-1,-2,-2,-5
1570180425169367,0,-1,0,-2,-1,-1,-2,-6
1570180425169367,-1,-1,-1,-1,0,0,0,1
1570180425190313,-4,-1,0,1,1,0,-1,-2
1570180425190313,4,-1,-3,-1,0,-1,1,9
1570180425198402,0,2,-1,-2,0,-2,-2,-6
1570180425198402,-1,-2,1,-1,0,-2,0,-2
1570180425205270,0,-1,-2,-2,-3,-1,1,2
1570180425205270,-1,0,-1,-1,0,1,-1,-4
1570180425206267,-3,-1,-1,0,-1,-2,0,-2
1570180425206267,-1,-2,-2,-2,-2,1,-1,0
1570180425228219,-1,-1,-1,-2,-1,1,1,-5
1570180425228219,3,2,3,0,1,-1,-1,6
1570180425229213,-2,1,-2,0,1,-1,-1,1
1570180425229213,-1,-1,-1,0,-1,-1,-3,-6
1570180425259129,-1,-1,1,-1,0,-1,-1,3
1570180425259129,1,0,-3,-2,-1,-1,1,4
1570180425259129,-1,-1,0,1,0,0,1,-2
1570180425259129,2,1,0,-2,-1,-1,0,5
1570180425266142,1,0,-1,0,-2,0,1,3
1570180425266142,-5,-1,0,0,-2,-3,-3,-9
1570180425266142,0,0,-1,0,-1,0,1,-1
1570180425266142,1,1,0,-1,-1,-1,2,1
1570180425288054,1,-3,-1,1,0,-2,-1,0
1570180425288054,-7,-3,-3,-1,-3,-2,-5,-23
1570180425289082,0,-1,0,-1,-2,-1,1,-1
1570180425289082,-2,-1,-1,-1,0,0,-1,-4
1570180425311983,-1,0,-1,0,1,-1,1,1
1570180425311983,-1,0,0,-1,0,-1,-2,0
1570180425312853,-1,-1,-1,0,0,0,0,-1
1570180425312853,-2,-1,-2,0,-2,-2,-2,1
1570180425326306,3,2,2,0,-1,-1,-8,1
1570180425326306,-4,-2,0,1,0,0,-2,-10
1570180425326943,-1,-1,0,-1,-1,1,1,-2
1570180425326943,-4,-1,0,0,1,1,-1,-2
1570180425347891,-2,0,-1,-2,0,-2,8,-11
1570180425347891,-1,0,1,1,1,2,10,10
1570180425348978,0,-1,-1,0,1,-1,-1,-1
1570180425348978,-2,0,0,0,-1,-1,-2,1
1570180425371830,0,-1,-3,-1,-2,0,-4,1
1570180425371830,-1,0,-2,-3,-1,1,1,-2
1570180425371830,0,1,2,0,1,-1,0,-2
1570180425371830,-3,-2,-2,-1,1,0,3,-2
1570180425385789,2,-1,0,-1,0,-1,3,-1
1570180425385789,3,0,-1,0,-2,-2,-2,2
1570180425386824,-1,-1,-2,0,-2,0,-2,-1
1570180425386824,-1,2,2,-1,-2,-1,-4,-4
1570180425407764,-2,1,1,1,1,0,-1,2
1570180425407764,-1,0,-2,1,-1,-2,-4,1
1570180425408850,-1,0,0,-1,0,-1,-4,-9
1570180425408850,3,-1,1,0,1,-1,3,14
1570180425431665,0,-2,-1,-2,-1,-1,0,0
1570180425431665,-6,-2,0,-1,0,-2,-5,-13
1570180425431810,3,0,-3,0,-1,0,1,3
1570180425431810,-1,-1,-1,-2,-1,-2,-1,-4
1570180425445785,1,-1,0,0,0,-2,-1,1
1570180425445785,2,-1,1,-1,0,-3,-4,3
1570180425446625,0,0,0,-1,0,-1,1,0
1570180425446625,-1,-2,-1,0,-1,-2,-2,-1
1570180425468569,0,1,0,-2,-1,1,0,9
1570180425468569,0,-1,-1,0,0,-1,1,-8
1570180425469355,-2,2,1,0,-2,-4,-4,-6
1570180425469355,2,1,-2,-1,0,0,2,3
1570180425491588,-1,-1,-2,-1,-1,2,-3,-2
1570180425491588,2,-1,0,-1,0,0,0,11
1570180425492532,0,-1,-1,-1,0,1,4,14
1570180425492532,-1,-1,-1,1,-2,-2,0,-4
1570180425505469,-6,-3,-3,0,-1,2,11,-14
1570180425505469,-4,-2,-1,-1,-1,2,7,-9
1570180425506517,-1,-2,1,-2,0,-1,-4,-5
1570180425506517,0,0,0,1,-2,0,-3,5
1570180425528405,1,-1,-1,-2,-1,-1,-2,2
1570180425528405,-1,0,-1,-1,-2,0,1,-2
1570180425528405,-2,0,-1,0,-1,-2,0,0
1570180425528405,-2,-1,0,-1,-1,0,1,-7
1570180425550351,1,0,0,-1,-1,-2,-3,-2
1570180425550351,1,-1,-1,-1,-1,-2,-2,5
1570180425551344,-2,-2,-2,-2,-1,-2,-3,-1
1570180425551344,2,1,-1,0,0,-2,-4,2
1570180425565556,-1,0,-2,0,-1,-1,-5,0
1570180425565556,-1,-1,0,-2,-1,-1,-7,-12
1570180425566305,0,0,1,0,-1,1,2,1
1570180425566305,1,0,-1,-1,0,0,-3,-2
1570180425588244,0,2,1,1,2,-1,1,4
1570180425588244,0,-2,0,-2,-1,-3,-3,0
1570180425595540,-2,-2,-3,-2,-1,-1,1,-7
1570180425595540,2,-1,-2,-2,0,0,3,5
1570180425611183,-1,-1,2,0,-1,-2,-4,-3
1570180425611183,2,0,0,0,1,0,-1,8
1570180425612181,1,-2,-3,-1,-1,1,0,5
1570180425612181,-2,-2,-1,0,1,-2,-4,-7
1570180425625361,-2,-1,-2,-1,0,-3,-1,-1
1570180425625361,-1,0,-2,0,0,2,1,5
1570180425633128,-3,1,0,-1,-1,-2,-2,-5
1570180425633128,-2,0,-2,-1,-1,-1,1,-4
1570180425648354,-2,-1,-1,-1,-2,0,0,-3
1570180425648354,1,1,-1,-1,-1,1,3,6
1570180425649082,-1,2,0,0,0,-2,-4,-8
1570180425649082,-1,0,-1,0,-2,0,2,0
1570180425671184,-1,-2,0,1,-2,3,2,9
1570180425671184,0,-1,-4,-2,-2,-1,2,1
1570180425672022,0,-2,1,0,-3,0,0,2
1570180425672022,-4,-3,-1,-3,1,2,14,-16
1570180425685985,-2,-1,-2,0,-1,-2,1,-15
1570180425685985,-4,-2,0,-1,-1,-1,-4,-4
1570180425685985,0,-2,-2,-1,-1,1,2,4
1570180425685985,-3,-2,-1,-2,1,0,-4,-7
1570180425707924,0,-1,-3,-1,0,1,4,1
1570180425707924,1,0,-1,0,-1,-1,-2,1
1570180425708922,0,0,-2,0,-1,0,1,-2
1570180425708922,-2,-1,1,-2,0,0,-2,6
1570180425730867,2,-1,-1,-1,0,0,-4,1
1570180425730867,1,0,1,0,1,-2,-2,-1
1570180425732035,1,0,-2,-1,-1,-1,-1,6
1570180425732035,3,0,1,1,-1,-2,-4,3
1570180425745827,-3,-4,-1,-2,-1,-3,-7,-9
1570180425745827,-1,-1,0,1,-2,1,0,-3
1570180425747334,-1,0,-2,-1,0,1,2,1
1570180425747334,-1,0,0,1,-1,-2,-5,-1
1570180425767768,-1,2,-1,-2,2,-1,-2,1
1570180425767768,-1,0,0,-1,-1,-1,-1,-2
1570180425768983,-5,-2,-3,-3,-1,1,2,-5
1570180425768983,1,-2,-3,-1,0,0,-4,3
1570180425791804,0,-2,2,0,0,-1,-3,1
1570180425791804,-3,-1,0,-1,-1,-1,1,5
1570180425791804,1,-2,0,1,1,0,0,2
1570180425791804,0,0,1,-1,-2,-1,-2,-2
1570180425805838,2,0,-2,0,-1,0,0,0
1570180425805838,-1,-1,0,1,1,-1,0,-2
1570180425806662,2,-1,2,0,1,1,3,15
1570180425806662,-1,-2,-2,-1,-2,-1,1,6
1570180425827607,0,1,1,-1,-2,-1,-4,-4
1570180425827607,-5,-1,-2,-1,-1,2,12,-23
1570180425828610,5,5,3,2,0,1,-2,3
1570180425828610,0,-1,0,-1,-1,-3,-8,-4
1570180425851540,0,-2,1,-2,0,0,2,6
1570180425851540,0,0,0,0,1,-2,-2,-2
1570180425852539,-1,-1,-1,-1,-1,-2,-1,1
1570180425852539,-2,-1,1,1,-1,2,1,-4
1570180425865546,-2,-2,-2,-1,-1,-2,1,0
1570180425865546,0,-1,0,1,-2,-2,-4,0
1570180425866502,-2,-1,-1,-1,-1,-1,-2,-4
1570180425866502,0,-1,0,-2,-1,2,0,5
1570180425888444,-1,0,0,0,-1,-1,-1,2
1570180425888444,-4,-1,0,0,-1,0,-4,-5
1570180425888444,1,0,-1,-1,0,-2,-1,1
1570180425888444,1,2,0,-1,0,-1,3,4
1570180425911383,-1,1,-1,1,1,1,3,-3
1570180425911383,-1,-3,-3,-3,-1,-1,-1,-3
1570180425912379,4,1,2,0,-1,-3,-11,6
1570180425912379,-1,-1,-2,1,-1,-2,-1,-3
1570180425925388,0,1,1,2,-2,-1,-1,7
1570180425925388,4,1,0,0,0,-1,1,15
1570180425933353,-4,-3,-1,-1,0,-1,2,-10
1570180425933353,-1,0,-1,0,-1,1,9,-7
1570180425948328,3,1,-1,-1,-3,0,-12,12
1570180425948328,-1,0,0,0,-2,0,-4,-4
1570180425949279,-6,-3,-1,-1,-1,0,2,-15
1570180425949279,-1,1,0,1,0,-4,-7,0
1570180425971222,-2,-3,-1,-2,0,-2,3,-8
1570180425971222,1,-1,0,-3,1,1,-1,15
1570180425972503,-2,-3,-2,-3,-1,-2,-4,0
1570180425972503,0,-1,-1,-2,0,0,-2,1
1570180425985183,0,-2,-2,0,-2,1,3,-1
1570180425985183,1,0,1,0,2,-2,-2,-1
1570180426001141,-2,-2,-1,-1,1,1,4,-15
1570180426001141,5,-1,-1,-1,1,0,2,18
1570180426008549,-4,-1,-3,-3,0,0,2,-7
1570180426008549,-3,0,0,-1,0,-1,-1,-8
1570180426009018,8,3,-1,1,-2,-1,-14,22
1570180426009018,-2,-2,-1,-2,0,-2,-1,-2
1570180426031714,-3,0,-1,-1,-2,2,2,-4
1570180426031714,4,3,2,1,0,0,-5,7
1570180426031714,-1,2,2,0,0,0,5,6
1570180426031714,0,-1,-1,-1,-1,1,-2,-2
1570180426044670,-1,0,2,1,-1,0,-2,-1
1570180426044670,0,-1,-3,-1,-1,-2,-1,-2
1570180426052771,-2,-1,-1,0,-1,0,3,-5
1570180426052771,-1,-2,-1,0,-1,0,-2,-6
1570180426067868,-2,1,0,-2,0,-2,0,2
1570180426067868,1,-1,-2,-1,-1,1,5,10
1570180426069065,1,-2,-1,-3,-1,-2,-2,-7
1570180426069065,-1,-1,1,1,-1,-2,-5,-5
1570180426091673,0,-2,-1,0,-1,-1,0,3
1570180426091673,0,-2,-3,0,-2,0,-1,0
1570180426091673,-1,-1,-1,-2,1,2,2,6
1570180426091673,-4,-2,-2,-3,0,-1,2,-5
1570180426104720,2,-2,0,0,0,1,-1,4
1570180426104720,-2,-1,0,-1,-1,-2,-1,-4
1570180426113327,-5,-2,-1,0,-1,1,4,-8
1570180426113327,1,2,2,1,0,-3,2,7
1570180426127893,-1,0,0,0,-1,-2,0,-9
1570180426127893,-2,0,-1,0,0,1,1,0
1570180426129009,-2,0,-2,-1,-1,-1,0,-3
1570180426129009,-1,1,-1,1,0,0,-2,-1
1570180426151040,0,1,-1,-1,0,-2,-3,1
1570180426151040,-7,-2,-1,-1,-2,2,8,-11
1570180426152082,2,0,2,2,-1,0,5,7
1570180426152082,1,-1,-2,0,1,2,0,9
1570180426164974,-2,-1,0,0,0,-1,0,-2
1570180426164974,-2,-1,-1,-1,-2,-3,0,-2
1570180426173778,-1,-1,0,-2,-1,0,-2,-2
1570180426173778,-1,-1,0,-1,-1,-1,2,-5
1570180426188729,1,-2,-1,-1,-1,0,0,1
1570180426188729,-2,-1,0,-1,-1,0,-6,-13
1570180426188729,-1,-2,-2,0,-1,-2,-1,-2
1570180426188729,0,-1,1,0,0,0,-1,1
1570180426211358,-3,-1,-1,-1,-1,-2,-5,-7
1570180426211358,0,0,-2,-1,0,0,-1,1
1570180426212351,2,1,0,-2,-1,-2,-3,-1
1570180426212351,0,-2,-2,-1,-3,2,-1,9
1570180426225240,0,0,-1,0,0,1,0,-1
1570180426225240,3,0,2,1,-1,0,1,4
1570180426233951,0,0,1,-1,-1,1,-1,6
1570180426233951,-3,-1,-1,-1,-2,0,0,-11
1570180426256494,0,-1,0,-2,0,1,2,3
1570180426256494,4,-2,-2,-2,-1,0,-1,12
1570180426257364,-4,-2,-1,0,0,-2,-4,-12
1570180426257364,-4,0,-1,0,0,-2,0,-4
1570180426271024,-5,-4,-1,-1,1,1,-3,-10
1570180426271024,-4,0,1,0,1,0,2,-1
1570180426272150,-3,1,0,-1,-3,-1,1,-3
1570180426272150,3,-1,-1,-3,-4,-1,-2,8
1570180426293958,-2,0,0,0,-4,-3,-5,-12
1570180426293958,-6,-6,-6,-4,-2,-3,-3,-12
1570180426294960,14,-2,1,1,2,0,2,8
1570180426294960,-26,-2,0,0,1,0,-1,-52
1570180426308061,-4,-4,-2,1,6,2,-6,19
1570180426308061,8,12,3,-2,1,0,1,4
1570180426309000,19,-4,-9,-8,-13,-5,-10,1
1570180426309000,-16,6,7,1,-1,-1,2,7
1570180426330514,23,6,0,-4,-3,0,2,2
1570180426330514,29,21,-8,0,2,2,7,7
1570180426331464,-64,-25,-4,-2,3,-1,-1,-11
1570180426331464,52,-22,0,2,3,-2,-2,12
1570180426353408,-23,26,16,13,4,0,3,-6
1570180426353408,27,3,0,0,1,4,-2,12
1570180426354404,-6,-11,1,4,4,2,1,-8
1570180426354404,-31,0,1,-4,-6,-4,-7,-12
1570180426368514,32,13,-8,-8,-2,1,5,11
1570180426368514,4,-9,-14,-3,-3,-5,-1,-5
1570180426369362,17,12,8,-1,-1,-1,0,7
1570180426369362,-4,-27,9,8,3,2,0,6
1570180426390427,24,19,5,8,6,4,11,11
1570180426390427,-80,-34,-11,-13,-8,-6,-14,-32
1570180426391301,-33,-18,-6,-10,-1,0,-3,-3
1570180426391301,52,10,-25,1,5,2,4,3
1570180426413244,14,23,8,2,-2,-3,-2,-4
1570180426413244,-2,4,16,9,2,0,1,5
1570180426420226,1,-3,20,7,1,1,0,1
1570180426420226,-2,3,-18,-15,-4,-1,-5,1
1570180426429207,-16,-42,-25,-1,1,0,4,-7
1570180426429207,1,10,23,1,1,1,0,-11
1570180426430275,16,10,-26,-7,-3,-1,0,-10
1570180426430275,3,18,17,4,0,1,5,3
1570180426451142,-26,-20,-11,-7,-6,-3,-7,-13
1570180426451142,11,4,-13,-10,-4,-4,-6,2
1570180426451362,15,11,12,6,4,1,1,5
1570180426451362,-8,2,15,6,-3,-3,1,0
1570180426473084,11,15,15,-3,-6,-5,-4,2
1570180426473084,-44,-37,-14,0,-1,0,-5,0
1570180426481203,19,22,-13,-10,5,3,6,4
1570180426481203,3,-5,-4,-1,2,2,0,9
1570180426488120,24,5,14,9,2,3,0,11
1570180426488120,-11,7,17,11,-2,0,1,3
1570180426489040,3,2,1,-2,-3,-5,-4,0
1570180426489040,21,30,-21,-13,-4,-3,-3,9
1570180426510983,-57,-52,-3,-1,2,-1,-2,2
1570180426510983,36,9,-18,-4,1,0,2,9
1570180426510983,-17,-14,6,4,-1,-1,-1,0
1570180426510983,3,5,-8,-4,0,2,0,1
1570180426533951,50,41,-5,-8,-5,-2,1,7
1570180426533951,-3,-18,7,2,0,-1,-2,-2
1570180426534986,20,27,19,12,5,1,1,4
1570180426534986,-89,-51,-10,-5,-4,-1,-5,-17
1570180426548242,-5,7,-5,-3,-3,-5,-5,-5
1570180426548242,-4,-25,3,4,1,0,0,-3
1570180426548879,17,9,-4,-3,-1,1,2,6
1570180426548879,-11,-10,-3,0,-1,-2,-3,-5
1570180426570883,18,19,11,-2,-2,2,2,3
1570180426570883,-23,-5,2,-1,-1,-2,-1,-1
1570180426570883,-34,-18,-16,-4,-4,0,0,-5
1570180426570883,26,22,7,0,-2,0,4,9
1570180426593758,-13,-39,-4,1,2,1,2,2
1570180426593758,43,23,-18,-14,-8,-5,-6,-15
1570180426594756,-44,-1,6,0,1,-1,-2,-2
1570180426594756,1,-11,24,19,7,0,0,-5
1570180426607909,9,15,-1,0,-1,2,2,1
1570180426607909,-76,-41,-11,-2,-2,1,1,-3
1570180426608776,-14,-6,-10,-4,-5,0,-2,-4
1570180426608776,26,32,7,-5,-5,-7,-4,0
1570180426630663,0,4,8,7,6,-2,1,7
1570180426630663,56,22,16,9,6,3,8,24
1570180426631662,-62,-53,-25,-9,-6,-3,-8,-21
1570180426631662,-14,-5,-5,0,-1,6,5,13
1570180426653854,44,4,-12,-8,-7,-1,-4,-4
1570180426653854,7,20,-1,-3,-2,-3,0,0
1570180426654597,46,-9,11,9,5,2,4,9
1570180426654597,-16,-1,-4,-7,-12,0,0,-3
1570180426668219,-28,-23,-7,-2,-4,-2,0,2
1570180426668219,112,46,12,3,1,-1,0,4
1570180426669217,-56,-22,-10,-1,-2,-7,-8,-23
1570180426669217,-28,-21,-10,-3,0,-4,1,1
1570180426690492,73,44,28,9,3,1,-2,5
1570180426690492,-22,-42,-29,-8,-5,3,3,-3
1570180426691157,23,33,16,4,7,5,1,7
1570180426691157,12,-19,-11,-4,2,2,3,4
1570180426714096,-23,-6,-25,-16,-9,-4,4,1
1570180426714096,-20,23,30,20,8,-6,-5,-4
1570180426715196,31,9,8,2,0,-1,1,4
1570180426715196,31,3,2,-1,0,-3,-2,-3
1570180426728062,-24,-23,-16,-8,-5,-1,-1,-7
1570180426728062,-5,5,-14,-9,-4,-2,0,1
1570180426729060,16,13,25,17,6,0,-1,-5
1570180426729060,28,-8,7,9,2,-2,-3,-12
1570180426751065,2,-3,-4,-3,-1,-1,-2,-10
1570180426751065,-84,-26,-9,-8,1,0,-4,-11
1570180426751065,55,18,-15,-7,-16,-3,2,24
1570180426751065,-22,12,6,1,0,0,-3,-1
1570180426773941,-34,-26,-18,-6,-2,-1,0,-5
1570180426773941,28,35,42,18,6,1,0,17
1570180426774938,4,-3,-30,-18,-4,-2,-2,2
1570180426774938,-25,-25,9,9,4,1,-2,-6
1570180426788038,-30,-7,-17,-10,-5,0,-2,-7
1570180426788038,17,17,9,1,0,2,3,12
1570180426788895,-1,-24,-4,-1,-10,-3,-2,-12
1570180426788895,17,9,-14,-9,8,-2,-3,0
1570180426810838,15,24,18,9,7,1,0,9
1570180426810838,-32,-24,-18,-8,-3,-1,-1,-30
1570180426811836,6,-8,3,-3,0,-4,3,-7
1570180426811836,25,18,-16,-15,-24,0,-1,-12
1570180426833780,-12,-8,9,16,14,0,-2,-13
1570180426833780,5,-1,15,5,8,3,-1,-9
1570180426834774,-18,17,-1,-1,-4,-2,-2,-8
1570180426834774,52,6,-2,-5,-1,-1,-3,8
1570180426847740,-97,-32,-5,-6,-14,-9,-5,-15
1570180426847740,29,-5,-7,1,3,6,1,22
1570180426855716,-11,5,-1,1,12,4,4,11
1570180426855716,2,5,12,11,15,-2,6,11
1570180426870682,17,8,11,5,3,6,-11,-5
1570180426870682,4,-13,-18,-13,-21,-8,-1,-8
1570180426871677,9,1,5,1,8,2,-2,-16
1570180426871677,-32,-1,-8,-1,-2,-3,-3,3
1570180426893836,8,-13,-7,2,3,0,6,28
1570180426893836,64,47,11,-2,-5,-9,-7,-1
1570180426894614,24,-26,9,-2,-4,2,-3,20
1570180426894614,-4,10,5,2,1,1,1,10
1570180426907578,14,12,-2,2,3,3,9,-20
1570180426907578,-32,-43,-19,-9,-5,-5,-19,-35
1570180426916559,4,10,-3,4,0,-6,0,-13
1570180426916559,24,2,6,2,3,4,0,-14
1570180426939496,3,1,6,-2,-2,-2,0,6
1570180426939496,19,28,-3,3,5,0,5,4
1570180426939496,-12,-31,-8,0,-4,-3,2,-2
1570180426939496,-37,-2,-3,-4,-8,-3,-2,-3
1570180426955451,26,19,-2,-8,-3,-3,0,-9
1570180426955451,10,8,11,16,5,0,0,5
1570180426956553,6,24,-8,-5,-5,-2,-2,9
1570180426956553,-11,-33,17,3,0,5,3,11
1570180426967524,2,-6,-7,-3,-1,1,-3,0
1570180426967524,-64,-17,2,0,3,2,2,-2
1570180426976394,64,46,-2,-6,-6,-4,-7,-7
1570180426976394,-47,-14,-6,-1,-2,-3,-7,-16
1570180426999335,28,14,-2,-2,-3,-6,-10,-3
1570180426999335,12,-7,3,0,-1,3,8,30
1570180426999335,-45,-14,-3,1,0,-8,-2,-23
1570180426999335,52,24,-5,-4,0,15,10,31
1570180427014295,-36,0,10,7,1,3,15,-1
1570180427014295,17,1,-5,-5,-2,-2,5,-2
1570180427014295,-47,-29,-2,1,2,3,17,-14
1570180427014295,2,1,-7,-4,-2,-9,-12,2
1570180427027264,11,12,3,-1,-2,5,1,17
1570180427027264,12,-8,-7,-6,-2,3,-1,-6
1570180427036238,-17,-5,2,0,-3,-5,3,11
1570180427036238,-1,4,6,4,0,-6,-4,-22
1570180427051196,-17,-14,-13,-8,-4,2,-2,-13
1570180427051196,-37,7,-1,0,-7,-3,-3,-8
1570180427052192,21,-5,-2,-3,0,2,-7,-11
1570180427052192,-3,5,-2,0,1,1,5,1
1570180427074140,-3,-5,-5,1,0,-3,-5,-11
1570180427074140,29,14,-4,-6,-6,-3,-1,13
1570180427074140,-10,-2,9,5,3,4,2,-3
1570180427074140,16,14,1,-4,-4,-1,0,-4
1570180427087207,-13,-12,-4,-1,0,-8,1,6
1570180427087207,-27,-12,3,3,4,-1,1,-2
1570180427096083,51,17,3,6,7,8,3,18
1570180427096083,1,13,1,-4,-2,-4,-3,-2
1570180427111035,20,-4,-2,-2,-1,-7,-3,9
1570180427111035,-60,-26,-3,0,-4,9,0,-18
1570180427111035,-8,4,4,0,2,-1,-1,-2
1570180427111035,-10,-17,-13,-5,-2,3,2,-11
1570180427140956,-18,1,8,6,3,-5,-5,-4
1570180427140956,-9,-9,-12,-8,-1,-6,-2,8
1570180427148937,45,26,19,7,-3,-3,-3,2
1570180427148937,-45,-24,-6,-4,1,2,-3,-15
1570180427149996,8,-4,2,2,-6,0,0,0
1570180427149996,-9,1,2,2,12,3,3,-10
1570180427155918,-2,4,-15,-12,-24,-1,2,18
1570180427155918,3,3,7,7,14,-5,-3,-5
1570180427170874,23,10,2,-2,-2,3,-1,6
1570180427170874,22,-1,-13,-10,-6,2,3,13
1570180427171874,-38,-21,-4,3,13,1,-2,-7
1570180427171874,55,26,-1,1,-7,-1,0,0
1570180427193815,14,18,18,7,7,0,-1,6
1570180427193815,26,13,3,3,1,-1,0,-1
1570180427194905,-14,-13,-5,-4,3,2,0,6
1570180427194905,-28,-16,-9,-12,-26,-4,2,7
1570180427207825,9,-5,-3,1,22,5,0,4
1570180427207825,19,10,-3,3,12,1,-1,7
1570180427215760,-16,19,24,15,14,6,3,3
1570180427215760,31,-1,-1,-2,-9,-6,-5,4
1570180427230853,-8,0,-20,-10,-8,-1,-2,3
1570180427230853,-17,-21,14,3,-10,-3,1,-1
1570180427231713,-21,3,-6,-4,-4,2,0,-8
1570180427231713,15,11,4,3,-2,-4,2,6
1570180427261639,-13,-34,-8,-2,3,-3,0,-21
1570180427261639,13,11,-3,-2,2,1,0,14
1570180427261639,11,-8,-5,-1,-8,-5,-5,5
1570180427261639,-15,5,1,5,12,0,-6,-32
1570180427276593,-10,-13,2,-3,-4,0,-4,-3
1570180427276593,18,5,-3,-4,-20,-1,-1,4
1570180427276593,3,-4,-5,-14,-7,-4,-6,-4
1570180427276593,-20,-13,-8,-1,21,2,4,4
1570180427291569,-6,9,-3,-8,-11,-3,-5,-12
1570180427291569,-38,-23,1,4,0,-2,-4,-16
1570180427291569,-2,-3,-4,-7,-22,-3,-2,0
1570180427291569,-3,-5,-24,-18,5,1,1,5
1570180427313539,-28,5,27,23,11,0,-1,-11
1570180427313539,35,13,1,-6,-23,-6,-4,3
1570180427314492,18,9,-3,1,4,0,-3,-9
1570180427314492,-46,-11,4,4,-2,-3,0,3
1570180427336467,-9,-23,-25,-13,1,12,3,-2
1570180427336467,-2,21,14,10,8,0,-2,-4
1570180427337436,18,1,2,3,5,1,-1,4
1570180427337436,48,16,11,4,-6,3,2,8
1570180427350490,-48,-16,-8,-7,-12,-4,1,-9
1570180427350490,-1,12,5,3,15,4,3,6
1570180427351391,34,3,-16,-14,-16,-6,-5,-5
1570180427351391,7,11,7,14,20,8,4,4
1570180427373338,9,-14,16,13,5,-2,-5,-12
1570180427373338,20,9,-8,-7,0,-6,-3,8
1570180427374331,-27,-16,-3,-3,-16,4,3,0
1570180427374331,-37,-3,-3,-8,-23,-21,-10,-18
1570180427396273,25,32,-4,-3,1,-3,-4,13
1570180427396273,-36,-36,-2,8,14,12,6,-10
1570180427397379,-3,-10,-3,0,11,6,1,5
1570180427397379,11,-9,5,3,-4,1,-3,-2
1570180427410235,-5,28,10,3,-4,-4,4,-11
1570180427410235,28,6,-5,-5,-4,-9,-5,-14
1570180427411233,-17,6,2,-1,-5,-5,2,6
1570180427411233,-9,-21,0,2,8,6,-4,-28
1570180427441157,64,10,-4,-6,-7,-3,-2,30
1570180427441157,-76,-35,-4,3,5,-2,-12,-41
1570180427442275,-17,-13,-4,-3,2,-3,-2,-23
1570180427442275,-2,8,1,1,-2,0,3,17
1570180427456202,15,3,-1,-1,-3,4,3,-13
1570180427456202,9,7,-1,-5,-2,3,5,3
1570180427458108,-16,1,6,5,11,1,2,-14
1570180427458108,22,-8,-6,-5,-2,1,3,10
1570180427470074,-14,-13,-6,-4,-1,-1,4,-13
1570180427470074,4,-6,2,1,-2,0,-6,3
1570180427479128,15,29,3,9,10,-1,0,-4
1570180427479128,-38,-11,10,6,1,3,4,-11
1570180427494011,-5,-5,-6,-5,-3,-3,-9,8
1570180427494011,6,1,0,0,0,-2,2,13
1570180427500440,-36,-10,-4,-3,1,-3,-1,3
1570180427500440,13,15,5,5,3,10,-4,-9
1570180427516952,7,-4,1,-2,-13,-6,0,4
1570180427516952,-7,3,-6,-5,2,-3,1,8
1570180427517946,8,-3,2,5,10,3,-1,-1
1570180427517946,-23,10,0,-4,-5,1,2,5
1570180427546302,-21,-3,1,5,3,8,0,9
1570180427546302,40,12,1,-2,-4,-15,2,23
1570180427547867,-1,-33,-16,-8,4,3,-6,-5
1570180427547867,-27,4,12,5,-3,-9,-5,-2
1570180427553850,2,-1,-1,-1,-1,2,1,23
1570180427553850,9,1,-5,0,-20,0,1,12
1570180427555846,12,14,4,5,25,3,2,-1
1570180427555846,9,1,-4,-1,0,3,-2,2
1570180427576789,-9,3,-1,1,4,-1,-1,5
1570180427576789,-2,-2,-4,-2,9,3,4,4
1570180427578789,-6,16,6,2,-7,-2,0,-2
1570180427578789,-1,-37,-5,-4,-6,-5,-3,20
1570180427589759,-13,0,4,6,6,-2,1,3
1570180427589759,42,14,5,0,6,13,4,9
1570180427598731,15,6,-6,-2,-5,0,3,14
1570180427598731,0,-12,-11,-5,-8,-6,-2,8
1570180427613692,13,4,3,-2,-1,0,0,-2
1570180427613692,-11,11,-2,0,4,1,-1,-5
1570180427619836,14,-14,-5,-5,-8,-9,-7,-8
1570180427619836,9,5,-2,-4,-3,6,6,6
1570180427636674,16,-2,-4,-6,-8,-5,-3,4
1570180427636674,10,-1,-1,1,8,-2,-2,-1
1570180427644059,13,-5,-3,-3,-9,-4,-1,4
1570180427644059,-22,-10,-3,-1,-7,0,0,3
1570180427658628,6,0,1,-3,12,2,-1,-18
1570180427658628,-13,-3,-1,-3,-5,2,1,2
1570180427664555,8,5,5,5,-2,-4,-1,8
1570180427664555,-22,7,7,2,-3,-2,-1,-18
1570180427673805,-15,-24,-5,2,-8,-2,4,12
1570180427673805,-9,-7,-5,-5,9,-1,-3,0
1570180427675526,-1,-3,-3,1,2,0,-1,-6
1570180427675526,10,17,-4,-3,-1,-2,0,3
1570180427697467,-38,-17,2,3,-3,2,3,-8
1570180427697467,18,21,-4,-9,-14,-4,-3,-1
1570180427698464,-32,-22,0,1,2,1,0,4
1570180427698464,38,12,-2,-6,0,-2,-3,-5
1570180427710435,6,23,1,-1,-3,-6,-6,-13
1570180427710435,-12,-8,0,0,-5,-1,-1,-5
1570180427719409,17,17,12,4,-1,0,-2,-3
1570180427719409,-28,4,0,5,4,1,0,-9
1570180427733448,-17,-31,-12,-10,-1,0,-1,2
1570180427733448,-3,5,8,6,-4,-2,-3,-11
1570180427735367,1,9,10,0,-1,1,0,-6
1570180427735367,7,-9,-7,-4,-7,1,1,4
1570180427756364,36,20,7,7,19,-1,-2,2
1570180427756364,-21,-21,-15,-16,-21,9,4,8
1570180427758303,-3,9,11,14,32,-16,-9,-5
1570180427758303,5,-7,-12,-11,-12,16,-1,0
1570180427770271,4,3,-1,-5,-12,1,-1,-5
1570180427770271,14,4,9,8,12,-2,1,1
1570180427779252,-67,-23,-10,-7,-17,-1,-3,-23
1570180427779252,32,10,13,10,18,-6,-1,8
1570180427794227,7,15,-6,0,0,-1,2,7
1570180427794227,-10,-31,-5,-4,-4,-2,0,-4
1570180427795205,-8,-21,-10,-9,-11,3,5,1
1570180427795205,31,30,1,2,8,-4,2,7
1570180427824136,-32,-4,10,10,-3,4,1,-9
1570180427824136,40,14,4,5,9,-3,-5,-14
1570180427825265,-19,-6,-7,-7,-10,3,-1,-2
1570180427825265,-11,-8,2,-1,-2,-3,0,-1
1570180427830538,12,2,-3,-5,-1,-1,-3,-1
1570180427830538,-5,-5,-3,2,-6,-2,-1,1
1570180427839142,-20,-2,-1,-5,-23,-2,-3,-11
1570180427839142,0,-5,2,9,36,-6,-3,-7
1570180427854147,23,27,-1,-7,-5,6,1,18
1570180427854147,-4,4,3,6,4,-12,-4,1
1570180427855046,28,5,-9,-10,-10,11,4,6
1570180427855046,-23,-14,3,0,-5,0,-4,-6
1570180427876561,15,-4,-2,1,4,-4,0,10
1570180427876561,-22,-1,0,-3,-4,0,-1,1
1570180427877987,-4,-1,-3,-6,-3,-3,-1,-5
1570180427877987,24,26,6,-3,-6,-4,6,-4
1570180427889951,-11,-38,-9,1,9,-1,-4,3
1570180427889951,-1,-6,-2,-5,-8,-1,-1,-1
1570180427898929,7,0,-2,4,6,-5,0,4
1570180427898929,9,8,-1,-5,-3,0,1,9
1570180427912890,4,7,1,-2,-8,-2,1,-3
1570180427912890,-14,8,0,3,1,0,0,6
1570180427919872,35,2,6,7,10,0,-2,14
1570180427919872,-15,-1,-5,-4,-7,-4,-6,0
1570180427943808,-66,-34,-2,1,0,3,0,-7
1570180427943808,4,1,-5,-7,-3,2,0,9
1570180427945803,12,15,11,10,9,3,2,-3
1570180427945803,15,-9,-10,-11,-12,-3,1,-3
1570180427949793,7,9,0,-3,-3,-3,8,8
1570180427949793,-21,-2,0,1,4,0,6,-10
1570180427958769,1,3,-2,-3,-3,-11,-2,8
1570180427958769,-7,0,3,2,3,12,2,-9
1570180427981709,16,-7,7,3,2,-2,-1,-12
1570180427981709,12,-8,-5,-3,-3,0,-6,3
1570180427982704,-14,-5,-1,0,0,1,-2,-1
1570180427982704,16,27,1,0,-3,-2,-5,10
1570180427996981,-31,-29,-8,-5,-3,-2,3,12
1570180427996981,-21,-1,9,7,3,2,2,3
1570180427998661,49,20,0,-3,-3,-4,-11,9
1570180427998661,0,-8,-2,0,-1,-6,-2,15
1570180428009631,19,13,1,1,0,11,4,16
1570180428009631,-27,-5,0,-2,-4,-6,-4,-17
1570180428018710,-4,-6,1,3,2,2,2,9
1570180428018710,-14,-12,2,1,2,5,8,11
1570180428033569,21,14,-4,-4,-8,-13,-10,20
1570180428033569,-8,-10,-1,0,0,3,1,6
1570180428057505,6,-2,-8,-6,4,1,3,13
1570180428057505,-7,-13,4,8,5,8,0,9
1570180428057505,-3,-1,-3,-1,2,-1,-1,0
1570180428057505,-3,1,2,3,3,1,-1,3
1570180428059499,-5,9,-1,-5,-7,-3,0,11
1570180428059499,-44,-4,2,6,3,-1,0,-12
1570180428069475,11,-4,-11,-7,-6,-6,-4,11
1570180428069475,-3,-6,4,4,5,4,-3,0
1570180428079450,-3,-5,0,2,2,3,1,0
1570180428079450,19,-4,-11,-12,-18,-5,1,15
1570180428093411,-12,15,3,3,13,-1,-3,-4
1570180428093411,-1,6,3,3,5,0,2,-6
1570180428107377,-3,-3,1,0,-3,2,3,0
1570180428107377,6,-1,-2,-3,10,-1,-4,-3
1570180428116346,-1,-2,-3,-7,-17,-4,1,-3
1570180428116346,-1,-2,1,1,0,-4,0,1
1570180428118356,-10,-1,3,1,12,7,2,-8
1570180428118356,16,-14,-10,-6,-13,-8,-2,3
1570180428130316,-28,3,6,4,1,1,0,-11
1570180428130316,-6,0,-7,-3,0,-2,1,-1
1570180428145270,18,12,7,6,0,1,1,-6
1570180428145270,-9,-2,-2,1,0,-1,-2,-2
1570180428161228,-11,-13,-12,-9,-4,-1,-2,10
1570180428161228,23,1,-3,-3,2,-3,-2,0
1570180428163308,18,5,-6,-5,-9,-3,-2,-7
1570180428163308,-12,-7,2,-3,-4,-3,-4,-2
1570180428176752,-24,2,5,3,0,-2,-4,-10
1570180428176752,-2,6,-6,-5,-3,-1,3,7
1570180428178181,14,8,-1,-5,-9,-3,-4,5
1570180428178181,-34,-4,10,8,13,1,-2,-11
1570180428190443,36,14,-5,-3,-7,-1,-1,4
1570180428190443,-9,-11,-5,-5,0,1,0,4
1570180428206283,-6,-6,-3,-4,-8,-4,3,-6
1570180428206283,13,7,5,-4,-22,-1,2,5
1570180428221068,1,3,2,7,25,2,-2,-1
1570180428221068,18,11,8,2,-1,1,0,1
1570180428223062,-11,-10,-8,-6,-3,0,2,4
1570180428223062,-10,-6,0,2,0,0,-1,0
1570180428236027,22,11,-1,2,4,1,1,-6
1570180428236027,10,-2,-3,-5,-2,0,-3,-1
1570180428238023,-7,-1,8,6,8,1,-3,-6
1570180428238023,-18,-9,-10,-11,-6,-1,0,6
1570180428258970,36,-2,-3,-7,-8,-1,-1,5
1570180428258970,2,6,-5,-2,4,0,-1,-8
1570180428259963,4,11,2,3,1,1,-2,-4
1570180428259963,18,-2,2,7,8,2,2,9
1570180428273985,-29,-25,-9,-3,-9,-5,-3,3
1570180428273985,28,37,32,7,-4,1,0,-4
1570180428279915,0,-8,-1,3,5,1,0,-1
1570180428279915,-28,-4,7,3,-10,-5,-6,-17
1570180428295872,3,2,-12,-6,-2,-2,-2,11
1570180428295872,-9,-6,-15,-7,-3,-2,0,15
1570180428297864,-22,-19,0,1,4,0,1,0
1570180428297864,27,35,-11,-1,7,1,3,16
1570180428318852,5,-19,34,6,-10,2,2,-1
1570180428318852,-14,-12,-9,-6,-34,-6,0,19
1570180428320878,9,22,8,18,45,5,-2,-5
1570180428320878,6,-22,-17,-9,0,-2,-2,9
1570180428332767,-3,22,10,7,13,7,2,-4
1570180428332767,36,-6,9,15,3,2,6,27
1570180428341746,-17,-18,-13,-12,-17,-7,-8,-2
1570180428341746,13,9,11,7,2,-3,-3,8
1570180428356709,-3,1,-22,-22,-20,-5,0,-5
1570180428356709,2,-3,13,3,11,2,-1,1
1570180428362786,-15,-12,-5,-1,-7,-2,1,4
1570180428362786,-3,-4,0,2,8,2,2,-1
1570180428379687,8,15,3,1,-1,-2,0,9
1570180428379687,-31,-28,-22,-11,-3,-1,-3,-11
1570180428381639,12,11,6,-1,-2,-2,0,6
1570180428381639,15,1,5,-6,-12,-2,1,3
1570180428392628,-10,-25,-25,1,9,7,3,10
1570180428392628,-6,25,20,4,4,-4,-3,0
1570180428401589,18,31,18,9,0,2,-2,-5
1570180428401589,3,-15,-10,-4,-5,0,2,0
1570180428424522,-9,11,12,4,0,2,1,-1
1570180428424522,-7,-16,-27,-4,6,0,1,11
1570180428425521,-6,-25,-11,-13,-23,-4,-1,11
1570180428425521,-8,-3,3,0,21,0,-7,-5
1570180428438487,22,0,3,9,5,0,2,16
1570180428438487,-10,5,1,-5,-22,-3,-2,-17
1570180428440479,-27,8,0,3,13,-1,3,1
1570180428440479,-16,-13,-6,-5,-15,-1,0,-11
1570180428452454,6,7,4,2,2,-5,-3,3
1570180428452454,4,0,2,1,4,2,-1,-3
1570180428461429,15,-10,2,3,-7,-1,0,8
1570180428461429,3,7,-9,-8,-3,-2,0,7
1570180428476389,-16,-3,14,10,5,4,1,-2
1570180428476389,-12,-11,-1,0,-2,-1,-3,-8
1570180428482635,14,11,-10,-7,-2,0,0,7
1570180428482635,-4,-11,-1,-1,3,1,8,7
1570180428498524,-8,7,6,3,1,0,-1,-7
1570180428498524,0,-18,-13,-7,2,-5,-7,-12
1570180428500321,-4,-4,-3,-2,0,1,0,5
1570180428500321,12,8,5,6,3,0,2,6
1570180428512293,5,2,1,-1,-1,0,0,-1
1570180428512293,11,11,2,4,5,1,2,1
1570180428521330,-20,-8,-1,-1,-2,-1,-2,1
1570180428521330,5,2,2,-1,-6,-3,2,-4
1570180428536573,-8,-1,-3,-3,-3,-2,-7,-5
1570180428536573,2,3,-1,1,4,1,-4,-6
1570180428538220,-1,1,0,-3,-4,-1,1,-5
1570180428538220,9,-7,3,4,1,0,2,9
1570180428559164,15,-3,-9,-6,-4,0,10,16
1570180428559164,-42,-8,4,3,4,-3,-6,-19
1570180428560381,45,6,-1,-3,-2,6,0,12
1570180428560381,6,2,-1,-1,-2,0,-4,1
1570180428572127,33,12,-1,-2,1,-3,2,2
1570180428572127,-66,-21,-2,-3,-4,-1,0,-15
1570180428581109,67,14,-5,0,0,-3,4,20
1570180428581109,-32,-2,3,-3,-4,-4,-13,-26
1570180428596069,-6,-2,-1,3,-1,-1,0,28
1570180428596069,22,6,-3,-1,1,1,9,41
1570180428598059,-9,-6,-12,-3,-1,-4,-4,65
1570180428598059,4,11,-10,-11,-3,-1,-4,92
1570180428619002,-17,-16,25,19,6,2,-23,84
1570180428619002,20,5,-3,0,1,1,-3,104
1570180428620003,-40,-18,-2,1,-3,-3,12,46
1570180428620003,13,14,0,-3,-1,-1,1,65
1570180428632967,-5,3,-5,-6,-2,3,13,21
1570180428632967,15,2,-2,-4,-4,-5,-3,-4
1570180428647925,-15,-12,-8,-4,-3,-2,-6,-53
1570180428647925,-3,11,13,9,4,3,2,-71
1570180428656907,30,4,5,-3,0,4,3,-50
1570180428656907,23,-6,19,16,6,4,-3,-49
1570180428657898,-7,-1,-5,-7,-3,1,3,-10
1570180428657898,28,5,-1,3,-2,-10,2,4
1570180428678842,-93,-42,-24,-14,-6,3,-1,-49
1570180428678842,23,9,-7,-1,1,0,9,-26
1570180428679840,0,19,16,5,-1,0,0,-42
1570180428679840,-13,-37,-10,0,-1,0,-10,-60
1570180428692805,37,20,4,2,0,-4,2,-15
1570180428692805,1,3,-6,-6,-4,-1,-6,-44
1570180428701782,-31,-27,-11,-8,-6,-5,-14,-73
1570180428701782,17,35,14,8,3,-1,3,-34
1570180428716741,0,-15,-13,-5,-4,-7,-7,-64
1570180428716741,-23,11,-1,-1,2,-1,-22,-26
1570180428717744,40,23,5,-3,-1,0,3,20
1570180428717744,76,11,14,11,-6,7,9,9
1570180428738778,-10,-36,-20,-14,14,-8,-13,-77
1570180428738778,-23,-9,-1,5,-1,0,7,-14
1570180428740677,-11,-18,-6,3,5,8,3,1
1570180428740677,-15,7,-7,-10,0,-15,-12,-27
1570180428752923,8,17,7,4,-8,13,14,-1
1570180428752923,13,3,-8,-14,-12,-1,2,5
1570180428761621,1,9,11,9,11,2,0,26
1570180428761621,-53,-23,1,4,13,0,1,-21
1570180428776587,114,48,3,0,-13,-6,2,28
1570180428776587,18,-17,-2,-7,-2,-3,-16,-19
1570180428777581,-32,-24,1,10,0,1,3,-7
1570180428777581,7,-8,-21,-13,-4,-2,6,1
1570180428798527,9,27,27,11,5,-3,-15,21
1570180428798527,3,-7,-9,1,-12,2,7,0
1570180428800578,1,19,12,-5,1,-2,-2,0
1570180428800578,-17,-13,-7,-1,-5,2,-4,-2
1570180428821461,-58,-18,-8,-5,2,6,12,-6
1570180428821461,9,7,7,9,5,-2,5,9
1570180428823458,14,6,3,2,7,-4,-5,14
1570180428823458,3,8,-4,-10,-13,1,-1,1
1570180428836425,-8,12,6,-4,-6,-5,0,-16
1570180428836425,-27,-26,-9,0,-3,0,-10,-3
1570180428838415,45,10,-1,12,-4,3,5,8
1570180428838415,0,9,4,-9,-6,-18,-9,-15
1570180428858363,-29,-19,-10,-1,7,20,4,-22
1570180428858363,25,19,4,-5,-2,-11,11,8
1570180428865344,-2,8,8,-3,-5,9,4,7
1570180428865344,-38,-25,-6,8,-1,-12,-10,-19
1570180428872324,4,-11,-13,-12,-11,-4,-4,19
1570180428872324,-20,1,-2,-3,3,0,-1,-10
1570180428881301,5,1,3,1,-2,-1,-3,7
1570180428881301,14,-2,-3,-3,1,12,12,0
1570180428895269,-48,-9,1,9,-2,-8,-5,-20
1570180428895269,19,6,6,6,3,-6,2,44
1570180428904240,-4,9,-3,-4,-3,-9,0,-9
1570180428904240,23,5,8,3,4,1,-2,-7
1570180428919304,31,11,-5,-6,-1,-2,-2,-10
1570180428919304,-23,-9,-3,-6,0,2,-1,0
1570180428920198,33,-6,-4,-2,-4,-1,-7,-25
1570180428920198,32,27,6,1,2,-1,5,28
1570180428932165,-70,-34,-6,1,5,-2,-6,14
1570180428932165,23,16,0,-2,7,-8,3,11
1570180428941143,-32,-12,-9,-15,-20,-8,-7,-15
1570180428941143,-9,-10,-1,2,-3,7,1,-2
1570180428956101,44,15,0,0,0,-4,9,25
1570180428956101,9,10,3,3,3,0,-14,11
1570180428962090,-25,-15,-3,-1,10,6,-6,17
1570180428962090,5,-4,0,-5,-8,-3,-4,10
1570180428979040,9,14,15,18,1,4,-1,7
1570180428979040,-2,-4,-3,-8,0,2,7,-12
1570180428980038,-17,-6,-3,-1,3,-7,-5,-14
1570180428980038,-7,-10,-8,-7,-3,-7,-5,15
1570180428993003,17,3,1,-5,-3,6,4,18
1570180428993003,3,-3,2,4,0,5,3,6
1570180429001978,12,2,-4,-5,-2,2,3,3
1570180429001978,-23,-5,-3,0,3,5,7,-32
1570180429015947,-3,-1,5,4,0,-12,-14,3
1570180429015947,7,2,-2,0,1,17,5,-3
1570180429022927,-13,-1,1,0,-1,-20,-3,-16
1570180429022927,3,1,4,5,7,9,9,18
1570180429038879,-3,-7,-6,-5,-2,-2,3,-16
1570180429038879,-26,-5,0,-2,-16,-36,-6,-80
1570180429040875,27,13,8,7,11,24,11,13
1570180429040875,-13,-5,-2,2,-1,-8,-5,-9
1570180429052843,5,3,-2,-3,5,7,4,-8
1570180429052843,6,3,-2,-1,0,-6,-9,-8
1570180429061871,-22,-9,-6,-3,1,-5,5,-43
1570180429061871,1,3,1,4,-3,0,-10,21
1570180429075783,1,2,-2,-2,0,-3,-2,44
1570180429075783,2,-4,-1,0,2,10,0,77
1570180429082763,-3,-6,-4,-1,-6,-4,-2,66
1570180429082763,2,-4,1,0,2,11,-2,52
1570180429098719,3,-3,-2,-1,-5,-10,-4,2
1570180429098719,-9,-7,1,-1,-1,5,0,-30
1570180429100716,-2,-4,-3,-2,-3,1,-8,-44
1570180429100716,-2,1,0,0,0,-4,-2,-47
1570180429121736,-5,-3,-1,-1,-2,-4,-8,-53
1570180429121736,7,1,-2,0,1,5,6,-1
1570180429122655,2,-2,-2,-2,-2,-2,-2,-15
1570180429122655,5,2,1,3,1,-8,-6,-6
1570180429135807,0,4,6,4,6,12,-3,-7
1570180429135807,7,2,-1,-1,1,-1,2,6
1570180429143027,-1,0,-3,-4,-6,5,3,4
1570180429143027,-2,-2,-3,-2,4,8,2,-2
1570180429158560,-2,-1,-2,-4,-8,-16,3,-7
1570180429158560,1,0,0,-1,3,12,6,-2
1570180429160554,1,0,1,1,4,13,-1,4
1570180429160554,0,0,0,0,-4,-17,-9,-12
1570180429182577,1,0,-3,-1,1,-7,2,4
1570180429182577,4,3,2,0,0,0,2,2
1570180429184493,-1,-2,-4,0,0,-3,3,5
1570180429184493,3,1,3,-1,3,11,6,13
1570180429195936,-3,-2,-2,-3,-2,-5,-6,-1
1570180429195936,-2,-2,-3,-1,-1,-2,0,-1
1570180429202446,2,-1,-2,-1,-2,-8,0,17
1570180429202446,1,1,1,2,2,7,5,15
1570180429218400,-3,-5,-3,-4,-4,0,3,9
1570180429218400,2,0,0,0,1,1,1,4
1570180429220394,1,-1,-1,0,-3,-2,6,8
1570180429220394,1,3,2,2,1,-2,-14,11
1570180429241430,1,-2,0,0,-2,3,3,3
1570180429241430,-3,-2,-2,-2,0,1,2,-3
1570180429243334,-1,-1,-2,-1,-2,-7,-1,0
1570180429243334,-3,-2,-3,-3,1,-4,1,-11
1570180429255396,-2,-1,-2,1,-2,4,1,-4
1570180429255396,1,0,-1,1,0,0,-4,5
1570180429262327,-4,0,0,-2,-1,-1,-5,-4
1570180429262327,-2,-2,-1,-3,-2,3,4,-10
1570180429279241,2,0,-1,0,2,2,-5,6
1570180429279241,-5,0,-1,-2,-1,0,1,-7
1570180429280239,-1,1,0,-1,-2,-3,-2,-1
1570180429280239,-2,0,-1,-1,-1,5,3,-6
1570180429301210,0,-1,-2,-1,-2,-4,1,-1
1570180429301210,0,-3,1,1,-1,-2,-4,-12
1570180429303271,-5,0,1,-1,-2,-6,-4,-1
1570180429303271,14,-1,-2,-2,1,9,3,34
1570180429315151,-3,-2,-1,-1,1,0,1,-7
1570180429315151,-4,-1,-1,-1,1,3,13,-15
1570180429331447,13,2,-1,0,0,-5,2,29
1570180429331447,-3,-2,0,1,-2,0,3,-13
1570180429339143,-4,-1,0,-1,0,-1,0,-9
1570180429339143,0,-2,-1,0,3,7,5,1
1570180429340078,-7,-3,-1,-1,-5,-7,-6,-11
1570180429340078,-3,-1,-3,-2,-2,-6,-5,-19
1570180429361537,0,0,0,1,0,0,-1,4
1570180429361537,-9,-1,-2,-2,-2,-2,11,-2
1570180429363022,-4,-1,-1,0,4,5,6,-2
1570180429363022,-8,0,2,1,-2,-5,-3,-10
1570180429374987,4,-2,0,-1,0,1,2,17
1570180429374987,1,-1,0,-1,-3,-10,-6,0
1570180429383967,1,-2,0,-1,1,2,-2,-4
1570180429383967,-3,-2,-3,0,0,0,3,-3
1570180429398918,-5,-2,-1,-1,-1,5,2,-15
1570180429398918,4,1,0,0,-4,-7,-5,0
1570180429400916,1,0,-2,1,1,-1,-2,-2
1570180429400916,-3,-1,0,-2,-3,-7,-5,-4
1570180429420858,4,2,2,0,1,-2,-5,1
1570180429420858,2,1,1,0,0,1,-7,10
1570180429422853,-1,-1,1,-2,-2,-2,-2,-1
1570180429422853,-2,-1,-2,-1,-2,-2,3,-2
1570180429434894,4,3,0,0,-1,0,2,19
1570180429434894,6,1,-1,1,0,2,-10,28
1570180429443812,-3,0,1,1,-1,1,-1,-5
1570180429443812,0,0,-2,0,1,0,1,2
1570180429458763,-4,-1,-2,-1,-2,-2,1,-5
1570180429458763,-1,1,1,1,-2,-1,-3,-4
1570180429460756,3,-2,-1,-2,-1,1,1,5
1570180429460756,-1,0,-1,-1,0,3,-3,11
1570180429481695,0,-2,-1,0,-1,-2,-1,-6
1570180429481695,-10,-2,-1,-2,-2,-1,-2,-22
1570180429482693,2,1,0,1,0,-3,-1,4
1570180429482693,-1,-2,-2,0,2,9,2,-3
1570180429495742,-1,-2,-1,-1,-4,-8,-1,-6
1570180429495742,2,-2,-1,0,0,0,1,7
1570180429502644,-3,0,-1,0,0,2,-3,-8
1570180429502644,1,-1,-1,-1,-1,-4,0,6
1570180429518791,-5,-3,-2,-1,0,1,1,-8
1570180429518791,5,-1,0,-1,0,2,-2,3
1570180429520593,-1,1,0,1,-3,-3,0,5
1570180429520593,-3,-1,0,-1,-2,-3,-3,-5
1570180429541542,-2,-1,-3,-1,-4,0,2,-2
1570180429541542,5,2,1,1,1,-1,-7,9
1570180429542534,0,-1,-1,-2,0,1,-1,-4
1570180429542534,-3,-2,0,0,-1,-1,3,-7
1570180429555502,2,1,-1,-2,1,0,3,3
1570180429555502,4,0,0,1,-1,-2,-12,15
1570180429562599,-2,-2,0,0,0,0,-1,-2
1570180429562599,-3,-1,0,-1,-2,-3,-6,-8
1570180429578441,1,3,0,-1,0,-1,-4,1
1570180429578441,-3,-3,-1,-1,0,1,5,-3
1570180429580433,0,0,0,-2,-1,0,1,-3
1570180429580433,0,-1,-3,-1,-1,-1,-1,-1
1570180429600432,1,0,2,3,-1,-4,-4,2
1570180429600432,-3,0,-1,1,0,-1,3,-9
1570180429609355,-3,-2,-2,-1,0,-1,0,-2
1570180429609355,0,1,1,-1,-2,-2,2,-1
1570180429615338,0,1,0,0,0,0,-2,0
1570180429615338,0,-2,-2,-1,-1,1,1,-3
1570180429630298,3,2,0,1,1,0,1,16
1570180429630298,-1,0,-2,-1,0,0,0,3
1570180429639313,-1,-2,-2,-1,-1,0,-2,-6
1570180429639313,2,0,1,-1,-2,-10,1,1
1570180429640272,-2,0,-3,0,3,10,2,-3
1570180429640272,1,0,0,0,1,-1,0,0
1570180429661219,-2,0,1,-1,0,1,2,-3
1570180429661219,-1,-1,-1,-2,-1,-2,0,0
1570180429663212,-7,-3,0,-2,-3,-2,9,-26
1570180429663212,1,-1,-2,-1,0,-1,0,11
1570180429675271,1,-2,-1,0,0,-4,1,6
1570180429675271,0,1,1,1,4,9,3,-4
1570180429684154,-2,-1,0,0,-2,-3,-2,-1
1570180429684154,0,-1,0,0,1,1,-2,-5
1570180429699116,-1,-1,0,-1,0,-2,0,-5
1570180429699116,-2,-2,-4,-4,1,1,4,2
1570180429700112,0,0,0,0,1,-2,-3,-1
1570180429700112,10,2,3,1,-1,-3,-8,13
1570180429722124,-1,0,1,1,0,3,-3,2
1570180429722124,-4,-1,0,3,2,5,-1,1
1570180429723050,2,-1,-1,0,-1,-3,-5,-5
1570180429723050,-3,0,-2,-1,-2,-3,1,1
1570180429735018,-1,-1,-1,-1,0,-2,-2,-3
1570180429735018,0,1,-1,0,-1,2,-2,-1
1570180429743995,1,-1,-1,-2,0,-2,-4,-1
1570180429743995,-2,-2,0,0,-1,3,2,-4
1570180429758956,-2,1,0,1,0,0,0,3
1570180429758956,-2,-1,1,-2,0,-2,-2,-14
1570180429760065,3,0,1,0,0,-3,-8,32
1570180429760065,0,0,0,0,0,-3,-1,-4
1570180429780969,-1,-1,-2,-1,-2,-2,0,1
1570180429780969,0,-1,0,0,-1,-3,-2,8
1570180429782895,-2,-1,0,-2,0,1,1,-8
1570180429782895,-3,-2,-1,-1,-2,-2,-2,-5
1570180429794914,0,-2,-2,-1,0,2,-2,-1
1570180429794914,-4,-2,-2,0,-4,-3,0,-8
1570180429803961,-4,0,-1,-1,-2,-1,-1,-10
1570180429803961,2,-1,-2,-2,-2,-1,2,12
1570180429818793,-1,-1,0,-1,0,-2,-3,-18
1570180429818793,3,1,2,0,-2,-3,-8,6
1570180429820789,-1,-1,-1,-1,1,-1,0,0
1570180429820789,-3,0,-1,0,-1,-1,-2,2
1570180429841737,-1,0,-1,-1,-1,-1,1,4
1570180429841737,-1,-1,-2,-1,-2,0,3,-1
1570180429842731,-1,0,0,0,-4,-13,-3,-1
1570180429842731,-2,0,-1,-2,4,15,3,-8
1570180429854697,-1,-1,0,-1,-1,-2,1,1
1570180429854697,-1,-1,0,-1,0,0,1,-5
1570180429863737,1,-3,-3,-1,-1,-3,2,2
1570180429863737,-2,-1,-1,-1,-1,-3,1,-2
1570180429878633,0,0,-1,1,0,0,-1,2
1570180429878633,-6,-2,-2,-2,0,-2,13,-17
1570180429884617,1,3,4,3,1,2,-8,3
1570180429884617,10,0,0,-1,-2,0,6,17
1570180429901571,-2,-1,1,0,-1,1,-5,-3
1570180429901571,5,-2,-1,-1,-2,-3,0,8
1570180429902701,-2,-2,-4,-3,-2,0,1,-10
1570180429902701,-2,-1,0,1,3,7,-1,-4
1570180429914539,2,-1,-3,-2,-6,-7,3,4
1570180429914539,-1,-1,0,0,1,0,-3,5
1570180429924511,-2,-1,-1,-1,-2,1,5,-2
1570180429924511,-1,1,-1,0,-2,-5,-4,1
1570180429939190,-1,-1,0,-2,1,1,-1,-2
1570180429939190,-1,1,0,-2,-5,-11,-9,-2
1570180429940470,0,-1,-1,1,3,11,2,-1
1570180429940470,-3,0,0,0,-3,-5,-1,-10
1570180429961541,-3,-1,0,-2,0,1,-2,-3
1570180429961541,0,0,-1,0,-3,-1,4,16
1570180429963417,-1,-1,0,0,-1,-3,8,2
1570180429963417,-1,-1,-2,-1,-3,0,-1,-3
1570180429975375,-1,-1,-1,0,0,-1,1,-1
1570180429975375,-2,-1,-3,-2,0,1,-5,1
1570180429984352,-3,-1,-2,0,-3,-2,-6,-10
1570180429984352,0,0,0,-1,0,-3,-3,4
1570180429998315,1,0,-1,-2,0,0,0,4
1570180429998315,-4,0,-1,-1,-1,2,1,-10
1570180430000360,2,0,1,0,0,-1,-3,1
1570180430000360,-2,-2,-1,0,0,-4,-1,-5
1570180430021304,0,-1,0,-1,-1,2,-3,-3
1570180430021304,-1,0,0,0,0,0,-3,-2
1570180430023247,-3,0,-1,-1,-1,-1,0,-3
1570180430023247,1,1,1,0,-1,-3,-6,-9
1570180430035258,2,1,0,2,1,-1,0,3
1570180430035258,0,0,-1,0,2,2,3,1
1570180430044246,-3,-2,-1,-2,0,-1,1,-11
1570180430044246,-1,-1,0,1,0,-2,-4,1
1570180430058765,-9,-2,1,0,0,-2,-8,-20
1570180430058765,6,0,-1,1,1,1,-2,5
1570180430060437,0,0,-1,-1,0,0,2,1
1570180430060437,-2,0,1,-2,0,1,1,0
1570180430081011,-1,0,-2,0,-1,1,1,3
1570180430081011,-4,-3,0,-1,-1,1,-2,-3
1570180430082814,2,1,0,1,-1,-1,-6,11
1570180430082814,1,0,1,1,0,-1,2,0
1570180430104131,2,-1,-1,0,1,-1,0,6
1570180430104131,-4,-2,-1,-1,0,0,0,-7
1570180430105560,2,-2,-2,-1,0,1,1,6
1570180430105560,-4,-1,-1,-1,-4,-2,-4,-13
1570180430118640,2,0,-1,-1,1,1,2,3
1570180430118640,0,-1,0,-1,0,-1,0,1
1570180430120516,-1,-1,-1,0,-2,-9,-4,-1
1570180430120516,-2,-3,-2,0,1,9,3,-2
1570180430141162,1,0,-1,-2,-1,-4,1,2
1570180430141162,3,2,2,0,3,8,-15,12
1570180430143127,-2,0,0,-1,-1,-1,-1,0
1570180430143127,-1,-1,-4,-1,-2,-1,12,-5
1570180430163247,0,2,1,3,-2,-2,-9,2
1570180430163247,0,-1,-2,-1,-1,-3,4,0
1570180430171797,0,-1,0,-2,-1,0,-2,-4
1570180430171797,-2,-1,-2,-1,-1,-1,-1,2
1570180430178827,-2,-4,-5,-3,0,1,5,0
1570180430178827,-3,2,1,-1,-1,-4,4,-8
1570180430184984,3,1,2,1,2,4,3,19
1570180430184984,-2,0,2,1,-1,-3,-6,-5
1570180430200905,-2,-2,-1,-2,-2,-4,-1,-3
1570180430200905,-3,-1,-1,-2,-1,-3,-3,0
1570180430202848,-1,-2,1,-2,-1,3,0,3
1570180430202848,3,-1,0,-2,1,-2,0,4
1570180430223789,-5,1,2,2,-4,0,11,-16
1570180430223789,-1,0,-2,-1,0,0,-2,-4
1570180430225780,-6,-1,-1,-1,-4,-7,-3,-11
1570180430225780,-3,-2,-1,-1,1,2,-2,3
1570180430239168,5,0,1,0,4,3,8,3
1570180430239168,-3,-3,-2,-1,-2,0,9,-10
1570180430240810,1,-1,-2,0,-1,-7,-6,-18
1570180430240810,-1,-1,-2,-1,-1,0,1,5
1570180430261274,0,0,0,1,-1,-1,-6,2
1570180430261274,2,0,2,1,-1,-3,-2,-2
1570180430263233,-2,-1,-2,1,1,8,1,-9
1570180430263233,-3,-1,-3,-1,-1,0,2,7
1570180430284122,0,-1,-1,0,-1,0,-4,-6
1570180430284122,2,-1,-1,0,-1,-1,-1,6
1570180430284981,1,0,-2,-1,-2,1,3,0
1570180430284981,2,1,0,-1,-1,-4,-3,2
1570180430298228,-1,0,-2,-3,-5,-4,-4,3
1570180430298228,-3,-2,-2,0,0,1,-4,-6
1570180430304922,1,-2,-1,-1,-1,0,2,5
1570180430304922,-2,-1,0,1,-1,-3,-3,-4
1570180430321922,-3,0,0,-1,1,4,1,1
1570180430321922,-1,0,-1,-2,-3,-4,-6,-4
1570180430322874,0,-1,-2,-2,1,3,6,8
1570180430322874,6,1,0,1,0,-4,-5,5
1570180430343699,-5,-2,0,-2,-1,0,2,2
1570180430343699,1,1,0,0,-2,-2,-2,-5
1570180430345770,0,0,1,0,-1,-4,-1,5
1570180430345770,-2,-1,-1,-1,-1,-1,5,-9
1570180430357660,6,0,0,1,1,-1,-6,11
1570180430357660,0,-1,-1,1,-3,-2,-1,-1
1570180430364639,-4,-3,-1,-1,3,7,1,-8
1570180430364639,-1,0,1,0,-6,-6,-1,-2
1570180430381594,-2,-2,-1,-1,-3,-3,0,1
1570180430381594,0,0,1,1,-1,-1,-2,6
1570180430382592,0,-1,-2,-1,0,0,-3,0
1570180430382592,-1,-2,0,-1,0,4,-1,0
1570180430403541,0,1,-1,-1,-2,-2,-2,-1
1570180430403541,-1,-2,-1,-1,-1,3,6,0
1570180430405531,2,2,0,0,-2,-2,-9,10
1570180430405531,-4,-1,-2,0,-1,-1,-2,-2
1570180430418497,6,0,1,0,0,2,3,14
1570180430418497,-1,0,1,0,1,2,-2,4
1570180430432549,1,0,1,0,-1,0,7,15
1570180430432549,0,1,-1,1,0,-2,-2,2
1570180430441515,-3,-2,-2,0,-1,-1,-2,-5
1570180430441515,0,0,-2,-3,-1,0,1,-3
1570180430443089,-1,-1,1,1,-2,-3,-3,-7
1570180430443089,1,-1,-1,-3,-2,0,0,4
1570180430463838,-5,0,-2,0,1,0,0,-9
1570180430463838,5,1,1,1,0,0,0,8
1570180430465371,-1,-1,0,-1,-4,-6,-4,-10
1570180430465371,-1,-1,0,-1,0,1,-1,1
1570180430478394,-1,-1,0,-2,-1,0,-2,-7
1570180430478394,-2,0,-1,-1,1,-2,-1,1
1570180430485317,0,0,0,-1,-1,0,2,6
1570180430485317,2,1,2,1,0,-2,-12,1
1570180430501276,1,-2,-2,1,0,1,1,2
1570180430501276,-4,0,0,1,1,-2,1,-4
1570180430503271,2,-1,-2,-2,-1,1,0,3
1570180430503271,-8,-3,-2,-3,-1,-1,5,-27
1570180430524212,0,-2,-1,-2,-1,-3,-1,2
1570180430524212,-1,-1,0,0,-2,0,-4,2
1570180430525210,2,2,1,1,2,2,1,3
1570180430525210,0,0,-1,0,-2,-2,-1,2
1570180430538392,-2,-2,0,-1,1,2,1,-2
1570180430538392,0,0,-1,-2,1,2,2,-3
1570180430545159,-6,-4,-3,-1,0,1,3,-11
1570180430545159,-1,0,0,-3,1,0,0,-1
1570180430561112,-1,0,0,0,0,-2,-3,-4
1570180430561112,1,-2,-2,-1,0,-2,-1,13
1570180430563109,0,1,0,1,0,-3,-6,-9
1570180430563109,1,-1,-2,0,-6,-3,-1,5
1570180430584053,-1,-1,0,-2,-2,-4,-2,-5
1570180430584053,-4,-1,1,0,-1,-1,-3,-23
1570180430585049,0,-1,0,0,-2,-2,5,-3
1570180430585049,6,1,2,0,3,1,-6,13
1570180430598015,-1,-1,-2,-2,-1,0,0,-3
1570180430598015,-3,-1,-1,-1,-3,-2,-1,-2
1570180430606045,-4,-4,0,0,1,1,-1,-3
1570180430606045,-2,0,-2,-1,-2,0,0,-2
1570180430620957,3,1,0,2,1,1,1,11
1570180430620957,1,-1,0,-2,0,2,1,7
1570180430622952,2,0,-2,-2,-1,-3,-5,1
1570180430622952,-1,-2,-2,0,-1,0,1,1
1570180430643956,-3,-2,-2,-1,-1,-2,-1,-9
1570180430643956,-1,-1,-1,0,-1,0,4,7
1570180430645893,2,1,1,-1,-1,-3,-5,6
1570180430645893,-3,-2,-1,-2,-1,-1,0,-4
1570180430666948,1,-1,-1,-1,-2,0,1,-2
1570180430666948,-2,-1,0,0,0,-2,-4,-7
1570180430667942,-1,0,-1,-1,-1,-3,-5,-12
1570180430667942,3,1,0,0,1,3,3,12
1570180430680967,1,1,0,-1,1,-2,-3,1
1570180430680967,5,3,1,2,-1,-4,-17,14
1570180430682903,-2,-2,-1,-2,-1,-4,-1,1
1570180430682903,-4,-3,-1,0,1,2,0,-8
1570180430704052,-2,-1,1,-2,0,-2,0,5
1570180430704052,0,-2,-2,-1,-1,0,5,-4
1570180430704889,-1,0,0,0,0,-1,-3,-1
1570180430704889,-1,-1,0,0,0,-1,1,8
1570180430718403,-3,1,-1,-1,-1,-1,1,-1
1570180430718403,-4,-1,-1,1,1,2,-1,-12
1570180430726868,4,0,-2,1,0,1,2,12
1570180430726868,-1,-1,-3,-2,1,-2,2,-6
1570180430741746,-2,-1,-1,0,0,1,-1,-6
1570180430741746,-2,-2,-1,0,0,-4,2,-2
1570180430742743,-2,-2,0,-2,-1,2,-1,-5
1570180430742743,-1,0,0,1,-1,0,-3,-2
1570180430763686,-1,-1,-1,0,-1,-1,0,-2
1570180430763686,0,0,0,-1,-3,-1,-1,-2
1570180430765681,-3,-1,2,0,0,2,0,5
1570180430765681,-1,0,0,-1,0,-2,-3,-11
1570180430777650,-2,-2,-3,-1,-1,0,-2,4
1570180430777650,-1,1,0,1,0,1,1,2
1570180430786980,-2,-3,-3,-2,0,-3,1,-3
1570180430786980,0,1,1,0,-1,-5,-2,1
1570180430801595,0,1,1,0,2,6,0,-1
1570180430801595,-4,-3,-1,-3,2,5,9,2
1570180430802637,0,-1,-1,-1,-6,-11,-1,-2
1570180430802637,-2,-2,-2,0,1,4,3,-4
1570180430823525,1,0,-1,0,-1,-1,-1,-4
1570180430823525,-1,-1,-1,-1,0,-1,1,3
1570180430825520,0,1,1,0,0,4,0,5
1570180430825520,-2,-1,0,0,-1,-2,-2,2
1570180430837687,-4,-2,-3,-1,-2,-2,-1,-8
1570180430837687,0,-1,-1,-3,-3,1,-3,-3
1570180430846465,0,-1,1,0,1,-1,-1,5
1570180430846465,3,1,-2,-1,0,-2,-2,-2
1570180430861431,-3,-3,-1,-2,0,1,8,-12
1570180430861431,1,1,1,-1,-1,-7,-7,-1
1570180430862422,-3,-1,-1,-1,0,4,3,4
1570180430862422,-2,-1,0,1,0,-1,1,-4
1570180430883366,-2,-1,0,-2,-1,-1,1,-3
1570180430883366,2,0,-2,-3,-2,1,1,4
1570180430885362,-3,1,1,0,-2,1,-3,-10
1570180430885362,1,0,0,-2,1,2,-1,1
1570180430897377,1,0,-2,0,-2,-3,-5,4
1570180430897377,-2,0,-1,1,-1,-1,1,-2
1570180430906305,1,0,-1,0,0,2,-2,10
1570180430906305,-3,-2,-2,-2,-2,-3,1,-1
1570180430921415,-1,-1,1,-1,-3,-3,-1,7
1570180430921415,-1,-2,-1,-3,-1,1,2,-1
1570180430923260,-1,-2,-2,-1,1,1,0,-8
1570180430923260,-1,-1,0,0,-3,-5,-2,-3
1570180430944208,1,-1,0,-1,1,4,-2,4
1570180430944208,-2,-1,0,0,-2,-1,-5,-10
1570180430945238,-1,0,-1,-1,-1,1,3,1
1570180430945238,3,0,0,-1,1,-1,-5,6
1570180430957180,0,0,-1,-2,-5,-6,-4,4
1570180430957180,-1,-1,-1,1,-1,-3,0,-1
1570180430966145,7,1,-1,0,1,-3,-13,13
1570180430966145,-2,0,-2,0,0,1,2,1
1570180430981110,-2,1,0,0,1,1,1,-3
1570180430981110,4,1,1,1,0,0,-6,4
1570180430983101,-2,-1,-2,-1,0,-3,4,1
1570180430983101,-2,-3,-2,-1,-1,-1,0,-6
1570180431004085,3,-1,1,0,0,-1,-5,0
1570180431004085,-3,-1,-1,-3,-1,-1,3,-4
1570180431006038,0,2,2,-1,-1,-1,-3,-7
1570180431006038,-2,-3,-1,-1,-1,2,0,-1
1570180431025999,-1,-3,-4,-1,-1,-2,3,0
1570180431025999,-3,-2,0,0,0,0,0,-4
1570180431028409,-2,0,-1,-2,-2,-4,1,-9
1570180431028409,-1,-1,-1,-1,1,1,-1,0
1570180431040950,-1,1,1,1,-2,-6,-3,-4
1570180431040950,6,0,1,0,3,10,3,13
1570180431042938,1,1,-1,1,0,-1,-4,0
1570180431042938,3,0,-1,-1,0,-1,-10,6
1570180431063882,-2,-1,-3,0,0,-2,-2,-2
1570180431063882,0,0,-1,-2,-1,-5,-2,0
1570180431065878,-2,-4,0,-1,-1,2,9,-2
1570180431065878,-3,-1,0,-2,-3,0,3,-15
1570180431085832,0,0,-1,-1,0,0,-1,2
1570180431085832,-1,0,1,2,-1,-2,-2,4
1570180431087819,-1,-1,-2,-2,1,4,2,-1
1570180431087819,-2,2,1,0,0,-2,-1,-1
1570180431100791,-2,-2,-1,0,-2,-2,0,-4
1570180431100791,-4,-5,-5,-4,-4,0,5,-16
1570180431102780,-3,-3,-1,0,1,4,2,4
1570180431102780,-1,-1,-1,-2,-6,-9,-1,-2
1570180431123728,-1,0,0,-1,-1,1,1,-3
1570180431123728,-3,1,0,0,0,-1,-1,-1
1570180431125719,-1,0,1,0,0,-2,-4,-7
1570180431125719,5,-2,-1,-1,-2,-6,0,14
1570180431146663,-6,-3,-1,-1,3,14,15,-20
1570180431146663,-1,0,0,1,-1,-4,-6,2
1570180431147659,1,0,-1,-1,-1,-2,0,1
1570180431147659,-3,-1,0,-1,0,1,2,-3
1570180431161633,0,0,-2,-1,-4,-8,4,-6
1570180431161633,1,1,-1,-1,4,8,2,5
1570180431162621,-4,-1,-1,-2,-2,-1,-3,-20
1570180431162621,-4,0,-1,0,2,4,4,-1
1570180431183821,2,1,0,1,0,-3,-4,7
1570180431183821,-1,-1,-2,-1,-2,-1,-2,-1
1570180431185558,-1,1,1,1,-1,-3,-4,1
1570180431185558,0,0,0,1,0,1,1,0
1570180431206556,-1,-1,1,-2,0,-1,-4,3
1570180431206556,-1,-1,0,0,-2,-4,-1,-5
1570180431207502,0,-1,0,-1,-2,0,3,0
1570180431207502,0,-1,-1,-1,1,2,2,1
1570180431220465,1,0,0,1,-1,0,-5,5
1570180431220465,-3,-1,-2,-1,-2,-3,-4,-9
1570180431227454,-2,-2,-3,-1,-3,-4,4,-1
1570180431227454,-2,-1,-1,0,1,9,2,-1
1570180431243405,1,-2,0,0,0,-2,-5,3
1570180431243405,-2,-1,0,-1,-1,-2,-1,2
1570180431245399,-3,-3,-4,-1,1,1,0,1
1570180431245399,-2,0,0,-1,-1,-3,2,-11
1570180431273810,7,-1,1,0,0,3,-7,33
1570180431273810,2,0,0,-2,-1,-3,0,11
1570180431275734,1,1,1,-1,0,8,5,2
1570180431275734,0,-1,0,-1,0,0,1,1
1570180431280513,-1,-2,-1,-2,-2,-5,0,-10
1570180431280513,-3,0,-2,0,1,0,-1,-3
1570180431287285,1,-1,-1,0,0,-2,-4,3
1570180431287285,1,-2,-3,-2,-2,-4,-3,1
1570180431304242,-7,-2,-1,-3,0,1,5,-17
1570180431304242,1,-1,0,-1,-2,-2,0,1
1570180431305239,-3,0,-1,-2,-1,-1,2,-8
1570180431305239,3,1,1,1,0,-2,-5,4
1570180431326184,0,0,1,1,0,-2,0,5
1570180431326184,0,-3,-1,-1,0,0,0,1
1570180431328183,-3,-1,-2,-1,-2,-3,-2,-1
1570180431328183,-1,-1,-1,0,0,0,1,-4
1570180431341146,2,0,-1,-1,0,0,0,5
1570180431341146,-3,-1,0,0,-1,-7,-1,-2
1570180431347176,-1,0,1,0,1,7,0,3
1570180431347176,-6,-2,-1,-1,-2,-7,6,-14
1570180431364083,-1,0,-2,-2,1,3,-9,-5
1570180431364083,4,2,-1,0,0,0,0,4
1570180431365312,-3,-2,0,0,0,-4,-3,-9
1570180431365312,0,0,1,1,0,-1,-1,2
1570180431386025,-4,-2,0,0,-2,0,2,-6
1570180431386025,-1,0,-1,-1,-1,1,-1,-6
1570180431388016,2,1,-2,-1,1,-1,-2,7
1570180431388016,2,-2,0,-2,0,4,-2,4
1570180431400985,-2,-2,0,-1,-3,-9,5,-7
1570180431400985,1,2,2,3,5,22,0,4
1570180431407145,0,-1,-1,-1,-4,-6,3,13
1570180431407145,0,1,0,-2,0,1,-5,2
1570180431424071,0,-2,-2,-2,-2,0,2,-1
1570180431424071,-1,-1,0,-1,0,-4,2,-2
1570180431425214,0,0,-1,-2,0,-1,-3,-3
1570180431425214,-2,0,1,-3,0,1,0,1
1570180431445893,1,1,0,0,-1,1,-4,3
1570180431445893,-4,-3,-3,-1,-4,-4,9,-10
1570180431447856,5,2,0,1,2,2,-11,16
1570180431447856,3,0,-2,0,-2,-5,-10,5
1570180431460870,0,-1,2,0,0,0,0,-4
1570180431460870,-3,-1,0,-2,-3,-6,-3,-7
1570180431467806,-1,-2,-2,-2,1,-2,3,-7
1570180431467806,0,0,-2,-2,1,2,1,3
1570180431483761,1,-1,-2,-1,-1,-1,-2,1
1570180431483761,0,0,-2,0,-2,-2,-4,4
1570180431485755,-2,-1,0,-1,-1,0,0,-6
1570180431485755,3,0,1,1,-1,0,3,21
1570180431506700,2,0,-3,1,-1,1,-2,-1
1570180431506700,0,-1,0,-3,0,-3,-1,-3
1570180431507697,-1,-1,1,-1,0,0,0,-5
1570180431507697,-3,0,-2,-2,0,1,1,-6
1570180431519668,-1,0,0,-2,-1,-2,0,2
1570180431519668,4,2,2,2,0,-2,-11,10
1570180431528640,-1,-1,-1,0,-1,-1,-2,-5
1570180431528640,-3,-2,-1,-1,-2,-4,-1,-3
1570180431543603,-2,-1,-1,0,-1,0,-1,-2
1570180431543603,1,-1,-1,-2,2,5,4,4
1570180431545610,-2,0,0,1,0,-2,1,-2
1570180431545610,2,3,1,1,2,0,-13,9
1570180431566542,-2,0,-1,0,-2,-2,0,-3
1570180431566542,-2,-1,-1,-2,-3,-1,1,-2
1570180431567537,-3,-3,-3,-3,-3,-1,0,-4
1570180431567537,0,-2,-1,-1,-2,-1,0,-9
1570180431580505,2,0,0,-1,1,-1,-2,1
1570180431580505,-3,-1,-1,-1,3,6,0,1
1570180431588482,0,0,-1,-1,-4,-3,6,1
1570180431588482,-3,-1,0,-1,0,6,4,-6
1570180431602546,0,-2,-1,-1,-1,0,0,1
1570180431602546,3,-2,-1,1,0,-3,-1,-4
1570180431611706,-1,0,1,-1,-3,-1,-3,-7
1570180431611706,-1,0,-2,-2,-1,1,3,-6
1570180431626489,-2,-1,-3,-1,-2,-3,5,-8
1570180431626489,3,0,-2,-2,0,-2,-11,12
1570180431628374,1,2,3,1,0,1,-2,6
1570180431628374,0,-2,-2,1,-2,-1,0,-4
1570180431640451,-2,-1,0,-2,-1,-6,4,5
1570180431640451,-4,-3,-3,1,0,3,4,-7
1570180431649318,-4,-2,-2,-2,0,-1,-5,-8
1570180431649318,-1,-3,-2,-2,-1,-1,-2,0
1570180431664277,0,1,0,1,0,-2,-4,-1
1570180431664277,-4,-3,-1,-2,-3,-2,0,-2
1570180431665408,1,1,-1,0,-1,-4,0,4
1570180431665408,-1,-1,-1,0,2,2,-1,-7
1570180431686218,1,-1,0,0,0,2,-2,1
1570180431686218,1,1,0,0,-2,-4,-2,-5
1570180431688214,-2,-1,1,1,-1,-4,-3,-5
1570180431688214,-2,-2,0,-1,0,2,2,-1
1570180431700371,1,1,-3,-1,0,1,0,2
1570180431700371,0,0,-1,-1,0,-2,0,-3
1570180431709158,-2,-1,-2,1,2,2,0,0
1570180431709158,4,0,0,-1,-2,-1,2,13
1570180431724117,-6,-2,-1,-3,0,4,11,-16
1570180431724117,0,2,-1,1,-2,-3,-2,2
1570180431726012,-4,-4,-3,-2,-3,-1,-6,-23
1570180431726012,-2,-2,-2,0,-1,-1,-1,-5
1570180431746059,0,-3,-1,0,0,1,0,6
1570180431746059,0,-2,-1,-1,0,-5,-2,-1
1570180431748412,1,0,-2,-2,0,3,1,2
1570180431748412,-3,0,0,-1,-1,-5,-1,2
1570180431760025,5,1,1,1,0,1,-7,1
1570180431760025,-3,-2,0,-1,-2,0,2,-4
1570180431768998,-3,-3,-1,-1,0,0,2,1
1570180431768998,-1,0,0,0,0,-1,5,2
1570180431783968,0,-1,1,-1,-1,-1,-2,1
1570180431783968,-3,-1,-2,0,-2,0,-1,1
1570180431785002,2,-2,-1,0,0,2,3,4
1570180431785002,-1,-1,-1,-1,0,-1,-1,-4
1570180431806005,-6,-2,0,0,-2,-5,7,-15
1570180431806005,0,1,1,-1,1,0,-1,9
1570180431807893,0,-2,-1,-3,-5,1,-1,8
1570180431807893,0,-1,0,-3,-3,-3,-3,-5
1570180431828838,-1,-1,-1,-1,-1,1,-3,4
1570180431828838,0,1,0,-2,-2,-4,2,-4
1570180431830835,2,0,-1,0,2,0,0,5
1570180431830835,-2,1,0,2,-1,2,-1,-2
1570180431843800,1,-2,-1,-1,-1,-3,-5,-1
1570180431843800,-1,-1,-1,-1,-3,-5,-1,-1
1570180431845795,-1,-1,0,0,3,5,-3,-1
1570180431845795,-2,-2,-1,-3,-2,0,1,-7
1570180431866737,6,3,1,1,0,0,-7,11
1570180431866737,1,-2,-1,-2,-1,-3,1,-1
1570180431867808,1,0,0,1,-1,-1,1,2
1570180431867808,0,-2,0,2,-1,-1,-2,-2
1570180431879760,-7,-3,-3,-3,0,0,-1,-18
1570180431879760,4,1,2,0,0,1,-7,15
1570180431889806,0,0,1,-1,-1,-3,0,3
1570180431889806,0,-1,-2,0,0,0,1,3
1570180431903638,-1,-1,0,-2,0,0,-6,0
1570180431903638,2,1,2,2,1,2,2,-2
1570180431905632,1,-1,1,0,0,-1,3,0
1570180431905632,3,0,0,0,-2,-3,-5,2
1570180431926575,1,0,-1,0,0,1,2,2
1570180431926575,-2,-2,-3,-1,-1,2,6,2
1570180431928700,0,0,-1,0,-1,-2,1,5
1570180431928700,-5,-1,-2,-3,0,0,3,-4
1570180431940014,-1,-2,-3,-2,-3,2,-2,4
1570180431940014,-2,-1,-1,-1,0,0,-2,-2
1570180431949156,-4,-3,-2,-3,-2,-2,3,-8
1570180431949156,0,-1,0,0,-1,-5,-3,-3
1570180431964476,-3,-1,-2,1,1,5,-1,3
1570180431964476,-3,-1,0,-1,-1,0,-1,-13
1570180431965846,-1,0,-1,-1,1,1,2,7
1570180431965846,0,0,1,-1,1,-1,0,5
1570180431986420,-3,-1,-2,0,-1,-5,4,-6
1570180431986420,-1,-1,-2,-2,-1,4,0,-5
1570180431988413,-1,-1,0,-2,0,-3,-8,-8
1570180431988413,-2,-2,0,-1,0,3,2,4
1570180432008367,2,0,0,-1,-1,-3,-3,1
1570180432008367,1,0,-3,-1,0,-2,0,-1
1570180432015338,-1,-1,-1,0,-2,-2,1,5
1570180432015338,0,-1,-1,1,1,2,1,7
1570180432024317,-1,1,0,1,0,0,0,3
1570180432024317,-2,-2,-1,-1,-2,-5,-2,-3
1570180432025568,1,1,1,0,1,1,-2,-4
1570180432025568,0,0,-2,-1,-2,0,-1,-9
1570180432046264,1,0,2,0,0,0,-2,3
1570180432046264,-4,-1,-1,-1,-3,-1,-1,-6
1570180432048308,3,-1,-1,0,0,-2,-1,4
1570180432048308,-1,0,-1,-1,0,-1,-1,-6
1570180432069196,-2,0,-2,-2,-2,0,1,-1
1570180432069196,-5,-1,-2,-1,0,-1,0,-5
1570180432070194,-1,0,0,-1,0,-1,-1,-1
1570180432070194,-1,-1,0,-2,-1,-5,-2,-5
1570180432084160,4,1,0,-1,3,7,-5,22
1570180432084160,2,1,2,1,-1,1,-2,-4
1570180432085154,0,-1,1,0,1,0,-1,4
1570180432085154,0,-1,-2,0,-1,-2,-3,2
1570180432106103,-3,0,-4,1,-2,-1,4,-6
1570180432106103,4,0,1,2,-1,-2,-2,10
1570180432108096,2,0,0,-2,-2,0,0,4
1570180432108096,-1,-2,1,0,0,3,4,-2
1570180432129037,-2,-1,1,-2,-2,-6,1,-3
1570180432129037,-1,-2,-1,-1,0,1,2,3
1570180432130747,-1,0,0,0,-1,-5,-2,-8
1570180432130747,0,-1,-2,1,4,10,2,1
1570180432143007,3,-1,0,0,-2,-3,0,1
1570180432143007,-1,-2,-3,-2,1,-2,-4,0
1570180432150211,-2,-1,-2,-2,-2,-2,1,-2
1570180432150211,-1,-2,-1,0,-1,-1,-1,-4
1570180432165948,0,-2,-1,0,-1,0,-4,-3
1570180432165948,-3,-1,-1,0,0,0,2,-6
1570180432167936,1,0,-1,-1,2,1,-2,7
1570180432167936,0,1,-1,-3,-2,-2,-1,7
1570180432188877,-2,-1,0,-1,-2,-5,0,3
1570180432188877,2,-1,0,1,2,6,2,3
1570180432190013,-1,0,-2,-1,-1,-1,0,-2
1570180432190013,-1,1,-1,0,-1,-2,-2,0
1570180432202931,-2,-1,-2,-1,-3,-2,-3,-3
1570180432202931,-1,-1,0,-2,-1,0,0,-3
1570180432209945,0,0,0,0,-2,0,0,1
1570180432209945,0,-2,0,0,-2,-1,-1,-3
1570180432226774,-1,-1,0,-1,-1,-4,-3,-4
1570180432226774,0,0,0,0,0,3,0,0
1570180432227772,0,0,-3,-1,0,0,2,0
1570180432227772,-3,-1,-1,-2,-1,-4,-2,-4
1570180432249723,0,-2,-2,-2,0,0,0,0
1570180432249723,1,-1,-2,-2,-1,-3,1,3
1570180432250710,0,-1,-1,0,0,3,1,2
1570180432250710,1,1,0,1,-1,-1,-1,-11
1570180432263676,2,0,0,-1,-1,0,-4,13
1570180432263676,-1,0,2,2,1,0,0,-5
1570180432269659,-2,0,-1,0,-1,1,-1,-4
1570180432269659,3,0,-1,0,-1,-2,-3,8
1570180432286621,-5,-1,-3,-1,1,0,0,-9
1570180432286621,0,0,-1,-2,-3,-3,-1,0
1570180432287611,-2,-1,-1,-1,0,-2,-3,-6
1570180432287611,1,1,1,1,0,-3,2,10
1570180432308616,-1,1,-1,-1,0,5,2,-4
1570180432308616,-4,-4,-4,-3,-3,-1,5,-3
1570180432310551,0,-2,1,1,-3,-1,-1,-5
1570180432310551,-7,0,1,0,-1,-2,-4,-16
1570180432323514,8,2,-2,1,0,-2,-1,10
1570180432323514,-3,-1,-1,-2,-1,-4,-4,-1
1570180432329505,-2,-1,1,-3,1,1,2,0
1570180432329505,-1,-1,-1,-1,0,-2,1,-3
1570180432346454,-2,-1,0,0,0,1,2,1
1570180432346454,2,-1,-2,-1,-2,-3,-2,-7
1570180432347450,-1,-1,0,-1,-2,-1,-1,-2
1570180432347450,1,-1,-1,-1,-1,-1,0,2
1570180432368445,-3,0,1,0,-2,-6,-2,-4
1570180432368445,0,0,0,2,2,7,1,6
1570180432370391,-2,0,-1,0,0,1,-3,0
1570180432370391,0,-1,-2,-2,-6,-6,-1,2
1570180432383359,0,-2,-1,-3,-2,-1,-1,-1
1570180432383359,-1,0,-1,0,-1,-3,-1,-1
1570180432390343,5,1,2,0,-1,-7,-15,10
1570180432390343,-1,-2,-2,-1,4,9,5,8
1570180432406650,-2,-1,-1,0,-1,3,0,-9
1570180432406650,4,1,0,0,-2,-4,0,13
1570180432408292,-3,-3,-4,-1,-1,-1,3,-9
1570180432408292,0,-1,0,0,-2,-2,-3,-3
1570180432429237,-2,-1,-1,-1,-2,-2,-1,0
1570180432429237,0,1,2,-1,1,6,4,10
1570180432430229,-2,-2,-1,0,-2,0,7,-8
1570180432430229,3,1,1,-1,0,-1,-5,12
1570180432443193,0,1,0,2,-1,3,1,-12
1570180432443193,-4,-2,-1,0,-1,-5,-3,-4
1570180432450181,-2,-1,-3,-2,1,2,1,-3
1570180432450181,0,0,-1,-2,-1,1,0,0
1570180432466138,0,-1,1,1,0,-1,-2,-1
1570180432466138,-1,0,0,0,-1,-1,-1,7
1570180432468132,1,0,-1,0,-2,0,-2,2
1570180432468132,-3,-1,-2,-1,1,0,0,-5
1570180432489077,0,-2,-2,-1,0,0,-1,4
1570180432489077,-2,-2,-1,-1,-2,-4,1,-10
1570180432490188,6,0,0,0,-2,-4,-12,13
1570180432490188,-2,-1,-2,-1,-5,-4,-2,-5
1570180432502039,-1,-1,1,-1,2,11,2,-3
1570180432502039,-2,0,0,-2,-2,-2,1,-4
1570180432511254,-5,0,-2,0,-1,0,3,-8
1570180432511254,3,1,-1,0,-1,1,1,0
1570180432526039,1,-1,-1,-1,2,1,-6,3
1570180432526039,-1,0,-1,0,-2,-2,-2,-2
1570180432528054,-2,-1,1,1,0,-1,1,-2
1570180432528054,0,-2,-2,-3,-1,-2,-2,-2
1570180432548911,-3,0,-2,1,0,-1,5,6
1570180432548911,0,-3,-2,0,2,1,-2,-1
1570180432550988,-1,0,-1,-1,0,-2,-2,-2
1570180432550988,-2,-1,-1,-1,-1,0,1,1
1570180432562877,-4,-2,-1,-2,-3,-5,-5,-20
1570180432562877,0,0,-2,1,-1,1,0,1
1570180432571851,1,-2,-2,-1,-1,0,1,2
1570180432571851,-2,-2,0,1,1,-1,-3,-3
1570180432585818,-2,-2,1,-2,-2,-3,4,-1
1570180432585818,2,0,1,2,0,0,-4,2
1570180432588806,-1,-1,0,0,-1,2,1,-2
1570180432588806,-5,-2,-1,-2,-1,1,3,-7
1570180432608753,0,0,-1,1,-1,-3,1,2
1570180432608753,-1,-1,-2,-3,-3,-6,0,1
1570180432610951,5,1,0,-1,2,7,-9,25
1570180432610951,0,0,0,2,0,-2,-2,-4
1570180432622716,1,0,1,-1,-1,-2,1,6
1570180432622716,-1,-1,-1,-1,0,-1,0,-2
1570180432631697,-2,-2,-1,-1,-3,-8,4,-5
1570180432631697,-1,0,0,-2,1,5,-2,0
1570180432646694,1,-2,-2,0,-1,-1,-4,3
1570180432646694,-1,0,0,-1,1,2,0,-4
1570180432647649,-4,-1,-2,-1,-2,-2,4,-8
1570180432647649,0,-2,0,0,-1,-3,1,1
1570180432668597,0,0,0,0,-3,-2,-1,-8
1570180432668597,2,1,-1,0,1,0,3,15
1570180432670667,1,-1,-1,0,-2,-3,-1,-2
1570180432670667,0,-1,0,0,-1,3,-2,2
1570180432690538,-4,-1,-3,-2,0,-1,-4,-11
1570180432690538,-3,-2,0,-1,-1,-1,-3,-9
1570180432691531,-1,0,0,-1,0,1,-1,-2
1570180432691531,-1,0,-2,-1,0,-4,0,-1
1570180432705802,2,-1,-2,0,1,-2,-2,7
1570180432705802,5,-2,-3,-2,-3,0,-1,2
1570180432706492,-1,0,-1,0,1,1,1,-6
1570180432706492,5,2,2,1,-1,-1,-12,14
1570180432728439,1,-1,-1,-2,-1,-1,0,6
1570180432728439,-5,-1,-2,1,0,-3,-1,-6
1570180432729431,4,1,1,0,0,0,1,3
1570180432729431,-2,-1,-3,-3,-3,-3,4,-4
1570180432750375,1,-2,-1,0,-1,1,-1,2
1570180432750375,-3,0,-1,0,1,0,-4,0
1570180432751371,-4,-1,0,-2,0,0,1,-8
1570180432751371,-1,2,1,0,0,1,1,-1
1570180432765343,1,-1,-2,-2,1,0,2,2
1570180432765343,-2,-1,1,-2,0,0,1,-7
1570180432766331,-8,-2,-3,-2,-2,-1,2,-18
1570180432766331,1,-2,-1,0,0,-1,4,6
1570180432788272,-3,1,1,1,-1,-1,-3,-3
1570180432788272,1,0,-1,-1,-1,-1,-4,-3
1570180432789269,2,0,-1,-1,-2,-1,-2,2
1570180432789269,-1,-2,1,-1,-1,-5,0,2
1570180432810218,0,-1,1,1,-1,1,1,0
1570180432810218,-1,-1,0,0,1,3,6,12
1570180432811212,1,-1,-2,-1,0,3,1,5
1570180432811212,-4,-3,-2,-2,-2,-2,4,-9
1570180432825177,1,0,-3,-1,-1,-3,0,5
1570180432825177,-3,-1,-1,-3,-3,0,0,-2
1570180432826335,1,0,0,1,-1,-1,-2,5
1570180432826335,1,0,-3,1,1,1,0,1
1570180432848112,-3,-1,1,-2,-1,-2,-5,-3
1570180432848112,-1,-1,-2,0,-1,1,1,-5
1570180432849280,-1,0,-2,-1,-1,-2,1,1
1570180432849280,-2,0,-1,1,0,-1,-2,-6
1570180432871050,-2,0,-3,0,-2,-1,2,-4
1570180432871050,-1,-1,0,0,0,-2,-4,-3
1570180432872333,0,-1,-1,0,0,-2,-4,-10
1570180432872333,-1,1,0,0,0,1,1,0
1570180432886010,0,0,0,-1,-1,-1,-3,-8
1570180432886010,0,-1,0,-1,-2,-1,-1,1
1570180432886010,0,0,-1,-1,0,0,-3,-1
1570180432886010,0,-2,-1,-2,-2,-1,0,-1
1570180432907956,0,-1,-1,-1,-1,-1,0,2
1570180432907956,-2,-1,-1,0,-6,-3,-3,-5
1570180432908950,-2,-1,0,-2,0,1,2,-2
1570180432908950,0,-1,0,-1,0,-1,0,-5
1570180432929980,0,0,0,0,-1,1,2,3
1570180432929980,0,-2,-1,0,2,-1,-3,-3
1570180432937876,-3,-3,-1,0,-2,-4,-2,2
1570180432937876,-2,-1,0,0,1,1,-1,-5
1570180432945854,0,0,1,-2,0,-1,-2,-2
1570180432945854,4,3,0,1,1,-1,-7,15
1570180432946848,-4,-3,-1,0,-1,0,2,-6
1570180432946848,6,1,0,-2,-2,-2,-2,-1
1570180432968877,0,-1,1,1,1,-1,1,7
1570180432968877,0,0,0,-1,-1,-1,6,10
1570180432968877,1,-1,1,-1,1,1,0,-6
1570180432968877,-2,-1,-2,0,-1,0,-3,-3
1570180432990734,-1,-1,0,1,-1,-1,0,-5
1570180432990734,-2,-1,-2,-1,-1,5,1,-3
1570180432991774,0,0,0,-2,-1,-2,-1,6
1570180432991774,-1,-1,0,-2,0,-1,-2,-2
1570180433005711,0,1,0,0,0,-1,-3,0
1570180433005711,-1,-1,0,1,-2,-9,-3,-2
1570180433006828,2,1,-1,0,2,8,-2,4
1570180433006828,-2,0,-2,1,1,1,0,0
1570180433027634,1,1,1,1,1,1,2,3
1570180433027634,-3,-1,0,-1,0,1,0,-7
1570180433028646,0,-1,-2,-1,-1,-1,-1,3
