timestamp,emg1,emg2,emg3,emg4,emg5,emg6,emg7,emg8
1570179597984488,-1,-1,0,0,0,0,0,-2
1570179597984488,-3,0,0,0,0,1,-1,-3
1570179597988516,0,0,0,0,-1,0,-3,-6
1570179597988516,1,0,0,-2,-2,0,-1,2
1570179597989475,0,-1,-1,-1,-1,0,-2,1
1570179597989475,-1,0,-1,-2,-1,-2,0,-1
1570179597990833,-3,-2,0,-1,-2,1,-1,-10
1570179597990833,-3,0,-2,-1,1,-1,-3,-4
1570179597995461,3,1,-2,-1,-2,-1,2,8
1570179597995461,1,-1,0,-1,-1,0,0,3
1570179598010419,-1,1,1,0,-1,-1,-2,4
1570179598010419,-3,-1,1,-1,-1,-2,-1,-4
1570179598016403,-2,0,-1,-2,0,-1,-1,-6
1570179598016403,-1,0,1,0,0,0,-1,-2
1570179598025379,0,-1,-1,-1,1,-1,1,1
1570179598025379,0,1,-1,-1,0,1,1,1
1570179598040569,1,1,1,1,-1,1,2,13
1570179598040569,-1,-1,-2,-1,-2,-1,1,4
1570179598056550,1,-1,-1,-1,-1,-1,3,4
1570179598056550,1,0,-1,0,0,0,-1,-2
1570179598061580,0,-2,-1,-2,0,-1,-1,-4
1570179598061580,0,-3,-2,-1,-2,-1,-1,-3
1570179598076244,-1,-1,-1,-1,-2,0,-1,4
1570179598076244,-1,0,0,0,-1,0,1,-2
1570179598118133,-2,1,-1,0,0,-1,-3,-3
1570179598118133,-1,-2,-1,0,-2,0,-2,-1
1570179598119259,0,-1,-1,-2,0,0,1,3
1570179598119259,-1,-1,-1,-1,-1,-1,1,-2
1570179598131339,-1,-1,-1,-2,-1,0,0,0
1570179598131339,-1,-1,-1,-1,1,-1,0,-1
1570179598131339,2,2,0,-2,-1,0,1,1
1570179598131339,-2,-2,0,1,1,-1,-3,-3
1570179598132802,0,-1,0,0,-1,0,2,-2
1570179598132802,0,0,1,-2,-2,1,-1,-2
1570179598136088,-3,0,0,0,-1,0,-2,-3
1570179598136088,2,0,0,-1,-1,0,3,15
1570179598144235,-1,-1,1,-1,0,-1,0,1
1570179598144235,0,-1,0,-1,1,0,-2,0
1570179598159094,0,-1,-1,0,0,1,1,2
1570179598159094,-3,-1,-2,-2,-1,1,-2,-19
1570179598167184,10,1,-2,0,-2,0,3,24
1570179598167184,2,0,0,-1,-3,0,1,5
1570179598181367,-1,0,0,-1,-1,-1,-3,-6
1570179598181367,-5,-1,-2,-1,-1,-2,-2,-5
1570179598189118,-2,-1,-2,-3,0,-1,-1,-5
1570179598189118,-2,1,-1,-1,0,-2,-2,-4
1570179598205039,0,0,-2,-1,-1,-1,-1,3
1570179598205039,0,-1,0,0,-2,-1,-1,-1
1570179598205039,-2,0,0,-1,-1,-2,-2,-4
1570179598205039,0,-1,-1,2,-1,-2,-1,-1
1570179598227845,0,1,1,2,-1,-1,1,-1
1570179598227845,0,-1,0,-1,1,-1,-3,-1
1570179598228837,-4,1,-2,-1,-1,0,-2,-4
1570179598228837,-2,0,-2,-2,-1,0,0,-2
1570179598250778,-2,0,0,-1,-2,-2,-5,-22
1570179598250778,2,0,-1,-1,-2,1,1,8
1570179598250778,-1,-2,-2,-1,0,1,0,1
1570179598250778,-3,0,-2,-2,-1,1,0,-3
1570179598264941,-1,-1,-1,-3,0,1,1,1
1570179598264941,-8,-1,0,-1,0,-1,-3,-15
1570179598264941,4,-1,1,0,-1,0,1,4
1570179598264941,1,0,0,1,0,0,-2,1
1570179598287886,2,-3,-3,0,1,0,2,8
1570179598287886,-3,0,1,-2,-1,-1,-1,-5
1570179598288695,-4,-1,-1,0,-1,-1,-1,-4
1570179598288695,-1,-2,1,2,2,0,-1,-2
1570179598310714,-1,-1,-1,0,-2,-1,-1,3
1570179598310714,2,0,-2,-2,-2,-1,0,3
1570179598310714,-1,-2,0,0,-1,-1,-1,-4
1570179598310714,-1,1,1,-3,0,-1,0,1
1570179598324855,0,-1,-1,0,-1,-1,-1,7
1570179598324855,2,-1,-1,-1,0,-1,2,6
1570179598325577,-1,-1,-2,0,-2,0,0,-1
1570179598325577,0,-1,-2,-1,-1,0,2,-1
1570179598347735,-2,0,0,0,1,0,-1,1
1570179598347735,1,0,-2,-1,-2,-1,0,2
1570179598348519,1,-1,0,-1,-2,-3,-1,-1
1570179598348519,-2,0,-2,-2,1,-1,0,-3
1570179598370843,-1,1,0,-2,-2,0,0,-4
1570179598370843,2,-2,0,1,-1,0,2,3
1570179598370843,1,-1,-1,0,-1,-1,-2,1
1570179598370843,0,-1,0,0,-2,-2,-2,2
1570179598384470,-1,-1,-2,-2,0,-1,1,-2
1570179598384470,-1,-1,-2,0,0,-2,-1,-1
1570179598385425,-4,-2,-2,-1,0,-1,-2,-2
1570179598385425,0,0,-2,-1,-2,0,-1,1
1570179598407640,2,0,0,0,0,0,2,9
1570179598407640,-2,-1,0,-2,1,-1,-2,-2
1570179598408358,-2,1,1,0,0,-1,0,-7
1570179598408358,0,-1,-1,0,-2,0,0,1
1570179598430513,-2,-1,0,-1,0,0,-3,-4
1570179598430513,1,0,0,0,0,0,-1,0
1570179598431295,0,0,-1,0,-1,-1,1,1
1570179598431295,-3,-2,-1,-1,0,-1,0,-1
1570179598444402,0,0,0,0,-2,-1,-2,-2
1570179598444402,-1,-1,1,-2,-1,0,-1,4
1570179598445259,-3,0,-2,-1,0,1,-2,-4
1570179598445259,0,-1,1,-3,-1,2,-1,1
1570179598467435,-2,0,-1,-1,-1,-2,0,-6
1570179598467435,-1,1,1,-1,0,-2,-6,-3
1570179598468749,-2,1,-1,0,-2,0,0,-2
1570179598468749,-1,-1,-1,0,-1,1,0,-1
1570179598489313,-1,-1,0,-1,0,-1,1,3
1570179598489313,0,-1,-2,-1,-2,0,1,-1
1570179598497315,-1,0,0,-1,1,-1,-2,-2
1570179598497315,1,-1,-2,-1,-1,0,0,0
1570179598504107,-2,1,1,2,-1,1,1,9
1570179598504107,0,0,0,0,-1,-3,-1,0
1570179598505360,0,-1,-1,-2,1,-1,0,1
1570179598505360,0,0,-2,0,0,-1,0,1
1570179598528035,0,0,-2,0,-1,-1,-1,-5
1570179598528035,0,-1,0,0,-1,-1,0,1
1570179598528035,-1,0,1,0,-1,-1,-1,1
1570179598528035,-6,0,1,1,0,-3,-5,-12
1570179598550024,2,0,-3,-2,-1,-1,0,1
1570179598550024,1,-1,0,1,-1,2,1,-1
1570179598550983,2,-1,-1,1,0,-1,-1,1
1570179598550983,0,-1,-2,0,0,-1,1,-1
1570179598564971,-7,-1,2,0,0,0,-2,-10
1570179598564971,5,0,-1,-1,0,0,2,6
1570179598564971,-2,0,0,0,-2,1,0,-4
1570179598564971,2,0,0,0,0,0,-2,3
1570179598587874,-1,0,-2,-2,-1,-3,-1,1
1570179598587874,-2,1,-1,-1,0,1,1,-4
1570179598588213,0,-1,-1,-1,-1,-1,-1,-3
1570179598588213,0,-1,-1,-1,-1,-1,0,0
1570179598610919,0,-1,0,-2,-3,0,-1,-1
1570179598610919,-1,-1,0,-1,-1,-2,-1,-1
1570179598610919,2,-1,-1,0,0,-1,3,5
1570179598610919,-1,0,-2,-1,-2,-1,2,4
1570179598624781,0,-1,-1,0,-1,2,0,-4
1570179598624781,-2,-2,-1,-1,1,-1,-2,-6
1570179598624781,-1,-2,0,0,0,0,0,5
1570179598624781,0,0,1,-1,-1,-2,-1,-1
1570179598647722,1,-1,-1,0,-1,-3,-1,0
1570179598647722,-5,-2,-2,-1,-1,0,-3,-6
1570179598648714,-1,0,-1,0,-1,0,-1,-2
1570179598648714,2,0,-1,-1,-1,0,1,12
1570179598670808,1,-1,0,-1,0,0,-2,1
1570179598670808,-3,0,-2,-1,-1,1,1,-2
1570179598670808,-4,-3,-2,-4,0,0,2,-2
1570179598670808,0,0,1,-1,-1,0,-2,-2
1570179598684860,-1,-1,-1,2,0,-2,-3,-1
1570179598684860,2,-2,-2,0,-1,-1,0,3
1570179598685615,-1,0,-1,-1,0,0,-2,-4
1570179598685615,-2,-1,-1,-2,-1,0,-3,-7
1570179598707802,0,-2,0,-1,-1,-1,0,-2
1570179598707802,0,-1,-1,-1,0,0,1,3
1570179598709551,0,-1,0,-1,-3,-2,-2,-1
1570179598709551,3,0,-1,-1,0,0,2,16
1570179598730630,-1,-1,0,-1,-1,0,-1,-2
1570179598730630,0,0,0,1,-1,-2,-2,2
1570179598732153,-1,1,0,1,-1,0,1,11
1570179598732153,-2,0,0,-2,0,-1,-1,-4
1570179598744459,-1,-2,-2,-1,-1,-1,1,-3
1570179598744459,1,0,-1,-3,-2,-1,3,4
1570179598752441,-1,0,0,-2,-1,0,-1,-6
1570179598752441,-3,1,0,0,-1,1,-3,-7
1570179598766532,5,0,-1,-1,0,1,0,11
1570179598766532,-1,-1,0,0,0,0,0,-3
1570179598775379,1,-2,-1,-2,-1,-1,-1,-2
1570179598775379,-1,-1,-2,1,-3,0,-1,0
1570179598789563,-1,-2,-2,-2,-1,-2,-1,-5
1570179598789563,-4,0,1,-2,-2,-2,-2,-3
1570179598798319,3,0,1,0,0,-1,-3,0
1570179598798319,-1,-1,-1,-1,-2,-4,-3,-11
1570179598804422,4,-1,-3,0,-1,0,1,7
1570179598804422,-2,0,0,1,0,0,3,-7
1570179598813273,0,2,0,-1,-1,-2,-3,1
1570179598813273,-4,-1,-1,0,0,0,-2,-7
1570179598827236,0,0,-2,-2,-2,-3,-2,-4
1570179598827236,5,0,-1,-1,0,1,5,12
1570179598829230,-3,-2,-1,-1,0,0,-2,1
1570179598829230,-1,-2,-2,0,0,0,0,-4
1570179598850180,-3,1,-1,-1,1,-1,-1,-4
1570179598850180,0,0,-1,-2,-1,0,-2,0
1570179598852169,-6,0,0,-1,-2,-1,-3,-7
1570179598852169,2,-1,1,1,-1,-2,-2,3
1570179598864146,-1,0,-1,0,0,-2,0,6
1570179598864146,1,-1,-2,0,0,0,-1,4
1570179598873115,2,-2,-3,-1,1,1,1,-2
1570179598873115,1,-1,1,-1,0,-2,0,-1
1570179598888197,-2,-2,1,-1,-1,1,0,-5
1570179598888197,0,-1,1,1,-1,-2,-3,-2
1570179598889077,-1,-1,-2,-2,0,-1,0,2
1570179598889077,-1,-2,-1,0,-1,0,0,5
1570179598910023,-1,-1,0,1,-2,0,-1,1
1570179598910023,-3,-1,-2,-2,-1,0,-2,-5
1570179598912016,0,0,0,0,-1,-1,2,-4
1570179598912016,-2,0,-1,-2,0,-1,-3,-5
1570179598923998,-1,0,1,0,-1,-1,-2,2
1570179598923998,1,-2,-1,-1,-1,-1,-1,0
1570179598932955,-1,-2,-1,0,-1,-2,-4,-11
1570179598932955,3,1,0,-1,0,0,2,6
1570179598948037,-1,-1,-1,-1,-1,1,0,0
1570179598948037,-1,0,-1,0,0,0,-4,-11
1570179598949044,1,-1,0,1,0,0,1,2
1570179598949044,-2,-1,0,-1,-1,1,-1,-3
1570179598970068,-2,-1,0,1,1,-2,0,0
1570179598970068,0,0,0,1,-1,0,-1,-1
1570179598971943,-2,0,-1,-1,0,1,0,2
1570179598971943,0,1,-1,-1,-2,2,1,-5
1570179598983942,-1,-1,-1,0,-2,-2,-1,-3
1570179598983942,-1,-1,0,-1,-1,-2,-2,-1
1570179598992795,1,0,0,0,0,1,0,0
1570179598992795,0,-1,0,1,-1,-2,-2,0
1570179599007758,2,0,-1,-5,-1,1,0,-1
1570179599007758,-1,-1,1,0,-1,-2,0,1
1570179599009038,-1,0,-1,-2,-1,-1,-2,0
1570179599009038,2,-1,-1,-2,-1,-1,1,3
1570179599030777,0,-1,-1,-1,0,0,-2,-5
1570179599030777,-3,1,0,0,-1,0,0,-2
1570179599031691,-3,1,-1,0,-1,-2,-4,-16
1570179599031691,2,-1,-1,-1,-2,0,-4,8
1570179599043716,-3,-1,-1,0,-3,0,1,-4
1570179599043716,1,-2,-2,-1,-2,-1,-2,3
1570179599052633,-1,0,-1,-3,0,-1,1,1
1570179599052633,-2,-2,-2,-2,0,-1,0,-3
1570179599067593,-1,-1,1,-1,1,1,-1,-5
1570179599067593,0,0,0,-1,-2,-1,-2,2
1570179599069592,0,0,1,-2,-2,-1,0,3
1570179599069592,-1,0,-1,0,0,-1,1,-3
1570179599089742,0,-1,-3,-2,1,-1,2,3
1570179599089742,-1,0,-1,-1,0,0,1,-3
1570179599096567,3,0,0,-1,0,-1,2,3
1570179599096567,-2,0,-2,-1,0,0,-1,-5
1570179599112745,6,1,0,0,-1,1,4,22
1570179599112745,0,-1,0,1,-1,-1,2,7
1570179599114469,-2,-3,-3,-1,-1,1,0,-1
1570179599114469,-1,0,1,0,0,-1,0,1
1570179599135563,-3,-1,0,1,0,-2,-4,-12
1570179599135563,-2,0,-1,-1,-1,-2,-2,-5
1570179599136410,2,-1,-1,0,0,-2,1,6
1570179599136410,-1,-1,-1,0,0,-1,0,-4
1570179599149376,-1,-2,-2,-1,-2,1,-1,-1
1570179599149376,-1,-1,-1,-3,-2,0,0,-1
1570179599156477,-4,0,0,-1,0,-1,-1,-11
1570179599156477,4,0,-1,-1,-1,-1,1,13
1570179599172359,1,0,-1,-2,-1,-2,-2,-3
1570179599172359,1,-1,0,1,1,2,0,1
1570179599174308,2,1,-1,-1,0,0,0,6
1570179599174308,-3,-1,-2,0,-1,-1,0,-3
1570179599195252,1,2,-2,0,-1,-1,1,0
1570179599195252,-2,0,-1,-2,-3,-2,-4,-14
1570179599197248,2,0,0,1,0,-1,-1,4
1570179599197248,-1,-2,1,0,0,0,0,-6
1570179599209223,-1,0,0,0,1,0,-2,-4
1570179599209223,1,-1,0,-1,-1,0,2,-1
1570179599216234,-3,-1,0,0,-2,-1,0,1
1570179599216234,-2,-2,2,-1,-1,-1,-1,-7
1570179599232199,-1,-2,-1,0,-1,-2,-1,3
1570179599232199,-2,1,0,-1,-1,-1,-2,-1
1570179599234358,3,0,-2,-1,-2,0,0,4
1570179599234358,-1,0,0,-2,-1,0,-1,1
1570179599255143,-1,1,0,-1,-1,0,-2,-2
1570179599255143,-1,-2,-2,0,0,-1,-1,0
1570179599257087,1,-2,0,0,-1,-2,0,-5
1570179599257087,-1,-1,-3,-2,-1,1,-1,-4
1570179599269102,0,-1,1,1,0,-1,0,0
1570179599269102,2,-2,0,0,-1,1,2,12
1570179599278029,-2,-1,0,1,-1,-1,-3,-5
1570179599278029,0,1,0,-1,1,0,0,1
1570179599292995,-5,0,0,0,-1,-2,-2,-8
1570179599292995,3,1,1,0,0,0,2,7
1570179599294085,-2,-2,-1,-1,0,0,0,1
1570179599294085,-2,0,-1,1,-1,0,1,-5
1570179599314933,-2,0,0,0,0,-2,-3,-6
1570179599314933,-1,-1,-1,-2,0,-1,-2,-3
1570179599317025,0,-2,-1,-1,-1,1,1,0
1570179599317025,0,-2,0,2,-1,1,3,10
1570179599328894,2,0,-1,-1,-2,0,3,6
1570179599328894,0,1,0,2,1,0,-1,0
1570179599337977,-1,-1,0,-1,-1,1,0,-1
1570179599337977,-1,0,-1,0,-1,-1,-3,-2
1570179599352977,0,-1,0,0,-1,1,-1,1
1570179599352977,1,-2,-2,-2,-2,-2,1,-4
1570179599353829,-2,-1,0,0,0,-1,-2,-6
1570179599353829,0,-1,-2,-2,-1,0,0,4
1570179599374821,1,0,1,-1,-1,-2,-1,-1
1570179599374821,-3,1,0,0,0,1,0,-7
1570179599376767,1,-1,-2,1,0,0,0,0
1570179599376767,-1,-2,0,0,-1,-2,-3,-7
1570179599388782,0,0,-2,-2,-1,-2,-1,0
1570179599388782,-1,0,-2,-1,0,0,0,3
1570179599397710,-1,-1,-2,-1,0,-3,-1,-2
1570179599397710,-1,1,-1,-2,0,0,-1,-1
1570179599412718,-3,-1,-1,0,0,1,-3,-4
1570179599412718,1,0,-1,-1,1,-2,-5,3
1570179599414667,-2,1,0,-1,-2,-2,-3,-5
1570179599414667,2,-1,-1,-1,-1,-1,1,11
1570179599435694,-3,-3,-2,-1,0,1,-2,-3
1570179599435694,-2,-1,1,0,-2,0,0,0
1570179599437604,1,-2,0,-1,0,0,1,3
1570179599437604,-3,0,-2,0,-1,0,-2,-4
1570179599448728,-3,0,1,0,-3,-2,-6,-14
1570179599448728,0,0,0,-1,-1,0,2,3
1570179599457672,1,0,-2,-1,-1,-1,1,0
1570179599457672,1,-1,-2,-2,-1,0,1,0
1570179599472756,-1,1,-1,1,-2,0,-1,-3
1570179599472756,1,-2,-1,-2,0,0,-1,-1
1570179599474506,-1,-2,-2,-2,-1,0,0,2
1570179599474506,0,0,1,-1,1,0,-2,-1
1570179599495633,-1,-1,-1,1,1,0,0,-1
1570179599495633,2,-1,0,-2,0,0,1,6
1570179599496853,-3,-1,0,2,0,0,-1,4
1570179599496853,0,0,1,1,-2,0,-1,-8
1570179599508527,10,-2,0,-2,-1,-1,1,16
1570179599508527,0,-2,-1,1,-3,-4,-2,-1
1570179599517436,-1,0,1,0,0,0,-1,-1
1570179599517436,-2,0,-2,-3,-1,0,0,-1
1570179599532544,-2,0,0,0,1,2,4,-6
1570179599532544,-1,0,-1,0,-1,0,-3,-1
1570179599534411,2,0,-1,0,0,-2,-2,0
1570179599534411,-3,0,0,1,0,-3,-2,-5
1570179599555594,2,-1,1,-1,0,0,2,5
1570179599555594,1,-1,-1,-2,-1,0,1,4
1570179599557007,-3,1,0,-1,-3,-1,0,-7
1570179599557007,-1,-1,0,-1,-1,1,2,15
1570179599569314,-2,-2,-2,0,-1,2,4,0
1570179599569314,-1,0,-1,1,-1,-2,-3,-8
1570179599578229,3,0,1,0,1,0,0,8
1570179599578229,-2,-2,-2,-1,0,-2,-1,-13
1570179599592190,0,0,-1,-2,0,-1,0,0
1570179599592190,0,0,-1,-1,0,-1,0,6
1570179599594283,0,0,-2,-1,-3,-1,1,-7
1570179599594283,-4,-1,-1,-1,-1,-1,-2,-7
1570179599615174,4,-1,-2,-1,0,0,-1,10
1570179599615174,0,0,1,-1,1,-1,1,-3
1570179599617125,-2,-2,-1,-1,1,0,-1,2
1570179599617125,1,0,-1,0,-1,0,1,2
1570179599629091,-5,-2,-2,0,0,1,-3,-6
1570179599629091,3,0,-1,0,-2,-1,1,2
1570179599645051,1,-1,-3,-1,-1,-1,-1,1
1570179599645051,-1,1,-1,0,-1,0,0,0
1570179599653238,-3,-1,0,-1,-1,-2,-1,-5
1570179599653238,-2,-3,0,-1,0,-3,-1,2
1570179599654548,-2,-3,-3,-1,0,0,-1,9
1570179599654548,0,0,-1,0,-1,0,-1,-5
1570179599675182,-1,0,0,1,-1,-2,0,0
1570179599675182,-3,0,-2,0,0,0,-1,-5
1570179599676968,0,0,0,-1,1,-1,0,0
1570179599676968,1,-2,-2,0,-2,0,0,2
1570179599697917,1,1,1,-2,-1,0,-2,0
1570179599697917,-2,-1,-2,-2,-1,1,1,0
1570179599698905,-1,-1,1,-2,-2,-2,-1,-6
1570179599698905,-2,0,2,0,1,0,-3,-5
1570179599712866,4,-1,-1,-1,-1,-1,3,7
1570179599712866,-7,1,-1,0,0,0,-3,-17
1570179599714705,2,0,-1,-1,-1,1,1,6
1570179599714705,0,-1,0,0,0,-2,1,-1
1570179599734807,0,0,-3,-1,0,-2,0,2
1570179599734807,-2,-1,-1,-1,-1,0,-2,-2
1570179599736811,-1,0,-1,-1,-1,0,-1,-2
1570179599736811,0,-2,-1,-2,0,-1,0,-1
1570179599757925,-5,-1,-2,-1,-1,0,-1,-6
1570179599757925,3,1,-1,-1,-1,0,2,13
1570179599759387,-2,0,0,0,0,0,-2,-11
1570179599759387,3,-1,-1,-1,-1,0,-1,3
1570179599772717,-1,0,-1,-2,-2,0,0,-4
1570179599772717,0,-1,0,-2,-1,0,2,0
1570179599774702,-4,-1,-2,0,-2,-3,-1,-3
1570179599774702,-3,0,-1,-2,1,1,-1,-2
1570179599794851,0,0,-2,0,1,1,0,0
1570179599794851,-2,-1,0,0,0,-1,-1,-3
1570179599796651,2,0,-1,0,-1,1,-1,2
1570179599796651,-1,-1,-1,0,-2,-1,0,-1
1570179599817883,-3,-1,-1,-2,1,-2,-2,0
1570179599817883,0,-1,-1,0,-2,-1,0,0
1570179599819597,-1,-2,-3,-1,-1,1,-1,-4
1570179599819597,1,0,0,-2,-1,1,-1,3
1570179599832555,1,-1,0,1,-2,-1,-4,0
1570179599832555,-3,-1,0,0,-1,-4,-1,-6
1570179599834545,1,0,0,0,1,1,1,3
1570179599834545,0,-1,0,1,0,-3,2,9
1570179599855572,-1,-2,-2,0,-1,-1,-1,-1
1570179599855572,2,-2,-2,-1,0,-1,-3,3
1570179599856917,-1,1,0,-1,0,-1,-1,-2
1570179599856917,1,-2,-1,-2,-2,1,0,2
1570179599885591,-2,1,1,0,1,-3,-3,-5
1570179599885591,-1,-1,-2,-1,0,1,-1,-2
1570179599886860,-1,-1,-2,0,-2,-2,1,2
1570179599886860,-2,0,-1,-3,-1,0,-1,-6
1570179599892396,0,-3,-1,-1,-2,-1,-1,-1
1570179599892396,-1,0,-1,-1,-2,0,-1,-6
1570179599898381,3,0,0,-1,-2,1,2,6
1570179599898381,-1,-3,0,1,0,-1,-2,-2
1570179599915333,0,-1,1,0,-1,1,0,2
1570179599915333,-1,0,1,-2,0,-1,0,2
1570179599916326,-3,0,0,-2,-1,-1,-4,-10
1570179599916326,1,0,-1,0,0,-1,0,1
1570179599937267,-1,0,1,-2,-1,0,1,1
1570179599937267,-1,-3,-2,0,-1,-2,-2,-8
1570179599939410,-1,-2,0,-1,0,1,-1,-3
1570179599939410,0,-1,-2,-3,-1,-1,-4,-1
1570179599952276,4,-1,-2,0,0,0,0,3
1570179599952276,0,-2,-2,-1,0,0,0,-1
1570179599959210,-1,0,-2,-1,0,0,-1,-1
1570179599959210,-2,-1,1,0,-1,0,-1,-5
1570179599975174,-2,-1,-1,0,-1,-1,-1,-3
1570179599975174,0,0,-1,1,-1,0,-1,2
1570179599977163,-1,-2,-1,-2,0,-2,-1,-1
1570179599977163,0,-1,-1,-1,0,-1,1,3
1570179599998105,-1,1,-1,-1,0,0,-3,-2
1570179599998105,-1,-1,0,0,-2,0,0,-1
1570179599999104,1,0,-1,-1,0,-1,1,6
1570179599999104,0,0,0,0,0,-1,1,4
1570179600012113,-4,-1,-1,0,-1,1,-4,-23
1570179600012113,4,-2,0,-2,0,-2,0,13
1570179600019049,-2,-1,-2,-2,-1,0,-1,-1
1570179600019049,-1,-1,-1,-1,-1,1,-1,1
1570179600035006,-2,-2,-1,-1,-1,-1,0,2
1570179600035006,-1,0,0,1,-1,-1,0,-4
1570179600037001,3,-1,-1,-2,1,-1,-1,8
1570179600037001,3,0,0,0,-1,-2,0,0
1570179600057985,-1,-1,-2,-1,0,-1,1,-3
1570179600057985,-2,-1,1,0,0,-1,0,1
1570179600058944,-2,0,0,1,0,0,0,-3
1570179600058944,-1,0,-1,0,-1,-1,-1,-3
1570179600072011,1,-2,0,-1,-1,1,-1,8
1570179600072011,-2,-1,0,0,0,0,0,-1
1570179600078930,0,1,0,1,-1,-1,-1,-4
1570179600078930,-3,0,0,-1,0,-1,-1,-4
1570179600094846,3,-1,0,-1,0,0,1,4
1570179600094846,1,0,-1,-2,-2,-2,-1,-1
1570179600096978,-1,-2,-2,-1,-1,-1,-1,-3
1570179600096978,-1,0,-3,-1,-2,0,-1,-1
1570179600117784,1,-1,-1,-1,-2,-1,1,3
1570179600117784,-2,0,0,-1,0,-1,-3,-3
1570179600118961,0,0,0,-1,-3,0,-1,1
1570179600118961,-6,-3,0,-1,0,-1,-3,-8
1570179600131785,0,-1,-2,0,1,1,2,4
1570179600131785,0,1,0,-1,1,2,-3,-1
1570179600138730,-2,-1,-1,-1,-1,0,-1,-3
1570179600138730,-2,-1,0,1,0,-1,-1,-3
1570179600154686,2,-1,-1,-1,-1,-1,0,6
1570179600154686,0,0,-1,-1,-2,-1,0,0
1570179600161667,-3,-2,-2,1,-2,-2,-1,-2
1570179600161667,2,-1,-1,-1,-1,-1,0,0
1570179600177628,-2,0,-1,0,1,-1,-1,-8
1570179600177628,-2,0,0,0,-1,-1,-2,-3
1570179600179657,1,-1,0,0,0,1,-1,2
1570179600179657,-1,-1,0,-1,-1,0,0,1
1570179600191624,-1,2,0,-1,-1,-1,-1,0
1570179600191624,-3,0,-1,2,0,1,-2,-7
1570179600200629,-1,0,-1,0,-2,0,-1,-6
1570179600200629,1,-2,0,0,-2,1,-1,4
1570179600215524,1,1,-2,-1,0,0,-2,2
1570179600215524,0,0,-2,-2,0,-1,0,-4
1570179600216580,1,0,-1,-1,-1,-2,0,5
1570179600216580,0,-2,-2,-1,0,-1,0,-2
1570179600238059,1,-1,-2,0,-2,0,2,5
1570179600238059,0,-1,0,-2,0,0,-1,-5
1570179600239459,-2,2,0,2,0,-1,1,-4
1570179600239459,0,1,1,-1,0,0,-2,2
1570179600251536,-4,-2,0,-2,-1,-2,-1,-12
1570179600251536,4,2,-3,-1,-1,0,2,8
1570179600260404,-1,-2,-2,-1,0,0,-1,4
1570179600260404,2,0,-1,-1,-1,-2,0,6
1570179600275461,-2,-2,-2,1,-2,-2,-2,0
1570179600275461,0,-1,-1,-1,0,0,0,1
1570179600276503,-1,1,0,-1,-1,0,-1,0
1570179600276503,-1,0,-2,2,-3,1,-1,-7
1570179600297310,0,0,-1,-1,-2,-2,-3,4
1570179600297310,-4,-2,-2,1,0,-1,2,2
1570179600299307,4,0,0,0,1,-1,0,-2
1570179600299307,-3,-2,-1,-1,0,-2,-1,-7
1570179600311328,1,1,0,0,0,0,-1,-2
1570179600311328,-6,-2,1,1,0,0,0,0
1570179600320659,1,1,-1,-1,-1,0,-1,-10
1570179600320659,0,0,-2,0,-2,-2,-2,-1
1570179600335237,-16,-16,1,0,2,0,0,-2
1570179600335237,14,15,2,0,1,1,1,9
1570179600336204,9,2,-4,-1,-2,-3,-5,-3
1570179600336204,-3,-3,0,1,-1,-1,0,2
1570179600357148,13,13,-3,-3,-1,-2,-1,-5
1570179600357148,-10,-9,-1,1,0,-1,2,1
1570179600359143,-2,-1,1,0,1,0,1,-1
1570179600359143,-7,-4,0,-1,-1,1,-1,1
1570179600371197,-18,-14,0,1,0,0,-2,0
1570179600371197,11,7,-1,-1,-1,-1,-1,-2
1570179600380097,10,11,-2,-3,-4,-6,-1,5
1570179600380097,-11,-15,-1,1,-1,0,1,-4
1570179600395049,-2,4,1,2,7,22,3,3
1570179600395049,-13,-11,-2,-2,-3,-21,-2,5
1570179600397038,9,5,1,0,3,9,1,-13
1570179600397038,0,1,-2,0,-2,-13,-2,2
1570179600417981,2,-3,-2,0,0,6,4,-1
1570179600417981,6,1,1,1,0,7,1,2
1570179600419119,-15,-7,0,-1,0,3,-2,-2
1570179600419119,2,5,1,-2,-4,-7,1,-1
1570179600430950,1,-2,1,3,-1,1,0,-2
1570179600430950,-8,-9,0,-2,-2,2,-3,-8
1570179600439928,-1,0,-2,-1,1,5,5,9
1570179600439928,7,10,1,-1,0,-9,-5,-2
1570179600455049,2,2,-2,-2,-3,-12,-4,4
1570179600455049,12,9,-1,0,-1,0,-1,-1
1570179600456877,-3,-5,2,0,-1,-1,-1,2
1570179600456877,-20,-11,2,2,3,10,6,6
1570179600477821,34,23,-3,-5,-4,-11,-8,-4
1570179600477821,-6,-3,0,0,0,0,-1,-3
1570179600478936,-11,-14,-6,-2,-3,-5,-2,-6
1570179600478936,-11,-10,0,1,6,14,5,-6
1570179600490840,-1,0,-1,-2,-10,-9,-7,10
1570179600490840,-2,-1,-1,-1,-1,3,-3,-9
1570179600499763,17,15,1,-2,-3,-8,-4,3
1570179600499763,3,-2,-1,-2,0,3,-2,3
1570179600514723,-10,-8,2,1,2,2,4,-3
1570179600514723,0,-3,-4,-1,-2,0,-1,-4
1570179600517142,-19,-12,1,3,2,4,3,4
1570179600517142,7,14,-1,-3,-2,-5,-4,-10
1570179600537730,11,0,-1,-3,-2,-7,0,4
1570179600537730,-8,-6,1,2,-1,8,5,7
1570179600539658,-9,-4,-4,-1,-3,-4,8,-13
1570179600539658,12,6,2,3,4,7,-23,12
1570179600551681,-10,-3,-1,2,5,23,-2,-5
1570179600551681,11,0,-2,-1,-6,-27,-8,4
1570179600560602,-28,-10,1,1,2,4,-2,-1
1570179600560602,11,6,-6,-5,-5,-4,2,-5
1570179600575565,-8,-4,-1,-2,-1,1,6,1
1570179600575565,0,1,0,1,1,2,-4,0
1570179600577202,3,-2,0,1,-1,3,0,0
1570179600577202,7,1,-2,0,-2,-4,5,0
1570179600597886,-14,-5,-3,-1,2,-2,-2,-10
1570179600597886,-4,-2,-4,-4,-4,-6,1,-11
1570179600599566,1,0,-1,-3,-2,-10,-2,5
1570179600599566,3,-1,-3,-2,-5,-3,1,1
1570179600620534,3,0,1,0,-3,-7,-1,-6
1570179600620534,-3,-3,-2,-1,3,7,3,-6
1570179600621439,4,0,-1,-2,0,4,-1,1
1570179600621439,2,2,3,2,3,-1,0,5
1570179600634449,-11,-4,-1,-1,-1,2,-9,6
1570179600634449,11,9,5,0,0,-7,0,14
1570179600641387,4,-2,-4,-2,-1,3,-1,-9
1570179600641387,-2,-5,-5,-5,-6,-11,-3,10
1570179600657341,5,1,1,-1,-1,2,5,2
1570179600657341,9,5,0,0,0,3,-5,-6
1570179600659342,8,5,3,2,2,-8,-2,8
1570179600659342,-10,-4,-2,0,3,6,9,-9
1570179600680320,-9,-2,0,0,-1,-4,4,1
1570179600680320,3,-1,-1,2,1,6,-3,-2
1570179600681280,10,8,-1,-2,-3,-3,-1,1
1570179600681280,-6,-3,0,1,2,4,-1,-6
1570179600695386,7,0,-3,-3,-12,-12,1,5
1570179600695386,-9,-6,-1,0,3,4,3,0
1570179600703296,-10,-5,-1,1,-1,1,-1,0
1570179600703296,7,4,0,-3,-2,2,0,0
1570179600718183,10,1,1,1,1,-4,4,15
1570179600718183,-16,-12,-2,-1,0,4,2,-4
1570179600720052,17,9,-1,1,-3,-7,-1,5
1570179600720052,-22,-3,0,0,1,10,-1,-5
1570179600740364,9,-1,-3,-1,1,-6,-3,-6
1570179600740364,12,10,0,0,3,11,0,-2
1570179600742119,-19,-14,-3,-4,-10,-25,-7,-1
1570179600742119,6,3,0,3,-2,-5,3,0
1570179600754309,-10,-2,1,0,0,-1,-1,-5
1570179600754309,-8,-6,-1,-2,-3,2,0,-5
1570179600761141,2,5,0,-1,1,-1,-4,-5
1570179600761141,9,1,0,-2,-3,0,1,1
1570179600778199,-9,-4,0,-2,-1,1,-1,-5
1570179600778199,9,3,-1,0,3,-8,-4,1
1570179600779021,-4,-4,0,-3,4,18,2,-3
1570179600779021,-24,-16,-1,-1,-5,-4,0,-5
1570179600799962,32,18,-1,-1,1,4,1,1
1570179600799962,-6,-4,1,0,-2,-3,0,1
1570179600801963,-10,-3,1,3,3,-3,-1,-2
1570179600801963,20,8,-3,-3,-1,3,0,-3
1570179600815052,-31,-20,-2,-1,-8,-2,-6,-8
1570179600815052,0,11,4,1,-2,-1,2,3
1570179600821542,20,-4,-7,-3,-2,4,-2,-3
1570179600821542,-1,-1,-1,-1,-1,-7,-1,-1
1570179600837863,-4,-3,-1,1,4,-3,0,-3
1570179600837863,-3,1,0,-2,-1,-1,0,2
1570179600838856,-17,-6,2,2,0,6,0,-3
1570179600838856,28,17,-2,-3,0,-2,-2,6
1570179600860023,19,14,-3,-2,-3,4,-4,-2
1570179600860023,-10,-18,-4,-2,1,-2,-1,-2
1570179600862028,-11,0,3,2,1,-3,2,3
1570179600862028,-13,-15,-1,2,3,-2,1,-2
1570179600874767,16,16,0,2,2,3,-1,-3
1570179600874767,0,2,-2,3,-6,-14,-3,3
1570179600881746,-7,-14,-6,-8,2,29,1,-4
1570179600881746,-4,-3,0,-2,-2,-20,-4,-1
1570179600897805,-17,-4,1,4,8,-4,0,-1
1570179600897805,18,6,0,0,3,8,-2,2
1570179600903721,3,2,-1,0,0,-3,14,-19
1570179600903721,-2,4,1,1,-1,5,-9,15
1570179600920688,2,-5,-1,0,-3,-2,-1,6
1570179600920688,-11,-5,-3,-1,0,3,3,-2
1570179600921639,4,0,0,2,-2,-4,-7,16
1570179600921639,6,5,-3,-3,-1,4,0,-8
1570179600934605,5,-2,0,0,-2,-7,6,8
1570179600934605,1,1,-1,-2,-1,1,-3,-2
1570179600941714,3,0,-1,-1,0,-3,-1,0
1570179600941714,-3,-2,1,3,5,13,3,-7
1570179600957549,-4,0,0,-1,-7,-12,-7,-3
1570179600957549,-5,-1,-1,-3,-5,-1,0,-6
1570179600959535,5,8,1,-1,1,8,8,-13
1570179600959535,-4,-1,-2,-1,-1,-3,-5,8
1570179600980655,-4,-6,0,0,1,4,3,-3
1570179600980655,-3,-3,1,-1,-4,-4,-1,-9
1570179600981477,1,3,-2,-1,-5,-13,-8,-7
1570179600981477,-2,-3,-2,-1,1,4,2,-1
1570179600994667,11,2,-1,-3,1,3,3,11
1570179600994667,-6,-3,-2,-2,-2,-4,-3,10
1570179601001426,4,1,0,1,0,-3,-6,11
1570179601001426,0,0,1,1,0,-3,1,-6
1570179601018546,-5,-3,1,-1,0,1,-3,-3
1570179601018546,-3,-1,0,0,1,1,1,-7
1570179601019379,-2,2,-2,0,-1,-1,-2,-17
1570179601019379,-3,-3,-2,-3,-4,-2,1,-5
1570179601040627,-5,-5,-2,0,-1,-2,-7,-7
1570179601040627,3,1,-1,0,2,4,5,6
1570179601041789,0,2,2,0,0,-6,-6,10
1570179601041789,-1,-2,0,-2,-5,-4,-3,-6
1570179601054360,2,0,1,0,0,2,-17,17
1570179601054360,-1,1,0,-1,0,-1,0,1
1570179601061269,3,0,0,-1,0,-2,6,13
1570179601061269,1,-3,-3,1,-2,-2,3,2
1570179601077462,-3,0,-1,1,1,5,6,-11
1570179601077462,-1,1,-2,-2,0,-1,-2,2
1570179601079506,0,0,0,0,-1,-7,-7,-1
1570179601079506,6,2,2,2,5,19,10,11
1570179601100481,-2,-1,1,-2,1,-5,-2,-3
1570179601100481,-2,-1,-2,-2,-1,2,1,3
1570179601102161,-3,-1,-2,-2,-1,-7,0,-5
1570179601102161,0,-1,0,-2,-1,-2,-5,-4
1570179601114178,-2,0,-2,0,-3,-5,3,-8
1570179601114178,-2,-2,1,-1,2,-3,-1,-1
1570179601123096,7,5,-2,-2,1,5,-1,5
1570179601123096,-5,-2,0,-2,-4,-6,-2,-7
1570179601138061,-6,-2,1,1,-1,2,4,-2
1570179601138061,2,0,0,-1,-2,-2,-1,-1
1570179601139288,6,2,2,1,-3,0,-10,20
1570179601139288,-5,-2,-3,-1,-2,0,16,-18
1570179601160341,-3,0,-1,-2,0,-4,-6,-6
1570179601160341,-1,-1,2,-2,0,0,-1,0
1570179601161010,-4,-1,-1,-2,-2,3,3,-4
1570179601161010,-2,0,-1,0,-2,-6,-2,-6
1570179601173967,0,-2,-3,-2,-1,2,2,2
1570179601173967,-1,-2,0,-2,-2,-1,0,-5
1570179601182949,-1,-2,1,-1,-1,-1,0,0
1570179601182949,1,1,-2,-2,-3,-7,-10,-2
1570179601197945,-2,-1,0,-1,1,1,7,2
1570179601197945,0,0,-1,0,1,-2,-7,-1
1570179601199001,-4,-2,-2,0,-1,-2,1,-3
1570179601199001,1,0,0,0,1,1,-4,5
1570179601220226,-1,-1,-2,-1,-1,0,1,-4
1570179601220226,1,-1,0,0,-1,0,2,-3
1570179601221835,-1,1,0,-1,1,-1,1,-4
1570179601221835,3,-1,-1,1,-1,-2,-2,4
1570179601234017,-2,-2,-1,-2,-1,-1,-2,-6
1570179601234017,-2,-1,0,-1,0,0,0,-5
1570179601242787,1,0,0,0,-1,2,0,0
1570179601242787,-1,0,1,-1,0,1,0,11
1570179601257878,-2,-1,-2,-1,-2,-2,-2,-1
1570179601257878,-1,-2,-2,-1,-1,3,2,-2
1570179601259732,-1,-1,-1,-1,0,0,-1,-2
1570179601259732,-2,-2,1,-1,1,-1,-1,-2
1570179601279686,-2,-1,0,1,-2,1,-1,-4
1570179601279686,1,0,-1,0,0,-1,-1,-2
1570179601281676,-1,-2,0,-1,-1,0,-2,-1
1570179601281676,-2,-2,-2,1,0,0,-2,-3
1570179601294647,-1,-2,-1,-1,-2,0,-4,-5
1570179601294647,-1,0,0,0,-1,-1,3,2
1570179601302619,0,-1,-1,-1,-2,-2,7,-11
1570179601302619,3,-1,2,0,0,0,-10,8
1570179601317788,-2,-1,0,-1,-1,2,-3,-10
1570179601317788,-1,-1,-2,0,1,0,1,-2
1570179601319579,-1,-1,-1,-1,-1,-1,1,4
1570179601319579,0,0,-2,-1,-1,-1,1,-11
1570179601339842,3,0,0,0,1,-1,3,8
1570179601339842,-1,1,-1,2,1,-1,-4,5
1570179601346659,1,-3,-1,-2,-2,-1,-3,5
1570179601346659,-1,0,1,-2,-2,-2,-2,-1
1570179601353535,0,1,0,0,1,-1,1,4
1570179601353535,1,-1,-1,-2,-2,-2,0,-6
1570179601362509,-3,0,-1,0,-1,1,-1,-4
1570179601362509,-2,-2,-1,-2,0,1,1,-2
1570179601377564,-1,-1,-2,-2,-3,-2,2,3
1570179601377564,-1,0,0,0,-3,-2,-1,0
1570179601383435,0,1,-1,0,0,0,-2,2
1570179601383435,-1,-1,-1,-1,-1,-2,-2,5
1570179601400672,-2,0,1,1,-1,0,1,3
1570179601400672,-1,-1,-2,-1,-1,0,-1,4
1570179601401354,-2,-1,0,-1,-2,-2,-2,-6
1570179601401354,0,-1,-1,-1,0,-1,2,5
1570179601414318,1,-1,1,-2,0,0,0,1
1570179601414318,0,-1,-1,0,-2,0,-3,-6
1570179601423297,-1,0,-1,0,0,-1,-1,1
1570179601423297,-1,-1,0,-1,-1,-2,0,-3
1570179601437309,1,-2,-1,-2,1,12,2,3
1570179601437309,1,-2,-1,-1,-2,-5,-2,3
1570179601444408,1,-2,-1,0,0,-1,1,5
1570179601444408,0,0,-1,-1,0,5,1,0
1570179601460206,-2,-1,-2,-1,-2,-8,0,-5
1570179601460206,-1,0,-1,-2,-4,0,2,-8
1570179601461194,1,1,0,0,-1,-2,-2,0
1570179601461194,-2,0,0,1,1,0,-1,-6
1570179601474216,1,-1,0,0,-2,0,-1,6
1570179601474216,-3,-1,0,-1,0,3,-2,-6
1570179601483230,1,-2,0,-1,-1,-3,2,4
1570179601483230,0,-3,-2,-2,-1,-1,-1,3
1570179601497251,-1,1,0,1,1,-3,-2,2
1570179601497251,0,-1,-1,-1,-1,-1,-1,1
1570179601504094,0,1,-1,0,0,3,-2,6
1570179601504094,-2,-1,0,0,-1,-3,0,1
1570179601520264,-2,-2,0,-2,-2,1,-1,-6
1570179601520264,0,-4,-2,-2,-3,0,-1,2
1570179601522088,-2,0,2,1,0,0,-2,-1
1570179601522088,-3,-2,-2,-1,1,-1,-1,-12
1570179601533997,2,0,-3,-1,0,-3,-2,0
1570179601533997,-1,1,0,-1,1,-1,0,4
1570179601542997,-2,-2,-1,-1,1,-1,0,0
1570179601542997,-1,0,-1,-1,-1,-2,-1,-4
1570179601556967,1,-1,-1,-2,0,-2,1,1
1570179601556967,0,0,-1,1,0,0,1,-2
1570179601563948,-1,0,-2,-2,-2,-2,-2,-4
1570179601563948,2,-2,-1,1,-2,-2,1,3
1570179601579925,-4,0,-2,0,0,0,0,-7
1570179601579925,4,1,-1,-1,-1,1,1,13
1570179601581873,0,0,-1,-1,0,-1,0,0
1570179601581873,2,0,0,0,1,0,1,2
1570179601603026,-2,0,0,0,-2,2,0,-1
1570179601603026,-3,0,-2,1,1,-2,-2,-4
1570179601604240,1,-2,-1,-2,0,2,1,9
1570179601604240,2,1,-1,0,-2,-1,-1,7
1570179601617015,0,-2,1,-1,-1,0,-1,6
1570179601617015,-4,1,-1,-1,1,-1,-1,-5
1570179601623883,0,-1,-1,1,0,0,0,-1
1570179601623883,-5,-1,1,-3,0,0,0,-5
1570179601640864,2,-1,0,0,-3,-6,-4,-2
1570179601640864,0,-2,1,-1,-1,8,0,-1
1570179601641712,0,-2,-2,1,-1,0,0,-4
1570179601641712,-3,0,-2,0,0,-1,-2,-3
1570179601662660,0,1,-1,0,1,-1,-1,-4
1570179601662660,3,-2,-2,0,-1,-3,0,5
1570179601664731,-2,-2,-2,-1,0,-2,-4,-8
1570179601664731,-1,1,-1,-1,-1,0,0,-2
1570179601677616,0,-1,-1,-2,-1,0,-1,-9
1570179601677616,-2,-1,0,0,-1,-3,0,0
1570179601679700,1,0,1,-1,1,0,-1,-1
1570179601679700,0,-3,0,-1,-3,-2,-1,-4
1570179601700558,2,0,-2,-2,-1,0,0,1
1570179601700558,-2,1,0,-1,0,0,0,-3
1570179601701704,-1,-1,0,-1,-2,-1,-1,-3
1570179601701704,-1,-1,0,-1,-2,-1,-3,-5
1570179601722493,0,1,0,1,1,4,6,9
1570179601722493,2,-1,1,1,-1,-3,-3,3
1570179601724489,-5,-1,-3,-1,-1,0,12,-12
1570179601724489,0,-1,-1,-2,-1,0,1,1
1570179601737456,-2,0,0,0,0,0,-3,5
1570179601737456,-1,-1,-2,0,1,-2,-2,8
1570179601743621,1,0,-1,-1,0,0,1,13
1570179601743621,1,-2,-1,-1,-2,0,-1,-4
1570179601760715,-2,-1,-1,-1,-1,-2,2,-7
1570179601760715,-6,-1,-1,-2,1,-2,-7,-25
1570179601761392,3,0,-1,-1,0,-1,-2,4
1570179601761392,1,0,-2,-2,-2,2,5,0
1570179601782336,-4,-1,-2,0,0,0,-3,-3
1570179601782336,4,1,0,0,-3,-13,-9,2
1570179601784340,-1,1,-2,0,1,-3,-2,-4
1570179601784340,2,1,0,0,0,-1,-2,2
1570179601797296,-6,-3,-4,-1,-2,1,6,-9
1570179601797296,-2,-1,-3,-2,-1,3,3,3
1570179601804280,1,-1,0,-1,-1,-1,-4,2
1570179601804280,-3,-3,-1,-2,-2,-7,-1,-1
1570179601820287,3,1,1,0,-2,0,-2,4
1570179601820287,-1,1,-1,-2,-1,4,4,8
1570179601826273,-2,-1,1,1,-1,-2,-5,-9
1570179601826273,0,-1,-2,-2,1,1,0,2
1570179601842174,-1,0,-1,0,-1,-2,-3,-4
1570179601842174,0,-1,0,-1,-2,1,1,3
1570179601844169,-5,-3,-3,-1,-1,3,2,5
1570179601844169,-1,0,2,2,0,0,2,1
1570179601857135,14,5,3,3,2,-4,-26,22
1570179601857135,2,0,0,-1,0,1,4,2
1570179601864116,-1,0,0,0,0,0,-2,-4
1570179601864116,0,-1,0,0,0,1,-3,1
1570179601881071,-4,0,-1,-2,-1,-2,4,-4
1570179601881071,-1,0,0,-1,-1,2,1,-8
1570179601882069,3,2,0,0,-1,0,-1,1
1570179601882069,-3,-1,-2,0,-1,-3,1,0
1570179601903012,-4,-1,0,0,1,9,6,-8
1570179601903012,0,-2,-1,0,0,-3,-2,3
1570179601904007,-2,-2,-1,-1,0,0,4,0
1570179601904007,1,-1,-2,-2,-1,-1,-3,6
1570179601917087,8,-1,1,1,-1,0,-6,38
1570179601917087,-4,-3,-1,-1,4,11,3,0
1570179601924067,0,1,-1,0,-3,0,0,2
1570179601924067,1,2,-2,-1,-1,2,3,5
1570179601940142,-4,-1,0,0,0,-3,-2,-16
1570179601940142,-4,1,0,0,0,0,0,-3
1570179601941967,1,-1,-2,-1,-1,-1,-3,4
1570179601941967,-3,-1,0,0,1,0,0,-9
1570179601963050,-5,-1,-3,-2,-2,-1,5,-12
1570179601963050,0,-1,0,1,-1,-4,0,-4
1570179601963848,-4,-1,-1,-2,-3,-2,0,-10
1570179601963848,0,0,-1,0,0,-2,-1,-2
1570179601977038,-2,-2,-1,-2,2,1,1,-7
1570179601977038,-5,-2,-3,-2,-1,-1,5,-9
1570179601983802,0,1,-1,-1,0,-1,-2,0
1570179601983802,0,2,0,1,1,1,1,7
1570179602000755,-2,-1,0,-1,0,-1,-1,-9
1570179602000755,5,-1,-1,-1,-2,-4,0,11
1570179602002064,-1,0,0,-3,-1,1,1,-6
1570179602002064,3,1,0,0,1,0,14,11
1570179602022907,-3,-2,-2,0,-2,-2,2,-8
1570179602022907,-2,-1,-1,-2,-2,-3,-3,-4
1570179602024185,0,0,-1,0,-1,1,1,3
1570179602024185,-3,-2,-1,-1,-1,-1,-4,-6
1570179602037004,-4,1,-1,-1,-1,-3,5,-4
1570179602037004,6,3,3,2,5,19,3,2
1570179602043787,1,-2,-2,-2,-6,-13,-3,3
1570179602043787,-3,-1,-3,-1,-2,0,-3,-6
1570179602060591,-2,-3,-1,1,-2,-3,-1,-2
1570179602060591,-3,0,-2,-1,0,-2,-2,-3
1570179602061589,-1,-1,1,2,2,1,-1,0
1570179602061589,0,1,0,0,-1,-3,-4,-16
1570179602082706,3,-1,0,0,-1,2,-1,6
1570179602082706,-2,-3,0,-1,-1,-4,-1,-1
1570179602084528,-2,-1,-1,-1,-1,-1,-5,-15
1570179602084528,-3,-2,-1,0,-1,-3,-2,3
1570179602096641,-3,-1,-2,-1,-1,1,1,-3
1570179602096641,-2,-1,-1,0,-1,-3,-2,-6
1570179602105481,-2,-1,-1,0,-1,-1,-2,-1
1570179602105481,0,-2,-1,-2,-2,0,-3,0
1570179602120439,5,2,2,-1,-1,1,-9,8
1570179602120439,1,-1,-3,-3,-2,-5,0,6
1570179602126417,0,1,-1,1,1,1,0,4
1570179602126417,3,-1,-2,-1,0,1,-3,6
1570179602142374,-2,0,0,0,0,-3,-1,-2
1570179602142374,-1,2,1,0,-1,-4,0,6
1570179602144368,-1,-1,0,-2,-1,2,-1,2
1570179602144368,-3,-1,1,-1,-1,-1,3,-2
1570179602156683,-5,-2,-2,-1,1,-3,2,-9
1570179602156683,-1,-2,-2,0,0,-1,-3,-1
1570179602165407,-1,0,-1,-1,0,-1,0,0
1570179602165407,0,1,-1,-1,-1,0,-1,1
1570179602181301,-1,0,-2,-1,-1,-1,0,-3
1570179602181301,-2,-1,-1,-1,0,-2,-2,-1
1570179602182269,1,-1,1,-1,0,-3,-6,3
1570179602182269,-2,-1,0,1,-1,-2,-3,-4
1570179602203211,2,0,-1,-2,0,0,0,1
1570179602203211,-1,-1,0,-1,0,-2,-2,-5
1570179602204563,-1,-2,-1,-2,-3,-2,0,3
1570179602204563,0,-1,0,1,3,0,-2,-3
1570179602216174,-1,-2,1,-1,0,0,0,3
1570179602216174,-6,-1,1,0,-2,-2,-1,-6
1570179602225151,4,-2,0,1,0,1,0,4
1570179602225151,2,1,-1,-1,-2,-1,-1,5
1570179602240346,0,-2,-2,0,-3,0,1,-3
1570179602240346,-2,1,0,-1,-1,-2,0,-2
1570179602242118,-6,-2,-4,0,0,2,14,-17
1570179602242118,-1,0,1,-2,-2,1,-2,-4
1570179602263050,-1,-1,-1,0,0,-1,1,-1
1570179602263050,1,0,1,-2,-1,-1,-3,4
1570179602264052,2,2,-1,-2,1,2,6,13
1570179602264052,4,0,0,1,2,0,-5,9
1570179602276160,-3,0,-1,-1,1,0,-2,-2
1570179602276160,0,-2,0,1,-2,0,2,-4
1570179602285020,-2,-3,0,0,-1,0,-3,-4
1570179602285020,0,-3,-3,-2,2,0,2,-4
1570179602300159,4,1,0,0,-1,-2,-2,19
1570179602300159,3,1,-1,-2,-1,1,-1,4
1570179602301950,-3,0,1,-1,0,-1,-4,-2
1570179602301950,-3,-1,0,-2,-3,0,0,-1
1570179602322937,2,0,-1,-1,-1,-1,2,7
1570179602322937,-2,-2,-3,-1,-1,0,-1,-10
1570179602324385,0,0,-1,0,0,2,-1,1
1570179602324385,-3,-3,-3,-1,-1,1,1,-9
1570179602336052,-2,0,-2,-1,-1,0,1,0
1570179602336052,0,-1,-1,-2,1,-1,-3,-2
1570179602344973,1,0,1,-1,1,-1,-3,-4
1570179602344973,-3,0,-2,-1,1,-3,-2,1
1570179602360788,-2,-2,-2,-2,-1,1,-1,-5
1570179602360788,2,1,-1,0,-2,-2,1,8
1570179602362087,-3,0,0,0,-1,0,-1,-6
1570179602362087,0,0,0,-1,-1,0,1,-4
1570179602382943,2,0,1,-2,0,-3,-15,-3
1570179602382943,4,1,1,2,0,2,2,5
1570179602384729,-2,-1,-1,-1,0,-2,-4,-8
1570179602384729,-1,1,1,1,-1,-1,3,2
1570179602396742,-1,-2,0,1,-2,1,3,-6
1570179602396742,-3,-3,-2,-1,-1,0,-2,-4
1570179602405669,-5,-1,-1,-1,-3,-3,-3,4
1570179602405669,2,-3,-2,1,-2,1,0,2
1570179602419632,1,0,-2,-1,-2,1,3,-2
1570179602419632,-2,-1,-1,-1,-1,-2,-2,1
1570179602421625,-8,-4,-4,-3,-1,-1,6,-8
1570179602421625,-3,-2,0,-2,-1,-1,-2,-5
1570179602442575,-1,-1,-1,0,1,0,3,0
1570179602442575,-3,0,1,-1,-2,0,-4,-6
1570179602444563,7,2,-1,1,0,-1,1,15
1570179602444563,0,1,0,-1,-1,0,-5,-2
1570179602456581,-2,0,-2,-2,0,-3,-1,-3
1570179602456581,-1,-2,-2,-1,-1,1,2,2
1570179602465559,1,1,0,0,0,-2,0,-1
1570179602465559,-1,-1,0,0,-2,0,3,0
1570179602480512,-2,-4,-2,0,-3,-1,-6,-6
1570179602480512,-1,1,-2,0,0,-1,-1,-4
1570179602481548,-1,-1,1,0,-2,-1,-2,-3
1570179602481548,-1,1,0,-1,0,0,-3,5
1570179602502455,-2,0,0,0,-1,-1,2,-7
1570179602502455,-1,-1,0,0,-1,-2,-2,-7
1570179602504579,2,-2,-1,0,0,1,-3,1
1570179602504579,-1,0,0,-1,0,0,3,-8
1570179602525352,0,-1,-1,-2,-1,-1,-3,-4
1570179602525352,3,0,-1,-3,-1,-1,-1,3
1570179602526344,1,1,0,1,0,-1,2,3
1570179602526344,-4,1,0,0,-3,-3,-2,-8
1570179602547368,1,0,0,-1,0,1,1,3
1570179602547368,0,-2,-2,0,0,-1,0,2
1570179602549621,0,-1,-2,0,1,-1,-3,-2
1570179602549621,-1,1,-1,-1,0,-3,-3,2
1570179602562251,-1,-1,-1,0,0,0,2,4
1570179602562251,-1,0,-1,0,-1,-1,2,0
1570179602564243,-1,-1,-2,-1,0,0,-1,-4
1570179602564243,0,-1,-1,0,-1,-1,-3,1
1570179602585192,0,-3,0,1,-2,0,1,0
1570179602585192,-1,-2,-1,0,0,0,2,0
1570179602586184,-3,-1,0,-1,-1,1,13,10
1570179602586184,-1,-1,-1,-1,0,-1,-5,-12
1570179602599471,-5,0,-2,1,0,-1,0,-6
1570179602599471,0,-1,1,0,0,-1,-3,7
1570179602600147,-1,0,0,-1,-1,-1,0,-3
1570179602600147,-2,0,0,1,-2,1,2,3
1570179602622091,7,0,-1,-3,0,1,2,11
1570179602622091,-2,-2,-2,-2,-1,0,3,-5
1570179602623085,-2,1,1,0,0,0,-5,0
1570179602623085,0,-1,0,-1,1,1,6,-1
1570179602644029,-3,-1,-2,0,-1,1,4,3
1570179602644029,0,0,1,-1,0,0,-1,-2
1570179602645064,2,-1,-1,0,0,-2,-6,1
1570179602645064,4,1,-1,0,-1,-1,1,11
1570179602661058,-6,-2,-1,-1,-2,-2,-2,-12
1570179602661058,2,-1,-1,-2,-1,-1,-1,1
1570179602661982,-2,0,-1,-1,0,0,-3,-4
1570179602661982,1,-1,-2,0,-1,2,0,-1
1570179602681973,-1,0,-1,-1,0,-1,-3,-10
1570179602681973,0,0,0,1,0,0,-4,-3
1570179602682925,2,1,-1,0,-3,-1,-3,4
1570179602682925,0,-2,-2,-1,-1,-1,-2,1
1570179602704868,-2,-6,-2,-2,0,-2,3,2
1570179602704868,0,0,1,0,0,-3,-2,3
1570179602705865,-1,-1,-2,-1,-1,0,1,-1
1570179602705865,0,0,1,-1,-1,-1,-4,2
1570179602719880,-1,0,0,1,0,0,0,1
1570179602719880,-1,0,-3,-3,-1,0,2,-1
1570179602719880,-2,0,0,-2,-1,0,-2,-5
1570179602719880,-2,-1,-2,-4,-1,-1,2,-3
1570179602742033,0,0,0,-1,-1,1,-1,2
1570179602742033,0,-1,-2,-1,-1,0,0,1
1570179602749748,0,0,0,2,-1,2,-1,-2
1570179602749748,5,2,2,2,-2,0,-4,6
1570179602764705,-2,-1,-1,-2,0,0,5,-1
1570179602764705,1,2,1,1,1,-2,-4,5
1570179602764705,-1,1,-1,-1,0,0,1,5
1570179602764705,-2,-1,0,0,0,-1,0,-5
1570179602779503,1,0,0,-1,-2,-1,-4,-5
1570179602779503,-4,-3,-1,-2,-2,-2,-1,-5
1570179602780499,-2,-1,1,-2,-2,0,-1,-4
1570179602780499,-2,-2,-1,1,0,1,0,-4
1570179602802472,7,2,-1,0,-1,-1,-1,13
1570179602802472,1,-1,-3,-1,1,-1,1,1
1570179602802472,3,-3,-1,-2,-1,0,0,13
1570179602802472,-1,1,2,1,1,0,-4,-3
1570179602823929,-8,-1,1,-1,-1,-1,-3,-11
1570179602823929,9,2,2,1,0,0,-12,24
1570179602825421,-2,-3,-1,0,0,-1,-1,-9
1570179602825421,0,-1,-2,-2,-1,-1,3,0
1570179602838955,-2,0,-1,0,0,-1,-3,1
1570179602838955,-3,0,-1,0,-2,0,3,-4
1570179602840370,-3,-2,1,-1,-1,-2,-4,-9
1570179602840370,-1,-1,0,-2,-1,0,-1,5
1570179602861931,-1,2,0,0,-1,0,1,-3
1570179602861931,-4,-2,-2,0,-2,2,4,-6
1570179602862975,1,0,0,0,-1,0,2,0
1570179602862975,0,-1,-1,0,0,-1,-4,-1
1570179602884703,2,0,-1,-1,0,1,-1,4
1570179602884703,-3,-1,-2,-3,1,0,-1,-8
1570179602884703,2,0,-1,0,-1,-1,-1,5
1570179602884703,-6,-1,-1,-1,-2,-3,-4,-23
1570179602900028,-2,-2,0,2,0,1,1,0
1570179602900028,5,0,1,1,-1,0,-1,-2
1570179602900226,2,-1,-2,-2,0,-2,1,7
1570179602900226,-1,-1,-3,-1,0,0,0,0
1570179602921638,1,1,0,0,-2,-3,-3,3
1570179602921638,-4,-3,-3,-2,0,-1,5,-4
1570179602922593,-1,0,-2,0,-2,1,-3,-3
1570179602922593,-2,1,-1,-2,-1,0,7,-5
1570179602944570,2,1,1,0,2,-2,-17,4
1570179602944570,-1,0,0,-2,-1,-3,-2,-1
1570179602945586,-1,1,-1,0,-1,1,-1,-4
1570179602945586,1,-2,0,1,1,0,0,7
1570179602959597,-3,-1,0,-2,-1,1,3,-8
1570179602959597,4,-1,1,0,0,1,2,4
1570179602960527,-4,0,0,1,0,-3,-5,-3
1570179602960527,-1,-2,-1,-1,-1,-2,0,1
1570179602982007,0,2,0,-1,-1,-1,3,-1
1570179602982007,-3,-1,-1,-1,-1,1,-3,-3
1570179602982579,1,0,1,1,-2,-2,1,-1
1570179602982579,-1,0,0,-1,0,-1,-5,-10
1570179603004603,1,-2,-1,-1,-2,-1,-1,0
1570179603004603,-1,-2,0,-1,-2,-2,-1,1
1570179603005597,-2,1,0,-1,-1,1,-2,-7
1570179603005597,0,1,-2,1,-1,-3,-4,2
1570179603019086,0,0,-1,-2,0,0,-2,1
1570179603019086,0,-2,-3,-2,0,0,0,-6
1570179603020033,0,-1,0,1,0,0,0,-1
1570179603020033,1,-1,0,0,-1,0,0,9
1570179603041975,4,0,-1,-1,0,1,-11,14
1570179603041975,0,-1,-1,-1,-1,-2,1,6
1570179603042973,-1,-2,-1,-1,0,-1,0,-4
1570179603042973,1,-1,-1,-2,-1,-1,-1,4
1570179603064913,-5,-1,-2,-1,0,0,4,-7
1570179603064913,-3,2,-1,-1,0,-1,-2,-6
1570179603065069,0,-1,0,0,2,-1,-3,2
1570179603065069,-2,-3,-1,-2,-1,0,3,0
1570179603078874,-3,-1,-1,-2,-2,-2,2,-4
1570179603078874,-6,-3,-1,-1,-1,3,-1,-15
1570179603079880,1,1,0,0,0,1,3,6
1570179603079880,2,1,2,0,0,2,-1,4
1570179603102812,1,-1,-1,1,0,-1,1,-4
1570179603102812,0,-1,0,-1,-2,-1,-2,-1
1570179603103017,-1,-2,-1,-2,0,-1,0,-4
1570179603103017,-3,0,0,0,-1,0,-1,4
1570179603124756,2,0,-1,0,1,-2,0,2
1570179603124756,-12,-3,-3,0,-1,-1,13,-11
1570179603124878,-1,-1,-1,0,-1,0,-2,0
1570179603124878,2,0,-2,0,-2,0,-1,6
1570179603138715,-2,-2,-2,-2,-2,0,2,-1
1570179603138715,-1,0,0,-1,0,-1,-3,1
1570179603146725,0,-1,-1,-2,-1,-1,-1,-3
1570179603146725,0,0,0,0,0,-2,0,-3
1570179603161655,-1,0,-1,1,-1,1,2,-5
1570179603161655,2,0,1,0,0,-2,-5,5
1570179603162654,-2,-1,-2,-1,0,1,13,-12
1570179603162654,-2,1,1,-2,1,-1,0,13
1570179603184911,3,-1,-1,1,-2,-2,1,3
1570179603184911,1,1,-1,2,1,-1,-4,6
1570179603185591,0,0,-1,-1,-1,2,-2,1
1570179603185591,-2,-3,-2,-1,-2,0,-1,-9
1570179603198555,-3,1,-1,0,-1,0,0,-3
1570179603198555,-1,0,-2,-2,-2,1,0,0
1570179603206821,1,-1,0,0,-1,-3,-5,-1
1570179603206821,-1,1,-1,0,0,0,-1,0
1570179603221494,-1,2,1,1,1,0,-2,-7
1570179603221494,3,1,0,0,0,-2,-2,-1
1570179603222494,-3,-1,0,-2,-1,0,-5,-3
1570179603222494,2,0,-2,-2,-1,0,0,4
1570179603244432,-2,-1,-2,-1,1,-1,1,1
1570179603244432,0,0,-2,-1,0,-1,0,2
1570179603245431,-5,-2,0,-1,0,-1,2,-8
1570179603245431,2,-1,-1,-1,-2,1,4,1
1570179603258739,-2,-1,2,1,-4,-3,8,-13
1570179603258739,4,2,1,0,-1,-2,0,18
1570179603266377,-2,-1,-1,0,0,-1,-2,1
1570179603266377,-2,-1,-1,-1,1,-2,-2,-2
1570179603282349,-1,-2,-1,-2,1,3,1,2
1570179603282349,-1,-2,1,1,0,1,-3,-4
1570179603282349,2,1,-1,0,0,-2,0,3
1570179603282349,-3,-2,-1,0,-1,0,0,-7
1570179603304329,-1,-2,-1,-2,-1,1,5,-2
1570179603304329,-1,-1,0,-1,-1,-3,-3,-4
1570179603305270,3,1,0,-2,-1,0,-1,14
1570179603305270,-3,-3,-2,1,0,-1,-4,-14
1570179603318541,1,0,0,0,-1,-1,-2,4
1570179603318541,1,-1,-2,0,0,0,0,5
1570179603327214,-1,-1,0,-1,-1,0,0,0
1570179603327214,1,1,0,-2,-1,-1,1,0
1570179603342170,0,-2,-1,-1,0,-2,-5,-1
1570179603342170,-4,-3,-2,-2,-2,-1,-3,-19
1570179603342170,2,-1,-1,1,0,-3,-4,-2
1570179603342170,-1,-1,-3,-3,-1,0,7,-6
1570179603364113,-1,1,1,1,1,-4,-10,3
1570179603364113,2,0,0,-2,0,0,0,-2
1570179603365241,-3,-1,-3,0,-1,-1,-2,-2
1570179603365241,-5,-1,1,-1,-1,-1,1,-10
1570179603379073,4,0,0,-1,1,-1,0,9
1570179603379073,-2,-1,0,-1,-1,0,-2,-10
1570179603387053,0,-1,-1,0,1,-2,-5,-2
1570179603387053,0,2,2,1,0,0,-1,7
1570179603402011,-1,-2,-3,0,-1,2,1,-3
1570179603402011,1,2,-1,0,0,-1,-2,8
1570179603403010,1,-1,0,-1,-1,0,1,2
1570179603403010,1,-1,0,-1,1,-1,-5,0
1570179603423952,-1,-1,-1,0,0,-1,-2,-2
1570179603423952,5,-1,-3,-1,-1,0,3,7
1570179603425063,-1,0,0,1,-2,0,0,-4
1570179603425063,3,-1,0,-1,-1,-2,-3,4
1570179603439010,-4,-1,-1,-1,-1,0,-4,-2
1570179603439010,-1,-1,0,-2,-2,-1,2,0
1570179603446891,2,1,1,-3,1,0,-1,3
1570179603446891,2,0,-1,1,-2,-1,5,-2
1570179603461854,2,4,1,1,0,-2,-13,1
1570179603461854,0,-2,-1,-1,-1,-1,-1,2
1570179603462849,-2,-2,0,0,0,0,-2,-2
1570179603462849,-3,-1,-3,-2,0,0,2,-5
1570179603484790,-1,0,-2,-2,-2,-1,1,3
1570179603484790,-6,-1,-2,-1,-1,-1,-4,-20
1570179603484790,1,1,-1,1,-1,0,-2,-4
1570179603484790,1,0,-1,2,0,0,-1,9
1570179603506823,-1,-1,1,-2,0,0,2,3
1570179603506823,0,2,1,0,2,0,-3,4
1570179603514708,-2,-1,-2,-2,-1,2,2,-5
1570179603514708,-2,0,0,0,0,-2,-4,0
1570179603521690,0,-2,-2,-2,-1,-2,2,-1
1570179603521690,-2,-1,0,0,-1,0,3,-1
1570179603522687,0,-1,0,1,-1,-1,0,10
1570179603522687,2,1,0,0,1,-1,-5,5
1570179603544630,2,-2,0,-1,0,1,-4,13
1570179603544630,-1,-2,0,1,2,0,0,4
1570179603544630,-2,0,-1,-1,0,-1,-1,-3
1570179603544630,3,-1,0,-3,-3,-2,-6,3
1570179603567645,5,2,0,2,0,-1,-7,5
1570179603567645,1,0,-1,-2,-1,-1,-1,-4
1570179603568565,-3,-1,-1,-3,-1,-1,-1,3
1570179603568565,2,-1,0,0,0,-2,-1,-9
1570179603581593,-3,-1,0,-1,0,0,4,-12
1570179603581593,3,-2,-2,-1,-1,-1,1,5
1570179603582528,0,1,-1,0,-2,-2,-2,-2
1570179603582528,-1,0,-1,-1,-1,1,1,2
1570179603604472,-1,0,-1,0,-2,-1,5,8
1570179603604472,2,0,-2,-1,1,0,-4,6
1570179603605569,0,-1,0,1,0,0,1,-3
1570179603605569,2,-1,-1,-1,0,0,-2,3
1570179603627502,-5,-2,-2,-2,0,-2,2,-15
1570179603627502,-3,0,0,-1,-2,-1,1,-2
1570179603628406,1,-4,-3,-3,-2,0,-1,4
1570179603628406,0,0,-1,1,0,-2,-1,1
1570179603642369,-1,-1,0,0,0,0,0,-2
1570179603642369,1,0,0,2,0,-1,0,-2
1570179603642369,3,2,2,1,1,-3,-17,12
1570179603642369,-2,-2,-2,0,0,0,0,-2
1570179603664764,-1,-1,1,-1,0,0,0,-1
1570179603664764,-2,1,-1,-1,-2,1,0,-1
1570179603665389,-1,0,0,0,-2,1,3,-6
1570179603665389,-2,-1,-2,1,-1,2,0,-5
1570179603687249,0,-2,-3,0,-2,-1,2,0
1570179603687249,-2,-1,0,-1,-2,-1,2,-5
1570179603688247,-1,-2,0,0,-1,-1,1,-4
1570179603688247,3,1,1,-1,0,0,1,10
1570179603702210,1,1,-1,0,0,3,7,10
1570179603702210,0,1,0,1,0,1,1,8
1570179603703024,-4,-1,0,-1,0,0,2,-8
1570179603703024,2,1,1,0,-1,-1,-1,3
1570179603724151,4,0,0,-2,-1,0,0,4
1570179603724151,-3,-1,-1,-4,0,-1,-3,-8
1570179603725148,1,1,-1,-1,0,1,-2,-1
1570179603725148,-3,0,-1,-2,0,-2,-1,1
1570179603747182,-3,-1,0,-1,-1,-1,-4,-7
1570179603747182,2,-1,0,0,-1,-2,2,8
1570179603748085,-6,-3,-4,-2,-1,-1,7,-25
1570179603748085,-7,-4,-1,0,-1,-1,8,-20
1570179603770031,-3,0,0,1,-2,-3,-6,-3
1570179603770031,0,-2,-1,-2,-2,-1,-2,-1
1570179603771027,-1,0,0,-1,-1,0,0,1
1570179603771027,0,1,-1,-2,-2,-1,0,-1
1570179603799946,-1,0,-1,0,0,0,1,-1
1570179603799946,-3,-1,-2,1,-2,-1,0,-4
1570179603800948,0,1,-1,-1,-2,-1,-2,-11
1570179603800948,0,-1,1,0,-1,-1,-4,4
1570179603807934,-1,-1,-1,0,-1,-2,-2,-4
1570179603807934,-4,-2,-2,-1,-3,-1,0,-5
1570179603807934,0,0,-3,1,0,-1,-1,1
1570179603807934,2,1,0,-1,0,-1,-4,3
1570179603821937,-2,-2,-1,-2,-1,0,-2,-10
1570179603821937,-1,-1,0,0,-1,-1,2,-3
1570179603822887,1,0,0,-1,0,-2,0,4
1570179603822887,0,-1,-2,0,-3,-2,-1,-1
1570179603844828,-2,-1,0,-3,-1,1,0,-6
1570179603844828,1,0,-2,-1,-1,-1,-2,1
1570179603844828,2,0,0,-1,-1,-2,-2,6
1570179603844828,-3,-2,-2,-3,0,1,10,-8
1570179603868182,2,-1,1,1,-1,-1,-2,2
1570179603868182,-3,-1,0,1,0,0,-5,-5
1570179603869253,3,0,0,0,0,-1,0,5
1570179603869253,-4,0,-1,-1,-1,-2,-2,-3
1570179603881987,1,1,-1,-1,-1,-1,2,2
1570179603881987,-1,3,3,0,1,0,0,0
1570179603882733,-2,-2,-4,-1,0,1,3,-2
1570179603882733,3,2,0,0,0,-1,0,18
1570179603904690,3,1,1,0,-1,-1,-9,8
1570179603904690,1,0,-1,-1,0,0,-2,6
1570179603905668,-1,-2,-2,0,0,1,0,3
1570179603905668,-3,-3,-1,0,-2,0,-2,-4
1570179603927608,-2,-1,-3,-2,0,-1,0,-2
1570179603927608,-3,-3,-1,0,-2,-2,3,1
1570179603928622,0,1,0,0,-1,-2,-5,-5
1570179603928622,-1,1,-1,0,0,0,-3,-3
1570179603941570,1,-1,-1,0,-1,-3,3,-1
1570179603941570,0,0,0,1,-1,1,-2,-5
1570179603942568,-7,-2,0,-1,-1,-1,0,-8
1570179603942568,-3,-1,0,0,-1,-3,-2,-10
1570179603964510,11,1,0,-1,0,-3,-10,19
1570179603964510,3,0,-2,-1,1,-1,2,10
1570179603965660,0,-1,1,0,-2,-1,-1,-4
1570179603965660,0,-1,-1,0,0,2,2,6
1570179603987449,-5,0,-1,-2,-1,1,3,-4
1570179603987449,-5,-2,-3,-2,-2,1,0,-8
1570179603988444,3,0,-1,-1,0,-2,-2,4
1570179603988444,3,-1,-1,-4,-1,-1,-3,10
1570179604002408,-2,-1,-1,-1,2,1,4,-7
1570179604002408,0,0,-1,0,-1,1,0,4
1570179604002459,2,-1,-1,1,-1,1,4,3
1570179604002459,1,-1,0,1,-2,0,-3,-2
1570179604024349,-3,-2,-2,0,-1,0,0,-2
1570179604024349,-2,0,-1,0,-1,-2,-1,-3
1570179604025603,-3,0,0,-1,0,1,3,4
1570179604025603,0,0,0,0,2,2,4,-20
1570179604048287,0,0,-1,0,-2,0,-4,0
1570179604048287,1,-1,-1,-1,-1,-1,0,0
1570179604049282,-2,-1,-1,0,1,0,1,1
1570179604049282,-2,0,1,-1,-1,0,2,-2
1570179604062247,-1,-1,-1,-1,-2,-1,5,-3
1570179604062247,0,0,-1,0,-1,0,-3,-1
1570179604062247,0,-1,-2,-1,-1,1,0,3
1570179604062247,-2,0,1,2,1,-1,-3,-1
1570179604084689,-1,-1,-2,-1,-1,-2,-1,-2
1570179604084689,-1,0,0,-1,0,-1,-3,-6
1570179604085187,3,-1,-2,0,0,-1,1,7
1570179604085187,-1,0,-1,1,-1,0,-3,-1
1570179604107128,-3,-1,-2,-1,-1,-2,2,-1
1570179604107128,-3,-2,0,-1,-1,-2,2,-2
1570179604108126,1,1,0,0,-2,0,-1,-2
1570179604108126,7,2,1,1,1,-2,-19,15
1570179604121090,8,0,0,0,2,2,-2,16
1570179604121090,-1,-1,0,-1,0,-2,-1,-3
1570179604129223,3,0,0,-1,1,-1,3,5
1570179604129223,-5,-3,-3,-1,-3,2,1,-7
1570179604144027,-3,-2,-1,0,-1,0,1,-8
1570179604144027,0,-2,0,2,0,0,-1,3
1570179604145025,-2,0,0,1,1,1,-3,-5
1570179604145025,-2,1,-1,-1,-1,-2,3,-4
1570179604167966,-3,-2,-3,0,-2,-1,1,-3
1570179604167966,2,1,-1,0,0,1,4,11
1570179604167966,-6,-1,0,-1,-2,-2,0,-10
1570179604167966,6,-1,1,0,0,0,2,10
1570179604180926,-1,-2,0,-2,0,1,0,-4
1570179604180926,-1,-1,-1,-2,-2,0,-3,-2
1570179604188905,2,0,0,-2,-1,-1,-1,4
1570179604188905,-3,0,-2,-1,1,-2,0,5
1570179604203866,0,-2,0,-1,-2,-2,0,-10
1570179604203866,-1,0,0,0,0,-2,-3,-6
1570179604205065,-1,-2,-3,-2,-1,-1,-1,3
1570179604205065,-4,-2,-2,-2,-1,-1,5,-6
1570179604227806,3,-1,-2,0,0,-1,-2,8
1570179604227806,-2,-1,0,-2,1,-1,-1,-4
1570179604228094,-2,-1,0,-2,-2,-2,0,-3
1570179604228094,0,0,-2,-1,0,-3,-17,2
1570179604240768,-2,0,1,-1,1,1,0,-4
1570179604240768,2,0,1,-1,0,0,1,2
1570179604249743,1,-2,-1,1,0,0,-2,0
1570179604249743,-1,0,-2,-2,-1,0,5,-2
1570179604264703,-1,0,0,0,-1,0,-1,-2
1570179604264703,-3,-2,-3,-3,-2,-2,-3,1
1570179604265349,0,0,-1,-1,0,-1,-1,0
1570179604265349,-1,0,0,-2,-1,-1,1,-3
1570179604287702,0,1,-1,-1,-1,0,-1,0
1570179604287702,-1,-2,-1,-1,-2,-1,-1,-10
1570179604288639,-2,-1,-1,0,0,0,-1,-4
1570179604288639,1,-2,-1,0,-2,0,1,10
1570179604301759,-2,1,1,0,0,-1,4,-3
1570179604301759,0,0,0,1,-1,-1,-2,-1
1570179604309584,-2,0,-1,-1,0,-2,-1,-4
1570179604309584,-1,0,0,-2,0,-2,0,-2
1570179604324856,-1,0,-1,-1,-1,0,0,-3
1570179604324856,0,0,1,0,-1,0,1,2
1570179604325544,-3,-1,2,2,-1,-1,-2,-6
1570179604325544,-4,0,0,0,0,0,0,-6
1570179604347483,-1,-1,0,-1,-1,-1,2,1
1570179604347483,4,0,-1,-1,-1,-1,-1,0
1570179604348484,0,-2,0,1,-2,0,2,2
1570179604348484,-2,-2,0,-1,-2,2,12,-9
1570179604361448,2,1,-3,-1,-1,-2,-8,4
1570179604361448,4,3,3,1,1,-2,-10,7
1570179604369603,-3,-2,-3,-3,-2,-3,-3,-19
1570179604369603,0,-1,-3,-1,0,-1,1,3
1570179604384703,-4,-3,1,-1,0,1,-2,-6
1570179604384703,2,-1,1,-1,-1,1,4,6
1570179604385386,1,0,0,-1,0,0,-4,4
1570179604385386,0,1,2,0,-1,-1,-5,-2
1570179604407328,-1,0,-1,0,0,-2,1,0
1570179604407328,2,-1,-3,-1,-1,-1,1,2
1570179604408321,0,0,-1,-1,-1,-1,1,0
1570179604408321,0,-2,0,-1,-1,-1,-2,-1
1570179604430265,1,-1,0,0,-2,0,2,4
1570179604430265,-5,-4,-2,-1,0,0,2,-6
1570179604431375,2,0,-1,1,0,1,-1,6
1570179604431375,-2,-2,-2,-1,0,0,-3,-1
1570179604444595,0,-1,0,-1,-1,-2,-2,-6
1570179604444595,0,-2,-1,-1,-3,0,0,0
1570179604445222,0,0,-1,0,-1,-2,-2,1
1570179604445222,0,-1,0,0,0,-1,-3,0
1570179604467163,1,-1,-2,-2,-1,2,6,20
1570179604467163,-3,0,-1,-2,-1,0,2,-6
1570179604468162,-1,-1,0,1,-1,1,0,-2
1570179604468162,0,1,-1,-1,-1,0,1,5
1570179604490101,-3,-1,-1,1,1,-2,-1,-9
1570179604490101,-2,0,-1,-1,1,-1,1,2
1570179604491099,-4,-3,-1,-1,0,-1,-1,-16
1570179604491099,-2,0,-1,0,-1,-1,-1,-3
1570179604504068,-2,-1,0,1,-1,-1,-3,-3
1570179604504068,0,-1,-2,0,-2,-1,-3,0
1570179604505061,4,0,0,0,1,-2,1,5
1570179604505061,-1,-1,0,-1,1,-1,2,-1
1570179604528001,-1,0,-1,-2,-1,-1,-7,-11
1570179604528001,1,2,-1,-1,-1,0,0,1
1570179604528112,-2,1,0,0,-2,1,1,3
1570179604528112,-1,1,0,1,-1,0,-3,0
1570179604549947,0,-2,0,0,0,-1,0,5
1570179604549947,0,-1,-1,-1,0,0,0,1
1570179604550939,1,-1,-2,-1,-1,-1,-5,13
1570179604550939,0,-1,-1,-2,0,0,-2,-3
1570179604563911,-2,0,2,0,-1,-1,-1,4
1570179604563911,1,-2,-1,-1,1,3,-2,4
1570179604564902,-2,0,1,-2,-1,-1,2,-1
1570179604564902,-2,-1,-2,0,-1,-2,-1,-2
1570179604588064,-2,0,0,0,-3,-1,-1,0
1570179604588064,6,0,-1,-2,-1,-2,3,1
1570179604588064,-1,1,-1,-1,0,-1,-1,2
1570179604588064,-1,0,-1,-1,0,1,-1,-2
1570179604609782,2,1,-2,-1,0,0,-3,1
1570179604609782,-7,-1,1,0,-1,-2,-2,-6
1570179604610778,0,-1,-1,1,-2,0,0,1
1570179604610778,0,0,-1,1,-2,-2,-3,-1
1570179604624741,-2,-2,-1,-1,0,0,0,2
1570179604624741,-5,-1,-2,-1,-1,-2,-1,-6
1570179604624741,-5,-2,-2,-2,-2,-1,-1,-24
1570179604624741,5,0,1,2,0,-2,-13,6
1570179604647682,1,-1,0,0,-2,0,-2,1
1570179604647682,-5,-3,-1,-2,-2,0,-4,-13
1570179604648806,1,-1,0,0,-2,-1,3,1
1570179604648806,-3,-1,-1,0,0,1,4,-6
1570179604669628,3,-2,-2,-2,-1,-1,2,1
1570179604669628,6,1,0,0,2,-1,-6,8
1570179604670695,0,-1,-1,-2,1,0,-1,9
1570179604670695,-1,1,-1,-2,0,0,0,-12
1570179604684718,0,0,-1,0,-1,-1,-14,-8
1570179604684718,-5,-2,-1,0,-2,-1,9,-4
1570179604685580,4,0,0,-1,0,0,0,5
1570179604685580,4,-1,-1,-2,-2,-2,-3,6
1570179604707519,-1,-1,-1,-1,0,1,9,-5
1570179604707519,1,-2,2,1,-1,2,0,4
1570179604708518,-2,-2,-1,1,-1,-3,1,2
1570179604708518,-16,-6,-4,-4,-4,-2,8,-63
1570179604730464,2,-1,-2,0,0,0,-1,-14
1570179604730464,-3,-1,-1,-2,-2,1,5,-6
1570179604730464,3,-1,1,2,0,0,-10,9
1570179604730464,0,0,2,1,-1,1,2,11
1570179604744423,-6,-1,-3,-2,-1,-2,8,-5
1570179604744423,4,1,0,0,0,-3,-6,-7
1570179604745428,-2,0,0,1,0,0,-3,-8
1570179604745428,-2,-1,-3,-2,0,-1,0,4
1570179604767361,1,-1,4,1,-2,-1,0,3
1570179604767361,2,-1,-1,-1,-2,-1,-1,9
1570179604768362,-5,-1,0,-2,-2,-1,9,-3
1570179604768362,1,-1,-1,-1,-2,0,-4,-1
1570179604790300,2,2,0,0,-3,-1,-1,5
1570179604790300,-2,0,-2,-2,-2,-1,0,0
1570179604791302,-3,0,-2,-1,1,-1,2,-5
1570179604791302,-1,2,1,0,1,1,4,9
1570179604804448,-2,-2,0,0,1,-1,-4,8
1570179604804448,-1,0,-2,-1,-1,-2,-6,-9
1570179604805262,1,1,-1,-2,-1,0,0,6
1570179604805262,2,1,-1,-2,0,-2,0,10
1570179604827201,2,-1,-1,0,0,1,1,9
1570179604827201,3,1,1,3,0,0,-4,8
1570179604828202,-1,-3,-1,-1,-1,0,-3,-7
1570179604828202,3,0,-1,1,0,-2,-3,7
1570179604850139,3,-1,0,-1,-4,-3,-1,2
1570179604850139,-19,-6,-5,-4,-3,-5,-5,-47
1570179604851141,3,0,-1,0,-2,0,2,10
1570179604851141,4,0,0,0,1,0,1,24
1570179604864185,-2,0,0,1,2,-1,-4,5
1570179604864185,-1,-1,-3,-1,-2,0,5,-1
1570179604865103,-1,-2,-1,1,0,3,6,-6
1570179604865103,-1,-2,-1,1,-1,-1,-6,-2
1570179604888038,-3,-1,-2,-3,-3,1,2,-11
1570179604888038,3,1,0,-1,0,-1,0,6
1570179604888038,-2,-1,-2,-1,0,-1,0,0
1570179604888038,3,1,-1,1,0,1,1,11
1570179604909982,-2,0,-2,0,1,-2,1,1
1570179604909982,2,0,2,-1,0,-1,-4,8
1570179604910976,3,1,-1,0,-1,-3,-3,5
1570179604910976,-1,-1,0,-3,-1,-3,0,-4
1570179604924590,3,0,1,0,0,0,-10,14
1570179604924590,-4,-2,-2,-3,-1,2,18,3
1570179604924939,3,2,-2,0,1,0,-4,0
1570179604924939,4,-1,-1,0,-1,-1,-1,8
1570179604947877,-6,-1,-1,-1,-2,-1,2,-7
1570179604947877,0,0,-1,0,0,0,-3,6
1570179604947877,-2,-2,0,-1,-1,0,-1,-2
1570179604947877,0,-1,0,-1,0,-2,-1,-7
1570179604969822,2,2,1,0,0,-3,-14,4
1570179604969822,6,2,0,2,0,-2,-5,12
1570179604970816,-3,0,-2,-1,-1,-1,0,-4
1570179604970816,-5,1,0,1,-1,-1,-2,-8
1570179604992764,-4,-3,-1,-2,-1,-1,5,-10
1570179604992764,3,1,-1,0,1,-1,-4,8
1570179604993798,1,0,-2,0,-1,-1,-6,2
1570179604993798,0,-1,-3,0,0,0,4,9
1570179605007722,-2,-1,-2,-1,-1,1,2,-2
1570179605007722,0,-3,-1,0,0,0,-1,4
1570179605008720,-3,-2,0,1,-1,-2,-2,0
1570179605008720,-4,-1,-2,0,0,1,-3,-5
1570179605029726,-4,-2,0,-2,-5,-1,8,-10
1570179605029726,1,2,-1,-1,1,0,0,14
1570179605030852,-1,0,-1,-3,1,0,0,-5
1570179605030852,2,0,-1,1,-1,-1,-1,1
1570179605043626,-2,0,0,-1,0,-1,0,-2
1570179605043626,-7,-4,-2,-3,-2,0,11,-16
1570179605051603,-2,0,3,2,-1,-1,-9,-1
1570179605051603,5,0,1,0,-1,0,3,11
1570179605067692,0,-2,-3,0,0,2,3,-5
1570179605067692,-2,0,-1,0,-1,0,-2,-1
1570179605068556,-1,0,0,-2,0,-2,2,1
1570179605068556,-6,-4,-2,-1,-2,-3,-3,-15
1570179605090496,1,0,-1,-1,1,-1,0,2
1570179605090496,2,1,1,0,-1,-2,-7,3
1570179605090496,1,-1,-2,-1,-1,1,0,-1
1570179605090496,-1,0,0,-1,0,-1,-3,0
1570179605103928,2,1,-1,1,-2,-1,0,3
1570179605103928,1,-2,0,-1,0,0,-1,-1
1570179605112439,-1,-2,-2,0,0,-1,2,6
1570179605112439,0,-1,1,-1,-1,1,-1,-7
1570179605127563,0,0,-1,1,-1,1,0,2
1570179605127563,1,1,2,0,0,-2,-1,1
1570179605129494,-1,-1,0,-1,-1,1,0,3
1570179605129494,-8,-3,-3,-1,-1,2,11,-6
1570179605149341,-1,-1,0,-1,1,-2,-2,2
1570179605149341,-2,-1,0,0,-2,-2,-4,-6
1570179605157319,-1,-2,-1,0,-2,-2,0,1
1570179605157319,-2,0,-1,0,-2,-1,1,-1
1570179605163310,-8,-5,-3,-3,-1,-2,-3,-19
1570179605163310,-1,1,-1,1,1,1,0,-5
1570179605172418,8,0,-1,-2,-1,0,-7,5
1570179605172418,2,1,-2,-1,-1,-1,-9,1
1570179605187238,0,0,0,0,0,0,-2,-1
1570179605187238,0,-1,0,-1,0,1,-3,0
1570179605189233,0,0,-1,1,-1,-2,3,-1
1570179605189233,-1,0,1,-2,-1,-1,1,-4
1570179605210176,14,3,1,1,1,-1,-20,48
1570179605210176,0,-1,0,0,-1,-5,-22,-25
1570179605212173,-2,-1,0,-1,1,0,1,3
1570179605212173,2,-1,0,0,0,0,3,17
1570179605224183,-2,2,0,0,-1,-2,-4,-3
1570179605224183,0,-2,-2,-1,-3,1,5,2
1570179605233115,1,1,1,-2,1,0,-7,1
1570179605233115,4,2,1,0,0,-1,-8,4
1570179605248078,-12,-4,-2,-3,-2,-2,1,-62
1570179605248078,1,-1,-1,0,0,0,4,15
1570179605249073,-3,-1,-2,0,-2,-3,-1,-10
1570179605249073,3,1,1,0,1,2,-1,12
1570179605270107,-1,-1,-2,1,2,0,4,2
1570179605270107,1,-2,-2,-1,-1,0,2,8
1570179605272013,-1,0,-1,-1,0,1,0,-7
1570179605272013,-4,-2,-2,-1,-3,-1,2,-10
1570179605283981,1,0,0,0,-1,0,2,8
1570179605283981,1,1,0,2,1,0,0,11
1570179605292954,-1,-1,0,0,-1,-1,-5,-8
1570179605292954,-2,-1,0,-2,-1,-1,-2,-2
1570179605307919,1,1,0,0,-1,0,6,7
1570179605307919,1,0,-1,-1,-1,0,3,6
1570179605308913,-2,-2,-1,-2,-1,1,1,2
1570179605308913,-3,0,-5,-2,1,0,1,-6
1570179605329900,-4,-1,0,1,-1,-2,7,-10
1570179605329900,0,-3,-3,0,2,-3,-4,1
1570179605332032,-1,0,-1,-1,0,0,4,1
1570179605332032,-1,-2,0,-1,-1,-2,-2,-6
1570179605344187,0,-1,-2,-2,-2,3,4,0
1570179605344187,-2,0,0,-1,-2,1,1,-4
1570179605352795,-4,-1,-2,-1,-1,-1,1,-4
1570179605352795,0,-2,-1,1,1,0,-1,2
1570179605367757,0,-1,1,-1,0,-2,0,3
1570179605367757,2,3,0,-1,0,0,-9,0
1570179605368754,5,1,0,0,1,-1,-2,17
1570179605368754,1,-2,1,-1,-2,-1,0,-12
1570179605389696,-1,0,0,-1,-1,-1,-4,2
1570179605389696,-4,-2,-1,-2,0,1,3,-8
1570179605391769,-3,0,-1,0,-1,-1,3,-13
1570179605391769,10,4,0,2,3,-2,-20,23
1570179605412639,6,1,2,1,-2,1,4,29
1570179605412639,-1,-3,-2,-1,-2,-2,4,5
1570179605414630,-3,-2,-1,-1,0,-1,-1,-7
1570179605414630,-7,-2,-2,-2,-2,-1,10,-12
1570179605426600,-2,0,-2,0,-3,0,-2,-9
1570179605426600,0,-1,0,-1,-1,0,-1,0
1570179605435575,-2,-1,-1,0,0,0,2,7
1570179605435575,-5,-1,-1,-2,-1,-2,-4,-14
1570179605450600,0,-1,-2,-2,-1,-2,-1,-3
1570179605450600,-2,0,0,1,-2,-2,4,-4
1570179605451606,0,0,0,2,-2,-2,-5,-2
1570179605451606,-4,-2,-2,-1,-2,-1,1,-8
1570179605472475,2,-1,-1,-1,0,-1,0,3
1570179605472475,3,-2,0,1,-1,0,3,0
1570179605474470,0,-2,1,0,-1,-1,-1,-5
1570179605474470,6,-1,-1,-1,0,0,-7,18
1570179605487438,-4,-3,-2,-2,-1,-1,7,-3
1570179605487438,1,-2,-3,0,-1,0,2,0
1570179605489434,2,0,0,0,-2,-1,1,6
1570179605489434,-2,-1,-1,-1,-1,0,0,-8
1570179605510373,-3,-1,-2,-1,-1,0,0,0
1570179605510373,-2,-2,0,0,0,-1,-1,-2
1570179605511371,0,0,-2,-1,0,-1,2,0
1570179605511371,-2,0,-1,1,-1,-2,5,-5
1570179605532482,0,-2,-2,-1,-2,1,-4,-6
1570179605532482,-2,1,0,-1,0,-1,-1,-8
1570179605534311,0,-1,-1,-2,0,-2,-2,-4
1570179605534311,0,-1,-1,0,-1,2,2,8
1570179605547274,3,2,1,0,1,-3,-3,3
1570179605547274,-1,1,-1,0,0,-1,-1,0
1570179605553258,-4,-2,-1,-1,-3,-1,0,-5
1570179605553258,-3,-3,-3,-1,-1,-2,-1,-7
1570179605570510,9,2,2,2,1,1,-12,26
1570179605570510,-4,-1,0,0,-3,-1,1,-20
1570179605571212,9,2,1,1,2,2,5,40
1570179605571212,-4,0,0,0,0,-2,-1,0
1570179605592155,2,-4,-2,-5,-2,-1,2,4
1570179605592155,0,1,2,0,0,0,1,13
1570179605594153,-3,-1,-2,-2,0,0,-1,-7
1570179605594153,0,-3,0,-2,-2,-1,4,-2
1570179605607169,-3,-1,-1,2,-1,0,1,-6
1570179605607169,-5,-3,-2,-2,-2,-2,9,0
1570179605614096,0,-1,-1,-2,-1,0,-1,-10
1570179605614096,-1,-1,-1,0,-3,0,1,3
1570179605630098,-3,-1,0,-2,0,0,3,-8
1570179605630098,0,0,-2,-1,0,1,-1,2
1570179605632048,-4,-2,-2,-1,-1,0,-2,-7
1570179605632048,-2,1,0,0,0,-2,-4,-7
1570179605652991,-3,-1,-1,0,-1,-2,1,-7
1570179605652991,2,-1,0,-2,0,-1,-4,3
1570179605653989,-2,0,1,-2,0,2,8,-4
1570179605653989,5,2,-1,0,-1,-1,-12,12
1570179605666961,3,0,0,0,-1,-1,0,4
1570179605666961,-2,-4,-3,-1,0,0,-2,-12
1570179605673937,-5,-2,-1,1,-1,0,0,-14
1570179605673937,1,-1,-2,0,-2,0,5,3
1570179605690141,-7,-1,0,-1,0,-3,-2,-9
1570179605690141,-1,-1,-1,0,-1,-3,-8,-2
1570179605691890,1,-2,1,-1,-1,-1,-4,3
1570179605691890,-2,-2,-1,0,0,-1,3,-4
1570179605712833,-2,-1,1,1,0,0,-1,-4
1570179605712833,-1,0,-1,0,-1,0,1,0
1570179605714708,1,0,0,0,1,-1,-2,2
1570179605714708,0,0,0,-1,-1,1,4,8
1570179605726797,-2,0,-3,-1,-1,-1,1,-7
1570179605726797,4,2,2,1,0,-1,-9,9
1570179605734777,1,0,-3,0,-3,-3,-1,-3
1570179605734777,12,3,2,0,0,0,-6,46
1570179605749740,-2,0,-2,-1,0,0,-1,-1
1570179605749740,-3,-2,-1,-3,-3,0,7,-5
1570179605751730,2,1,-2,-1,0,0,-7,2
1570179605751730,-1,-2,2,-1,-1,-1,2,-8
1570179605772672,-1,0,-1,-1,0,0,2,11
1570179605772672,-1,-2,-1,0,0,-1,-1,7
1570179605774977,0,-1,-1,0,0,-1,-1,0
1570179605774977,-6,-2,-2,0,-2,0,2,-17
1570179605786637,2,-1,-1,-2,-2,1,-3,1
1570179605786637,-1,-1,-2,-2,-2,1,0,-10
1570179605793787,-1,0,0,0,-1,-2,-1,6
1570179605793787,-3,-1,-1,-1,0,-1,0,-12
1570179605810217,0,-2,-1,0,0,-1,4,-1
1570179605810217,2,-3,-2,-1,1,3,5,5
1570179605811568,-3,-2,0,0,-1,-2,-3,-4
1570179605811568,-8,-4,-4,-2,-1,-2,9,-18
1570179605833512,-3,0,-1,0,-1,-1,-2,-6
1570179605833512,-2,0,1,-1,-1,-1,-1,1
1570179605835504,-1,-1,-1,0,-1,-1,-2,-2
1570179605835504,0,1,0,0,0,-1,1,-7
1570179605846566,-5,-3,-3,-2,0,-2,-3,-10
1570179605846566,-3,-1,0,2,-1,-1,-3,1
1570179605854286,1,1,0,0,0,-1,8,7
1570179605854286,0,1,1,1,-2,-2,-7,-1
1570179605870412,-2,-1,-1,-1,-3,-1,-1,-4
1570179605870412,3,1,1,0,0,-1,-4,6
1570179605871408,-2,-1,-1,-1,-1,0,-2,-9
1570179605871408,0,-3,-2,-3,0,-2,0,-1
1570179605892355,1,1,0,0,-2,-1,0,4
1570179605892355,-3,0,-1,-1,1,0,-1,-12
1570179605894481,2,-1,-1,0,-1,-1,-2,2
1570179605894481,-3,-2,-2,-1,-1,-2,-3,-5
1570179605906415,-1,-2,0,-1,-1,-1,-1,-5
1570179605906415,3,2,0,-1,0,-3,-12,-3
1570179605915707,-2,-1,-3,-3,-1,-3,-16,-2
1570179605915707,-1,-2,-1,0,0,-1,-4,-6
1570179605930361,2,-1,0,0,0,-1,1,5
1570179605930361,-4,-1,-1,-1,-2,-2,5,-1
1570179605931335,-5,-2,-1,0,-1,1,9,-7
1570179605931335,0,-2,0,-2,0,-1,-1,-2
1570179605952192,-2,-1,-1,-1,0,-1,-1,-9
1570179605952192,0,0,-3,0,-1,0,0,-3
1570179605954189,-11,-3,-3,-3,-3,-2,-4,-57
1570179605954189,-1,-1,-1,-1,0,0,0,3
1570179605966155,2,1,1,1,0,-1,0,1
1570179605966155,-1,-1,1,-1,-1,0,1,5
1570179605975131,1,-2,0,-1,-2,0,0,3
1570179605975131,3,0,0,1,-1,1,3,6
1570179605990090,-1,-3,0,-1,0,-1,-1,2
1570179605990090,2,-1,0,0,-1,1,-3,8
1570179605992093,3,0,-1,2,0,0,1,18
1570179605992093,2,0,-1,0,1,0,-1,3
1570179606013103,-1,1,-1,3,1,-1,-3,7
1570179606013103,-2,-1,0,-1,0,-1,1,-7
1570179606014029,0,0,0,-1,0,1,2,11
1570179606014029,-5,0,0,-1,-1,-1,-1,-2
1570179606025995,-3,-1,-2,-3,-2,2,2,-6
1570179606025995,-1,0,-1,2,0,-1,-1,-7
1570179606034971,-1,0,0,-3,-1,-2,2,2
1570179606034971,5,1,2,2,-1,-1,-11,1
1570179606049977,-1,-2,-1,0,0,-2,-1,3
1570179606049977,-1,-1,0,-1,-1,-1,-2,-2
1570179606051926,4,1,0,-1,2,0,-3,11
1570179606051926,-2,0,0,-2,-1,1,4,-1
1570179606072876,-2,-1,1,0,-2,-1,0,-3
1570179606072876,4,0,-3,1,0,1,-3,11
1570179606073867,-7,-2,-1,0,0,1,3,-15
1570179606073867,7,0,0,0,0,-2,-5,18
1570179606086493,3,1,-1,0,0,0,0,12
1570179606086493,-4,-2,-1,-1,-1,0,4,-10
1570179606095784,-1,1,0,-1,0,0,-1,3
1570179606095784,0,1,0,1,1,1,3,13
1570179606110061,1,-2,0,-3,-1,2,1,3
1570179606110061,-2,-1,-1,-3,-1,-1,-4,-4
1570179606111817,0,-1,1,-1,-1,-1,1,-1
1570179606111817,-2,-3,-3,-2,-2,-1,0,-16
1570179606132566,-2,1,0,1,-1,-3,0,-8
1570179606132566,-1,-1,0,-2,1,-1,1,6
1570179606134543,1,-1,-2,-2,0,0,-3,2
1570179606134543,-4,-2,-1,-1,-1,1,3,-7
1570179606145807,6,0,0,1,0,0,-5,5
1570179606145807,-1,-2,0,-1,-2,0,1,-4
1570179606155028,0,-1,0,-1,-1,0,-1,5
1570179606155028,-1,-1,0,-1,0,0,0,-5
1570179606170230,-8,-2,-4,-3,0,1,12,-18
1570179606170230,-1,-1,1,0,0,-1,-1,2
1570179606171990,3,0,0,1,-1,0,-12,1
1570179606171990,5,1,0,0,-1,0,3,14
1570179606192442,-5,-2,-1,0,-1,-3,-3,-10
1570179606192442,-1,-1,-2,-1,-1,1,0,-6
1570179606194606,3,0,-2,-1,-1,-1,7,17
1570179606194606,-5,0,-1,0,-2,-1,-2,-12
1570179606206541,0,0,-2,-2,1,1,-4,-2
1570179606206541,3,-1,-1,-1,2,0,3,6
1570179606215783,-1,-1,-3,1,0,0,-3,4
1570179606215783,-1,0,-1,1,-1,-1,-1,-5
1570179606230618,-1,-1,-2,-1,-1,-1,0,4
1570179606230618,-3,-1,0,0,-2,-2,-1,-3
1570179606231572,-2,-1,1,-1,-1,0,1,-6
1570179606231572,-2,-2,-2,0,-1,-3,-1,-3
1570179606252856,0,-1,-1,0,0,0,-2,0
1570179606252856,-1,1,0,-1,-1,-1,-1,-1
1570179606254171,0,1,0,-1,-1,0,-3,0
1570179606254171,-1,-1,0,0,0,0,1,0
1570179606265979,-1,1,-2,-1,-1,-1,-2,-6
1570179606265979,-2,-1,0,-1,-1,-3,-1,-3
1570179606275762,2,0,0,0,-1,-1,2,3
1570179606275762,-2,1,-2,-2,0,0,-2,-5
1570179606290452,5,2,0,1,1,-2,-11,17
1570179606290452,1,2,0,-1,-1,-2,-1,1
1570179606291253,-2,-2,-1,-1,-1,-1,1,-2
1570179606291253,-2,-1,-2,-2,1,-1,-5,-4
1570179606312743,-2,-2,-1,-2,-1,0,0,-13
1570179606312743,2,0,0,0,0,1,3,10
1570179606314534,-3,-2,-2,-2,1,-1,-2,-3
1570179606314534,-1,-1,1,0,0,0,1,-2
1570179606334681,1,-2,0,0,1,0,2,-1
1570179606334681,1,1,-1,0,-2,-2,0,-1
1570179606336684,-2,-2,-1,-1,0,-1,1,-10
1570179606336684,-3,-1,-2,0,1,2,-1,-5
1570179606349913,2,1,-1,-1,-2,-1,1,9
1570179606349913,1,-1,-2,-1,1,1,-1,-2
1570179606351935,-2,0,1,0,-1,-1,1,4
1570179606351935,-1,-1,-1,-3,-2,-2,-3,-9
1570179606372676,2,-1,-1,-1,-1,0,-1,5
1570179606372676,-4,-1,-3,-1,0,0,-1,-5
1570179606374671,-1,-1,1,1,-1,0,-1,-2
1570179606374671,1,1,1,1,1,0,1,0
1570179606394740,-4,-1,-2,-1,-1,-1,2,1
1570179606394740,0,-2,-2,-1,-3,1,0,2
1570179606396736,2,3,1,3,1,-1,1,1
1570179606396736,-5,0,-2,-1,0,0,-2,-8
1570179606417679,-2,-3,-1,-3,-1,-2,7,3
1570179606417679,-6,2,3,0,1,-1,-4,-14
1570179606418675,9,1,-1,-1,-2,0,6,12
1570179606418675,-4,-1,0,-2,6,2,1,-3
1570179606432638,5,-1,0,-1,2,2,-1,14
1570179606432638,0,-2,-5,-3,-11,-4,-5,-9
1570179606434633,-2,0,6,5,-2,-3,6,-2
1570179606434633,-2,-1,-4,-6,-7,-5,-7,3
1570179606455617,-2,0,-3,-1,-2,-4,-13,-19
1570179606455617,-1,1,-3,-3,11,5,13,10
1570179606456576,-1,0,-2,3,2,-4,-10,-9
1570179606456576,0,0,3,0,-8,-3,8,7
1570179606470543,-7,-3,0,5,7,5,3,-1
1570179606470543,3,-4,-2,-1,-1,-3,-13,5
1570179606472048,-4,1,-11,-12,-14,-6,1,4
1570179606472048,-4,0,5,7,3,-1,-9,-11
1570179606492478,2,3,8,2,-2,2,4,2
1570179606492478,-3,-3,-11,-8,11,4,16,6
1570179606494475,1,5,-2,-5,-9,-9,-13,-9
1570179606494475,9,16,4,0,-7,-6,-7,-5
1570179606515416,0,-2,-3,-2,-3,-1,2,-3
1570179606515416,-5,-5,-6,0,-6,-1,4,2
1570179606516539,-22,-48,-9,-3,10,7,2,-14
1570179606516539,-2,-7,-19,-3,0,1,0,10
1570179606528382,8,27,39,13,2,1,3,-10
1570179606528382,4,0,17,8,-2,-4,-10,6
1570179606545338,2,12,11,8,-1,0,3,4
1570179606545338,-7,-10,-4,-4,0,-1,4,-7
1570179606552320,4,-4,-37,-13,-2,-3,-6,-8
1570179606552320,1,9,-1,-4,-4,-2,-4,-23
1570179606554314,-1,5,5,-4,-1,2,-4,-16
1570179606554314,4,1,-5,-2,-1,2,7,-2
1570179606575256,-3,-6,-4,3,-3,-4,0,4
1570179606575256,-2,-13,-5,-1,0,-1,-2,-1
1570179606576392,10,35,7,3,5,4,4,12
1570179606576392,1,-28,13,0,1,3,2,7
1570179606589219,-11,-12,-21,2,-4,-3,-5,-3
1570179606589219,-2,-2,-6,1,-1,-1,-3,2
1570179606598195,-1,-3,-14,-6,1,3,9,-22
1570179606598195,12,38,29,5,-2,1,-5,-30
1570179606612156,-4,9,3,-3,-1,0,6,-69
1570179606612156,-10,-36,12,13,0,1,-3,-101
1570179606614561,6,4,-15,-6,-1,1,9,-116
1570179606614561,-2,-14,-26,-8,-1,0,-4,-95
1570179606635385,-1,-12,4,-5,-1,-5,-14,-128
1570179606635385,8,37,12,-1,-2,-4,-3,-118
1570179606636380,1,-1,2,0,-1,2,9,-43
1570179606636380,-3,-5,2,-2,1,-2,-18,14
1570179606648349,-1,0,-10,-2,-2,-4,14,97
1570179606648349,-8,-30,-13,-3,2,0,-8,127
1570179606657332,3,0,9,8,4,3,-2,122
1570179606657332,-5,1,-8,0,4,-1,15,114
1570179606672284,3,13,14,1,-6,0,-10,115
1570179606672284,0,-8,-13,-9,-3,0,-3,94
1570179606674280,-11,13,22,11,-6,-6,1,77
1570179606674280,-3,-23,-11,-2,6,4,1,50
1570179606695309,-1,-9,-8,-3,14,10,-8,38
1570179606695309,13,26,-1,-7,-3,-7,3,30
1570179606696222,-16,-17,9,-4,-41,-19,-5,16
1570179606696222,22,25,-13,-5,-6,-4,2,12
1570179606709369,-3,-20,1,1,5,6,12,-12
1570179606709369,-7,-1,-2,7,19,13,5,7
1570179606717467,-24,5,3,0,6,3,-10,9
1570179606717467,73,41,18,-1,-11,-15,-6,-10
1570179606732426,-13,13,9,2,5,-2,0,4
1570179606732426,-9,-35,-10,4,17,11,8,10
1570179606734425,4,-11,-14,-9,-21,-7,-9,4
1570179606734425,-27,-8,5,0,-16,-7,2,0
1570179606755434,15,23,6,-2,-7,-7,-4,5
1570179606755434,-1,9,1,-5,-4,-7,-7,0
1570179606756362,-13,-5,3,14,24,12,7,8
1570179606756362,1,-7,-1,2,8,8,0,-3
1570179606768328,-11,-5,-7,-5,-7,-2,-1,4
1570179606768328,-34,-36,0,-2,-2,2,2,-6
1570179606777367,40,20,-19,-10,16,10,0,2
1570179606777367,-14,-3,18,12,-1,-2,4,1
1570179606792370,20,6,1,3,1,-4,-4,-13
1570179606792370,45,25,-16,-17,-26,-8,-5,-7
1570179606794432,-13,-20,-6,-4,24,8,-3,-2
1570179606794432,-22,-12,-6,-3,-18,-12,-2,-2
1570179606814209,-44,-11,2,2,-16,-4,5,2
1570179606814209,21,17,10,2,-17,-12,-2,-5
1570179606823183,-24,-29,4,5,6,3,0,-7
1570179606823183,-38,-3,-4,-1,11,6,6,14
1570179606829168,95,34,-3,-1,-2,-2,-3,27
1570179606829168,-17,17,12,4,5,2,0,12
1570179606844237,6,-8,-17,-14,2,1,-3,-2
1570179606844237,-38,-22,0,0,-6,-1,2,10
1570179606852257,38,36,14,-2,-3,0,3,-1
1570179606852257,-30,-34,-18,2,1,1,1,-18
1570179606854100,-9,-8,3,-3,-4,-3,-4,-28
1570179606854100,-27,-23,-4,3,25,8,7,-41
1570179606875043,20,42,-12,-24,-2,-2,-13,-19
1570179606875043,76,24,16,13,2,-7,-5,-14
1570179606877038,-73,-31,-5,-1,-8,-4,-4,-34
1570179606877038,5,-4,2,-5,-12,-6,-2,-12
1570179606889008,9,-26,-6,5,2,9,2,-25
1570179606889008,-27,-8,0,-8,13,13,5,-4
1570179606897984,26,17,2,5,-26,-25,-8,-7
1570179606897984,-1,-8,-1,-8,10,3,-1,3
1570179606912983,-50,-31,1,6,17,4,10,-4
1570179606912983,30,24,1,-11,-17,-5,-1,3
1570179606913940,-36,-18,15,8,-1,2,7,0
1570179606913940,71,60,-2,12,-3,-3,-8,0
1570179606934886,-13,-35,-11,-2,-1,1,-2,-16
1570179606934886,-2,1,1,3,5,-3,4,-22
1570179606936879,24,11,-1,-9,-1,-2,-11,35
1570179606936879,-25,-14,-7,-4,4,2,0,-54
1570179606948849,-67,-52,11,-5,0,3,3,-30
1570179606948849,-3,42,15,31,9,7,6,-9
1570179606957825,112,52,-19,-13,-4,-9,-11,-13
1570179606957825,-11,-16,-4,-9,-7,-1,-1,21
1570179606972901,-31,-30,3,18,-5,-8,-2,16
1570179606972901,-15,1,3,-2,-19,-3,5,20
1570179606975000,-16,-2,7,13,46,19,10,14
1570179606975000,56,47,-13,-6,5,6,-4,9
1570179606995205,7,-14,-9,-19,-45,-25,-4,-8
1570179606995205,-39,-22,9,13,14,3,3,0
1570179606996722,2,2,-3,0,-23,-8,-4,-2
1570179606996722,14,13,14,8,6,8,2,-7
1570179607018664,19,24,7,6,23,12,1,26
1570179607018664,-5,-5,-5,-3,-6,-8,1,15
1570179607020656,-4,-11,-10,-10,5,1,-11,-9
1570179607020656,-54,-49,-6,-4,-5,-4,1,0
1570179607031631,14,41,5,5,-6,-3,3,3
1570179607031631,34,9,-9,-20,-4,1,-6,9
1570179607038733,19,37,-2,-9,4,4,6,0
1570179607038733,-26,-28,8,12,4,2,2,16
1570179607054594,25,19,0,14,5,2,2,-12
1570179607054594,-17,-19,-8,-6,18,6,0,-12
1570179607061587,-25,-11,13,12,-9,1,8,-10
1570179607061587,30,22,6,2,8,0,1,-3
1570179607068531,12,-3,-12,-3,-5,-2,-3,-8
1570179607068531,-27,-11,8,2,-2,-4,-3,-7
1570179607077503,-15,-24,-7,-10,-2,2,2,-2
1570179607077503,-9,18,1,2,-23,-9,-7,10
1570179607091470,-23,-24,-7,-18,-7,-7,-3,-1
1570179607091470,25,6,-10,-2,24,13,-11,4
1570179607098577,-7,-9,7,-1,-36,-12,-1,18
1570179607098577,-28,-11,-3,-1,-6,-2,9,2
1570179607122790,-1,-1,-7,-9,3,2,2,5
1570179607122790,16,33,12,3,-8,-5,8,4
1570179607124377,-10,-42,-13,-1,23,7,-10,-7
1570179607124377,1,-21,-11,-15,-12,-2,17,17
1570179607128369,-16,-3,7,16,9,5,-4,2
1570179607128369,1,13,-1,-4,-13,-6,-16,7
1570179607137561,12,5,8,16,7,-1,-11,2
1570179607137561,5,3,-8,-10,-6,-7,-19,-14
1570179607160327,4,-2,-6,7,11,3,23,37
1570179607160327,16,2,18,-1,-10,3,7,-5
1570179607161280,-11,-9,-5,-14,-15,-1,5,24
1570179607161280,24,6,-9,-6,-11,-4,-3,-13
1570179607175476,12,13,-9,-16,21,9,-13,-14
1570179607175476,-10,33,13,10,19,-2,4,-4
1570179607176239,-4,-56,-16,-6,-35,-13,5,4
1570179607176239,-15,8,15,1,-52,-36,-29,-29
1570179607189205,-23,-19,-13,-9,-5,-8,-15,-22
1570179607189205,-8,-15,-13,-11,-20,-4,3,-22
1570179607198180,11,38,20,11,23,7,15,-8
1570179607198180,3,1,-15,-3,33,18,2,13
1570179607212296,-4,0,19,14,20,16,1,13
1570179607212296,-2,9,-13,4,9,4,-2,-3
1570179607214137,-8,-12,8,4,-1,1,12,24
1570179607214137,-8,-10,-9,4,22,4,-7,-2
1570179607242131,6,-4,5,-12,-39,-20,-14,-7
1570179607242131,23,16,6,2,9,6,10,12
1570179607244356,20,30,1,6,45,24,6,-2
1570179607244356,30,-4,-27,-22,-52,-30,-11,-1
1570179607249046,-56,-63,-23,-32,0,-9,4,-13
1570179607249046,1,-9,4,17,11,8,16,6
1570179607258475,36,31,-5,-35,-78,-26,-10,-53
1570179607258475,2,-1,28,14,36,20,-5,21
1570179607271984,95,60,10,20,9,11,12,23
1570179607271984,-121,-64,-5,8,26,1,-15,-16
1570179607279272,16,14,-6,5,14,5,7,-11
1570179607279272,-22,-28,-4,6,20,11,23,23
1570179607294922,1,4,2,2,-11,-8,1,12
1570179607294922,54,9,2,-6,-7,-9,-9,9
1570179607297374,-22,31,-10,7,38,24,3,-15
1570179607297374,-6,1,22,22,-11,-15,-3,12
1570179607317859,-20,-8,3,6,-30,-13,-12,-22
1570179607317859,-17,-25,-9,-8,18,0,-5,-21
1570179607318857,-24,-15,-3,3,17,17,27,29
1570179607318857,5,-9,-16,-18,-50,-25,-19,-53
1570179607331833,23,22,12,4,13,4,-9,-14
1570179607331833,-18,-8,4,-8,-39,-6,4,11
1570179607338806,44,-3,2,16,37,9,-6,11
1570179607338806,-29,-11,4,8,34,19,8,-22
1570179607354762,15,32,25,15,35,15,9,5
1570179607354762,30,-28,-32,-33,-64,-25,-8,-2
1570179607360964,10,22,9,4,15,-4,-3,11
1570179607360964,-12,-3,-2,-4,-16,-6,3,18
1570179607377763,-11,-6,-18,-11,-14,-5,14,-15
1570179607377763,-13,-4,4,2,39,13,7,22
1570179607378698,-18,-32,9,4,-25,-19,-25,-13
1570179607378698,67,55,6,2,-17,4,5,4
1570179607407622,-106,-37,16,13,11,3,-2,-34
1570179607407622,-4,1,9,18,18,14,4,7
1570179607409616,16,3,-26,-31,-36,-23,-10,-17
1570179607409616,-6,-12,9,9,39,42,14,8
1570179607415600,10,3,-9,-9,-22,-21,-10,0
1570179607415600,-2,4,-3,-1,-18,-4,1,-17
1570179607416598,-10,-9,-3,-17,-13,-13,-17,-8
1570179607416598,1,3,-9,-14,-7,-6,3,-44
1570179607437541,0,-19,6,18,24,16,13,32
1570179607437541,40,20,-4,-2,7,5,-1,15
1570179607439536,-42,-8,4,6,1,-6,-6,-12
1570179607439536,16,3,-2,-6,3,-3,-1,-2
1570179607451510,3,-19,-6,-2,19,10,-1,-7
1570179607451510,5,8,-14,-11,-5,-5,0,-17
1570179607458949,16,15,24,16,-17,2,-19,47
1570179607458949,-13,0,-4,-5,1,-11,0,10
1570179607474442,35,11,-10,-5,-11,3,0,0
1570179607474442,5,10,7,4,9,2,-10,21
1570179607482423,-1,-7,-5,-15,-16,1,3,-19
1570179607482423,-14,-16,-7,-5,-13,-5,10,11
1570179607497382,19,10,4,3,15,0,-3,29
1570179607497382,19,4,-4,-3,-17,-11,0,-59
1570179607499374,-44,-17,-3,12,16,1,-7,-8
1570179607499374,7,13,3,6,53,27,-6,36
1570179607512343,-17,-3,-11,-12,-37,-14,-6,-40
1570179607512343,-3,-11,5,0,-19,-14,0,29
1570179607518530,14,-6,-4,-7,1,3,3,-7
1570179607518530,14,11,12,19,16,2,5,-1
1570179607535282,-6,10,-16,-12,-1,2,-9,5
1570179607535282,-35,-12,-6,-3,-19,-17,27,-52
1570179607536278,42,35,11,8,13,17,-29,94
1570179607536278,11,11,4,13,29,5,4,15
1570179607557264,12,-23,-10,-18,-27,-11,7,-13
1570179607557264,-60,-16,-6,0,11,6,0,-4
1570179607559215,-19,-5,-8,3,6,-3,23,-63
1570179607559215,1,-9,-4,-9,-30,-14,15,20
1570179607571304,10,19,1,-8,7,3,-28,-23
1570179607571304,28,14,-1,-2,-23,-18,-11,31
1570179607580207,-4,-21,10,9,18,18,13,1
1570179607580207,-21,-4,-12,-6,1,-17,-12,-39
1570179607595148,-29,-20,-5,-15,-32,-2,25,-11
1570179607595148,62,23,12,25,65,28,-26,62
1570179607597114,-34,-29,0,-5,-32,-14,-13,-28
1570179607597114,20,22,-3,-9,-41,-15,-8,-18
1570179607617408,-11,-7,9,1,3,-6,-1,16
1570179607617408,8,-13,-18,-10,-17,-6,-12,-47
1570179607619058,24,40,19,1,18,7,16,28
1570179607619058,-5,-48,1,19,10,14,-5,17
1570179607631394,-2,12,2,5,-15,-14,-4,26
1570179607631394,-26,-9,7,-2,11,15,-6,8
1570179607639998,64,25,-6,-2,2,-7,8,12
1570179607639998,-27,-40,-8,-17,-2,0,9,-30
1570179607655090,19,28,4,15,15,24,-23,52
1570179607655090,0,-11,-2,-2,10,-19,-11,-9
1570179607657155,-5,18,2,0,-58,-25,13,4
1570179607657155,9,16,3,0,6,14,-4,-13
1570179607677897,-4,0,0,0,-11,0,11,-27
1570179607677897,32,5,0,-16,-11,-2,3,3
1570179607678894,-70,-18,-5,3,22,-6,-7,-49
1570179607678894,-1,-4,0,4,7,-25,-12,-7
1570179607690866,25,6,8,9,15,11,9,-20
1570179607690866,-13,-22,-1,5,16,17,3,20
1570179607700882,-55,-31,-22,-17,-26,-7,8,11
1570179607700882,-26,-11,-5,-2,9,-1,-2,-13
1570179607714799,-24,8,-4,-2,33,11,-12,-28
1570179607714799,24,10,9,2,-38,-7,11,56
1570179607716794,-14,-13,-8,-7,2,1,-15,3
1570179607716794,46,20,-2,-17,-33,-2,-2,-9
1570179607737740,-75,-20,1,5,8,0,-6,45
1570179607737740,8,16,13,17,8,1,6,-10
1570179607739732,12,4,-5,2,49,15,7,-28
1570179607739732,-33,-7,-8,-9,-53,-18,-3,25
1570179607751701,37,44,7,-15,-15,-15,17,-1
1570179607751701,-84,-86,-19,9,9,-3,7,-23
1570179607760676,35,19,7,2,-5,4,-2,-41
1570179607760676,-61,-22,-1,-1,27,12,0,-17
1570179607774682,41,-24,-15,0,18,19,11,41
1570179607774682,1,41,-7,-5,-14,-16,3,-28
1570179607776633,27,-16,30,32,-19,-15,-39,24
1570179607776633,-50,22,-4,-14,-2,-2,-3,20
1570179607797579,-15,-3,4,8,-8,2,16,-34
1570179607797579,87,15,-13,-19,4,-6,-9,-17
1570179607799573,-90,-49,-19,-10,22,19,18,24
1570179607799573,26,21,16,23,-12,-14,0,48
1570179607811544,-9,7,10,10,10,-3,-10,-42
1570179607811544,11,-12,-8,-20,-33,6,7,30
1570179607820517,91,63,12,14,13,8,13,24
1570179607820517,10,-41,2,13,25,7,2,-11
1570179607835476,-53,-24,-19,-21,-19,-21,-3,-11
1570179607835476,-12,23,11,4,15,9,5,2
1570179607836473,-18,-15,1,3,17,4,0,9
1570179607836473,61,23,-8,-10,-45,-18,-5,-57
1570179607857418,-25,-37,-10,3,9,-2,6,-10
1570179607857418,22,17,26,-1,-1,-2,-20,2
1570179607859440,-15,-46,-38,-20,-26,-9,3,38
1570179607859440,18,17,10,5,30,19,6,33
1570179607871386,-18,-15,-9,1,-6,0,-7,18
1570179607871386,20,28,5,-10,-8,-22,-11,-12
1570179607880357,4,7,0,-6,-2,5,13,-40
1570179607880357,-20,-8,-4,-2,12,21,0,-20
1570179607895318,24,13,10,9,-3,-8,-9,-14
1570179607895318,-9,-15,-4,3,7,14,8,34
1570179607896314,47,36,15,15,5,-5,5,25
1570179607896314,-24,0,16,11,0,1,-8,-21
1570179607917262,-2,-18,-7,5,8,4,-5,16
1570179607917262,-31,1,0,5,3,1,3,-32
1570179607919252,-10,-5,-8,-11,-15,-10,3,-11
1570179607919252,27,18,3,-3,13,7,-5,27
1570179607931222,58,18,9,8,4,4,-3,40
1570179607931222,-2,-13,10,17,3,-2,-10,-21
1570179607940431,-48,-3,-8,-7,-5,0,-6,-31
1570179607940431,-6,-10,-12,-11,-2,-2,6,2
1570179607962137,-23,-17,0,-7,-23,-7,2,-22
1570179607962137,15,18,-2,4,6,2,6,-4
1570179607970155,24,10,0,-7,0,15,-8,18
1570179607970155,-7,-6,-3,-5,-6,-22,-2,1
1570179607978096,27,19,7,0,-9,-4,1,10
1570179607978096,-4,-13,-10,-9,-12,0,4,5
1570179607979093,2,-4,1,5,8,-3,1,2
1570179607979093,11,-7,-5,-6,12,5,2,6
1570179607991352,-7,5,5,-1,-7,1,1,-6
1570179607991352,-24,-3,-2,5,1,3,1,-16
1570179608000042,8,-4,0,-3,-5,-4,-1,-13
1570179608000042,23,10,1,-1,-1,4,0,14
1570179608022974,21,10,0,0,6,-5,-2,2
1570179608022974,-13,-9,0,7,7,1,-4,-17
1570179608024018,7,1,2,-3,-3,4,32,-12
1570179608024018,-5,4,1,-1,4,4,-1,-22
1570179608037302,-2,3,-1,6,2,-4,-33,-28
1570179608037302,-69,-31,-9,-8,-12,-12,-9,-25
1570179608043918,16,9,5,0,1,0,4,-9
1570179608043918,11,14,3,6,3,-5,-15,3
1570179608050903,19,10,0,-9,-1,-8,-52,-10
1570179608050903,-58,-33,-13,-10,-3,-5,-20,1
1570179608059876,-11,1,-3,1,-4,-7,-2,-18
1570179608059876,10,-1,-4,-2,-3,9,17,42
1570179608074908,-44,-25,-2,8,8,7,24,2
1570179608074908,28,27,2,-5,-8,2,13,1
1570179608082816,-21,-8,-3,-5,-5,-3,-4,-8
1570179608082816,-36,-19,-5,3,5,0,0,-13
1570179608097799,29,9,-4,-4,-3,-2,27,-1
1570179608097799,-5,1,6,5,4,4,3,3
1570179608098772,20,19,15,12,0,-3,0,6
1570179608098772,-7,-2,1,0,-3,0,-5,6
1570179608111737,22,5,-9,-11,-2,0,8,4
1570179608111737,-11,-11,-6,2,4,1,-4,51
1570179608119722,5,8,-1,1,4,-4,-16,15
1570179608119722,21,3,1,-2,2,1,3,8
1570179608134954,-19,-16,-3,-4,-8,-2,2,-34
1570179608134954,7,-6,-8,-7,-9,-3,1,-10
1570179608140659,34,9,-2,-1,0,-5,-12,-1
1570179608140659,-17,-1,1,-1,-4,-1,0,1
1570179608157889,9,14,5,4,8,5,9,9
1570179608157889,-28,-4,-5,-6,-7,-2,1,-40
1570179608158767,-10,-15,-9,-3,-4,-4,-4,13
1570179608158767,-4,1,0,-2,-1,4,7,-19
1570179608171579,-53,-26,-16,-12,-4,-8,-9,-6
1570179608171579,86,30,12,7,4,4,12,17
1570179608180559,-77,-26,-6,-4,0,-1,-3,-7
1570179608180559,-24,-15,-6,0,0,-5,-7,-16
1570179608194861,28,10,7,0,-1,2,11,27
1570179608194861,13,14,7,6,2,0,-7,32
1570179608201496,13,-3,-7,-8,-5,0,-4,7
1570179608201496,15,-4,-1,2,4,-1,-4,8
1570179608217502,-23,3,11,17,8,2,2,1
1570179608217502,42,14,-2,-8,-5,-6,4,11
1570179608219450,-24,-2,2,3,2,4,-3,-19
1570179608219450,9,-5,-5,-5,0,3,3,-1
1570179608240396,-5,2,2,0,-2,2,1,-20
1570179608240396,-37,-16,-6,-8,-5,-2,-4,-81
1570179608241391,53,25,7,7,6,1,4,8
1570179608241391,5,12,3,-2,-4,-4,7,-32
1570179608254359,20,-22,-15,-2,2,-1,2,-2
1570179608254359,-21,-21,-3,2,1,1,1,16
1570179608261340,4,6,-4,-7,-7,-6,-5,17
1570179608261340,-36,-23,-7,-2,-4,1,-6,-12
1570179608277344,50,37,19,9,4,-4,2,11
1570179608277344,-51,-12,0,-1,2,-3,4,14
1570179608279333,2,-11,-6,-5,-2,-4,-19,-4
1570179608279333,49,20,1,3,5,5,2,33
1570179608300234,-31,-16,-6,-6,-5,-3,-10,-3
1570179608300234,26,17,10,4,2,4,0,28
1570179608301297,-13,-8,-1,-4,-6,-5,2,-3
1570179608301297,-4,4,1,1,-7,-4,-2,-18
1570179608314215,8,5,3,1,-1,5,3,20
1570179608314215,3,-4,-7,-5,2,-1,1,-66
1570179608321429,7,0,2,3,1,0,11,19
1570179608321429,-20,-2,-1,1,-1,0,-6,-21
1570179608337254,21,1,-7,-8,-1,0,4,-1
1570179608337254,3,3,5,3,6,5,-1,36
1570179608339129,5,-1,-1,3,1,0,3,-2
1570179608339129,-21,-6,0,-1,2,-1,1,11
1570179608360073,7,3,-3,-4,-4,3,4,-9
1570179608360073,-25,-12,-4,-3,-2,-5,-13,-6
1570179608362070,32,5,2,3,4,4,0,6
1570179608362070,6,4,10,10,5,1,2,22
1570179608374040,2,8,-3,-5,-3,-3,9,-29
1570179608374040,5,-6,-3,2,1,4,-3,25
1570179608383015,12,10,3,1,-2,0,3,-1
1570179608383015,-13,-14,-6,-6,-6,-5,-4,29
1570179608397972,-29,-18,-3,0,-1,-1,3,43
1570179608397972,39,13,2,4,0,3,3,26
1570179608398971,-47,-14,-5,-4,-6,-2,-3,-17
1570179608398971,-5,2,0,4,3,-2,1,-33
1570179608419925,9,-2,-3,0,-1,-4,2,-36
1570179608419925,15,9,2,-3,-8,-2,3,-9
1570179608421908,5,-2,-4,-5,-1,0,-10,15
1570179608421908,13,6,4,6,5,3,-1,-10
1570179608433879,-23,-7,-4,-4,-4,-2,-1,-17
1570179608433879,-8,0,-2,-6,-6,-1,0,-26
1570179608442856,7,1,2,7,7,4,7,24
1570179608442856,0,-2,-4,-5,-4,-6,0,10
1570179608457812,10,3,6,8,3,2,0,34
1570179608457812,-2,2,0,-3,2,-1,-1,5
1570179608458810,13,-3,-3,-7,-25,-3,-8,16
1570179608458810,25,4,-2,-4,4,3,9,42
1570179608479756,-4,-2,0,2,2,1,-2,4
1570179608479756,-2,1,1,7,2,-1,2,-11
1570179608481857,-9,-7,-3,-5,1,-1,1,-21
1570179608481857,-4,3,1,4,7,0,-4,-14
1570179608493722,-9,-8,-5,-6,-8,-3,-8,-24
1570179608493722,7,-5,-4,-3,8,5,-8,45
1570179608502741,2,2,5,5,3,-1,-4,-16
1570179608502741,0,0,0,3,-5,-5,-7,-19
1570179608517654,-2,-3,-3,-1,2,-1,-7,-13
1570179608517654,-2,0,-2,1,0,4,4,-19
1570179608519646,-12,-5,-5,-3,1,-1,-1,-14
1570179608519646,18,6,3,-1,-2,-3,-19,17
1570179608540591,7,2,1,1,3,0,1,15
1570179608540591,-11,-2,-1,-3,-11,-4,16,-39
1570179608541588,0,0,0,3,0,-1,0,6
1570179608541588,-14,-2,0,-2,1,0,1,-9
1570179608553561,10,3,2,3,1,2,3,40
1570179608553561,-5,-2,-1,1,-3,-2,1,-4
1570179608562536,-6,-3,-4,-3,2,0,-1,6
1570179608562536,-6,-2,-7,-6,-7,-2,-5,-3
1570179608577537,-11,-1,-1,1,3,1,1,26
1570179608577537,8,-1,-6,-5,0,-1,-6,52
1570179608579488,-2,-1,-1,3,2,-1,2,15
1570179608579488,0,1,0,0,-3,0,-5,12
1570179608601434,-3,-1,-2,-4,-2,0,-4,-5
1570179608601434,-5,-1,0,0,1,-2,11,-39
1570179608603429,0,-1,0,-3,-2,-4,0,-17
1570179608603429,0,-3,-1,-4,-1,2,9,-27
1570179608613398,-13,-5,-1,-5,-3,-2,7,-54
1570179608613398,5,3,3,2,1,-1,-1,-8
1570179608623008,0,1,4,3,2,-1,-12,-17
1570179608623008,2,0,0,-2,-2,4,9,17
1570179608637336,-2,-1,1,-1,-1,1,2,3
1570179608637336,-1,0,0,-1,0,-2,-8,4
1570179608639329,-2,0,-3,-4,-1,1,7,-8
1570179608639329,-15,-4,-4,-1,-1,-1,10,-54
1570179608660271,21,3,0,1,1,-1,-4,45
1570179608660271,-8,-3,-1,0,-2,-1,-3,23
1570179608661468,5,0,-2,-2,3,-1,-12,20
1570179608661468,-4,0,-2,-2,-2,-1,-2,0
1570179608673239,-2,3,3,3,-1,-2,-6,11
1570179608673239,-10,-5,-2,-2,1,0,3,-35
1570179608683270,6,0,-1,1,1,0,13,20
1570179608683270,3,-1,1,0,0,-2,-6,11
1570179608698174,-6,-1,0,-3,-1,-1,-3,-13
1570179608698174,5,1,2,1,-2,-1,-4,11
1570179608699170,-8,-2,-1,1,1,1,3,-12
1570179608699170,2,-1,-1,2,-1,-1,-1,-3
1570179608720110,-3,-1,-1,-2,-3,1,1,-9
1570179608720110,3,2,1,2,1,1,-1,23
1570179608722105,0,-2,-1,-2,-1,-2,-1,-13
1570179608722105,-1,0,0,-1,-1,-1,-11,-6
1570179608734078,3,2,3,2,0,-2,-9,14
1570179608734078,10,2,1,0,0,1,-11,33
1570179608743054,5,-3,-4,-3,-2,3,0,51
1570179608743054,-1,0,2,-1,-1,1,6,19
1570179608757016,-10,-7,-7,-5,-3,0,4,-13
1570179608757016,7,3,1,1,-4,-2,2,13
1570179608764991,-8,-1,-2,-1,-1,-1,1,-23
1570179608764991,0,-1,-3,-1,-1,0,0,-3
1570179608779954,2,0,-1,-2,0,1,0,6
1570179608779954,-7,-3,0,-4,-1,1,1,-16
1570179608781947,1,-1,0,1,1,0,8,-5
1570179608781947,-9,-1,0,-1,0,-1,-1,-14
1570179608793959,2,-2,-2,-6,2,-2,-4,0
1570179608793959,-4,-1,-2,2,3,1,-2,-12
1570179608802889,-6,0,2,5,0,-3,-5,-29
1570179608802889,5,-1,-1,-1,-1,-2,-1,14
1570179608818019,0,0,-1,-2,-1,-1,-2,-5
1570179608818019,-3,-2,0,-2,2,1,7,-12
1570179608818924,5,1,-2,-3,-1,3,4,37
1570179608818924,-3,-1,0,1,-1,-2,-2,-4
1570179608839834,-10,-3,-1,0,-3,-4,-13,-28
1570179608839834,-4,-3,-3,-2,-5,-4,-2,-3
1570179608841788,-6,-2,1,-1,-2,-1,0,-20
1570179608841788,5,2,1,0,0,-1,-5,10
1570179608853755,-4,-1,-3,0,-2,-2,5,-33
1570179608853755,-3,-2,-5,-1,0,-1,2,-7
1570179608862730,4,0,1,-1,-1,-3,-12,-4
1570179608862730,1,1,0,0,-2,-3,-4,-10
1570179608885012,2,0,2,2,-1,0,0,11
1570179608885012,1,-3,-4,-1,-2,2,-2,-10
1570179608886667,-9,-1,0,0,-2,-2,5,-12
1570179608886667,0,-3,-3,0,-1,2,8,2
1570179608907609,2,-1,-2,0,0,-1,-2,14
1570179608907609,-1,0,0,0,0,-2,-3,5
1570179608909604,2,0,0,0,-5,0,1,2
1570179608909604,0,1,-1,0,-1,0,2,11
1570179608913593,-15,-6,-3,-5,-3,-1,-2,-32
1570179608913593,2,0,3,3,0,-3,-2,-2
1570179608922570,-8,-4,-4,-3,0,1,10,-18
1570179608922570,2,-2,-1,-1,-2,-1,-2,11
1570179608937530,12,4,2,5,3,5,8,53
1570179608937530,0,-1,-2,-3,-2,-1,1,6
1570179608939525,-1,-1,0,2,1,-1,-2,-8
1570179608939525,0,-1,-3,0,1,2,0,-11
1570179608961011,-1,0,0,-1,0,-2,0,0
1570179608961011,3,5,3,4,2,-1,-9,-8
1570179608966544,16,2,-1,0,0,-1,-1,46
1570179608966544,-1,-2,-1,-2,-2,0,-1,-1
1570179608973435,2,0,0,0,-2,1,1,0
1570179608973435,-5,-2,0,-2,-1,-1,3,-10
1570179608982689,-6,0,-3,-2,0,-1,-5,-24
1570179608982689,2,-1,-1,1,1,-1,-3,8
1570179608997410,-1,-2,-3,-3,-3,0,-1,3
1570179608997410,2,0,0,1,1,-1,-3,23
1570179608999364,0,-1,1,-2,2,1,3,-1
1570179608999364,-3,1,-1,-2,1,0,3,-3
1570179609020308,3,2,-1,1,0,0,-1,10
1570179609020308,-2,-3,-2,-1,-3,-1,0,-4
1570179609021309,-1,1,0,1,-1,0,-2,-9
1570179609021309,2,-2,0,0,-1,-5,-6,-2
1570179609033318,-5,-1,-3,-2,0,0,1,-15
1570179609033318,0,1,0,-1,0,1,1,2
1570179609042413,4,1,1,1,1,2,4,11
1570179609042413,0,0,1,-1,0,0,2,1
1570179609057372,-1,-1,-2,0,2,-1,-2,-3
1570179609057372,-4,-1,-2,0,-2,1,-2,-14
1570179609059204,-2,-1,0,-1,-1,-1,-5,-5
1570179609059204,1,-1,-2,-2,-2,1,0,0
1570179609080151,-4,-2,0,1,0,-2,-2,-3
1570179609080151,2,0,-1,-2,0,0,2,-2
1570179609082214,-6,-1,-2,-1,0,0,0,-20
1570179609082214,5,0,-1,0,-1,0,0,5
1570179609094117,3,2,0,0,1,0,-1,0
1570179609094117,-1,-1,-2,-2,-1,-1,1,2
1570179609103088,4,1,-1,1,1,0,-3,15
1570179609103088,-2,-1,0,-1,-2,-2,-1,-4
1570179609118050,-2,-1,-1,-1,-1,-1,-2,-3
1570179609118050,-1,-1,0,-2,0,-1,0,-3
1570179609119045,0,-1,-3,-1,-2,0,-2,-3
1570179609119045,-3,0,-1,0,0,1,-1,-3
1570179609139989,0,0,1,1,1,-1,0,4
1570179609139989,-3,-2,-1,-1,-1,0,2,-7
1570179609141983,0,-1,0,-2,-3,-3,-10,6
1570179609141983,1,1,1,-1,-1,1,4,10
1570179609153995,-3,1,0,-1,-1,-1,0,-5
1570179609153995,-2,1,0,0,-1,-2,-1,-11
1570179609163205,-3,1,0,-1,0,2,8,-7
1570179609163205,4,0,1,0,-1,-4,-6,3
1570179609177888,2,0,-1,0,-3,-2,-4,6
1570179609177888,-4,-2,-2,-2,-2,-1,-1,0
1570179609178889,-3,-3,0,2,0,-1,2,-6
1570179609178889,-5,-3,0,0,0,0,-4,-6
1570179609199936,0,-1,0,-2,-1,-1,2,-6
1570179609199936,2,0,-2,-2,-1,0,-1,5
1570179609201824,-5,-4,-3,-3,-2,-1,1,-13
1570179609201824,-1,-1,-4,0,1,1,2,0
1570179609222770,-1,0,-1,1,-1,0,0,2
1570179609222770,1,0,0,0,-1,0,-1,4
1570179609228754,0,0,-1,-1,-1,-2,-2,-1
1570179609228754,-3,-1,1,-1,-1,-1,-2,-5
1570179609237777,-5,-3,-1,0,1,2,11,-12
1570179609237777,1,-2,-2,0,0,-2,-5,5
1570179609239824,-5,-1,-2,0,0,1,-2,-8
1570179609239824,-2,-3,-3,-4,-3,-1,8,-2
1570179609259672,-1,-1,-1,-1,-3,-1,0,-2
1570179609259672,-1,0,-1,-2,0,0,2,3
1570179609261664,0,-1,-1,-1,0,-1,-4,1
1570179609261664,-3,1,0,-1,1,0,-3,-5
1570179609282608,1,2,1,2,1,0,-3,7
1570179609282608,3,-2,-1,-3,-2,-2,1,6
1570179609283662,0,0,0,-1,-1,-2,-1,4
1570179609283662,0,1,-1,-1,-1,-1,-2,-3
1570179609297570,0,-1,-1,0,-1,-2,-3,1
1570179609297570,0,0,0,0,-2,0,-2,1
1570179609299565,2,-1,1,1,0,-1,1,1
1570179609299565,0,-1,0,0,1,-1,0,7
1570179609320505,0,2,2,-2,1,3,2,-3
1570179609320505,-1,-2,-2,1,-1,-2,-3,9
1570179609322503,2,-1,-2,-1,-2,1,9,1
1570179609322503,2,2,0,1,-2,1,-8,9
1570179609342451,0,-2,-2,0,-2,0,-2,0
1570179609342451,-5,-2,-1,-1,-1,-1,4,-9
1570179609344452,-2,-1,0,-3,-1,0,-2,-5
1570179609344452,-1,-3,-1,-1,1,-1,0,-1
1570179609357412,1,-1,-2,-1,-1,-2,-3,1
1570179609357412,0,0,0,1,-1,0,-1,-2
1570179609363393,-4,-2,-1,-1,-1,0,-4,-4
1570179609363393,2,1,-1,0,0,0,3,-1
1570179609380347,-8,-3,-3,-4,-1,-5,-9,-21
1570179609380347,0,1,0,-1,1,2,4,-1
1570179609381344,6,2,3,2,-1,-3,-7,10
1570179609381344,-2,1,0,-2,-2,-2,-1,-6
1570179609402365,0,0,0,-1,-1,-1,1,4
1570179609402365,0,1,1,2,1,1,1,-1
1570179609404282,-5,-2,-2,0,-1,1,14,-14
1570179609404282,-4,-1,-1,0,-1,-1,-4,-4
1570179609417383,2,0,0,-1,-2,-2,-3,11
1570179609417383,1,0,-4,-3,-1,0,1,3
1570179609424227,-2,-1,0,-1,0,0,-1,1
1570179609424227,0,-1,-1,0,0,0,1,-2
1570179609440187,0,-1,-1,0,0,-2,1,-3
1570179609440187,-2,-1,1,-2,-1,-2,-1,-4
1570179609442183,0,-1,1,-2,0,0,-2,3
1570179609442183,0,-3,-2,-1,-1,0,0,-1
1570179609470112,1,0,0,-1,0,1,0,5
1570179609470112,-1,-3,-4,-1,0,0,1,-1
1570179609472101,2,1,-2,0,-1,-1,-5,8
1570179609472101,-3,0,-1,1,-2,-2,1,0
1570179609477091,1,0,1,1,0,1,0,0
1570179609477091,-1,2,0,0,1,-1,-2,-2
1570179609484110,-1,-1,-2,-2,-2,0,-1,-2
1570179609484110,-3,-1,0,-1,0,2,2,0
1570179609500031,0,-1,-2,-2,0,-4,-3,-15
1570179609500031,-4,-1,1,0,0,-1,-2,-3
1570179609502020,0,-2,0,-2,1,-1,-2,-2
1570179609502020,2,0,2,-1,1,0,0,3
1570179609522974,0,1,-2,-2,1,2,0,2
1570179609522974,6,0,1,0,0,-4,-20,24
1570179609523961,-2,1,-1,0,-1,-1,-4,0
1570179609523961,1,-1,-1,0,-3,-1,0,-2
1570179609536938,1,-1,0,0,0,-1,-1,5
1570179609536938,-3,0,-2,-1,-2,0,3,-10
1570179609544148,-1,1,-1,0,0,-1,0,-9
1570179609544148,0,1,-1,-2,0,-2,-2,0
1570179609560062,0,-2,-1,-1,-3,0,3,10
1570179609560062,-4,-3,-1,0,-1,0,3,-9
1570179609561861,-1,-1,-1,0,-3,0,0,1
1570179609561861,-7,-1,-1,-1,-1,-1,0,-10
1570179609582814,0,-2,-2,-1,-1,-2,1,-4
1570179609582814,-1,-2,-1,-2,-1,-2,1,-10
1570179609583953,-1,0,-1,-1,2,0,3,4
1570179609583953,5,0,-1,-1,1,0,1,11
1570179609597785,-4,0,0,0,-2,1,-3,0
1570179609597785,1,-1,1,0,-1,1,-1,-1
1570179609603910,-2,0,-1,-1,1,0,0,-4
1570179609603910,0,-2,0,-2,-3,-1,0,2
1570179609619926,-4,-2,-1,-2,-1,2,12,-14
1570179609619926,0,1,0,0,0,-1,1,-2
1570179609621700,0,-1,-3,-3,-1,-2,0,0
1570179609621700,-4,0,0,-1,-1,-2,-2,-4
1570179609649625,2,-1,-1,0,-1,1,1,6
1570179609649625,-6,-3,-1,0,0,1,8,-11
1570179609657607,-6,-3,-2,-2,-1,-2,-2,-14
1570179609657607,0,-1,0,1,-2,-1,-1,-4
1570179609658601,-2,-2,-2,0,0,0,-4,-7
1570179609658601,6,3,2,2,0,0,2,20
1570179609663593,1,-1,-1,1,0,0,-3,4
1570179609663593,2,-1,-2,-2,1,0,2,-3
1570179609680547,-4,-2,0,-1,-1,-2,-4,3
1570179609680547,0,-1,-3,-1,-1,-2,-4,-1
1570179609681539,-2,0,0,0,0,1,1,-2
1570179609681539,2,1,1,2,0,-2,-1,8
1570179609702484,0,1,-2,0,1,-1,-3,3
1570179609702484,-1,-2,0,-2,1,-1,-1,-2
1570179609704480,-2,0,1,-1,1,-1,-1,1
1570179609704480,-3,-2,-1,-1,1,0,-2,-6
1570179609716449,-1,-2,-2,0,-1,0,-1,3
1570179609716449,0,0,0,0,-1,1,-5,5
1570179609725427,2,0,0,0,0,-2,1,4
1570179609725427,0,0,-1,0,-1,0,1,-1
1570179609740383,2,1,0,0,-1,-2,-4,5
1570179609740383,0,-1,-2,-2,-2,-1,1,-2
1570179609741601,1,0,0,0,-2,-1,0,0
1570179609741601,4,1,0,-3,0,-1,-6,21
1570179609762324,-2,-3,1,0,-1,1,2,-3
1570179609762324,-4,-1,-3,-1,-1,1,0,-2
1570179609764319,-1,1,1,1,-2,1,3,-3
1570179609764319,-4,0,-1,0,-1,-2,1,-8
1570179609776297,0,2,-1,-3,0,-4,-4,-2
1570179609776297,0,-1,0,1,-2,-2,-1,1
1570179609785264,-2,-3,-2,-2,-1,2,-1,2
1570179609785264,-2,-2,-3,0,-1,1,-1,-5
1570179609800222,2,1,0,1,-1,-2,-1,-1
1570179609800222,0,-2,-1,-2,-3,-1,1,-3
1570179609802218,0,1,-2,2,-1,-3,-4,-1
1570179609802218,-3,-2,-2,-1,1,0,-1,-8
1570179609822163,3,-2,1,-1,2,-1,-2,9
1570179609822163,-1,-1,0,-2,1,1,1,-3
1570179609824161,1,-2,-2,-1,-2,-1,1,1
1570179609824161,-2,1,1,0,0,-3,-1,-2
1570179609836215,-2,1,-2,2,0,-1,-1,0
1570179609836215,0,0,-2,-2,-1,1,-1,-6
1570179609845107,-4,0,-1,-2,0,0,2,-10
1570179609845107,3,0,-1,-1,-2,0,-10,12
1570179609860062,0,-1,-1,-1,0,0,0,-4
1570179609860062,-5,-1,0,-1,0,-1,-1,-2
1570179609862056,3,-2,-1,-3,1,1,2,6
1570179609862056,-2,-2,-2,-1,-1,0,2,-8
1570179609883000,3,1,0,0,0,1,4,16
1570179609883000,2,0,-1,2,1,-1,-3,4
1570179609883998,-1,-1,-2,-1,0,0,-3,-1
1570179609883998,-1,-2,-1,-2,-1,0,3,-2
1570179609895966,0,0,-1,-3,-3,-1,-1,-3
1570179609895966,-2,1,-1,-2,0,-2,2,-5
1570179609905146,-1,-1,1,0,-2,-1,-1,2
1570179609905146,0,-1,1,1,-1,-1,1,-4
1570179609919901,-2,2,-1,0,-1,-2,0,-8
1570179609919901,0,-2,0,-2,-1,0,-1,-3
1570179609921896,0,-2,-1,-1,0,-2,-1,6
1570179609921896,-2,-1,-2,1,1,0,0,-8
1570179609942839,-3,-1,-2,-1,-2,0,-2,-8
1570179609942839,-1,0,2,-1,-1,-1,-1,1
1570179609943837,0,1,-1,-1,-2,-2,-1,4
1570179609943837,-2,-1,1,0,0,0,0,-7
1570179609955805,-1,0,-1,-1,-1,-1,0,-3
1570179609955805,-1,1,-2,0,-1,-3,-1,-6
1570179609964781,-2,0,0,-2,-1,0,0,-3
1570179609964781,-2,-1,-1,-1,-1,-1,2,-2
1570179609979746,2,-2,-1,-1,1,-2,8,-2
1570179609979746,2,-1,-1,-2,-1,0,-3,6
1570179609981738,-1,1,0,1,-1,-2,-3,-10
1570179609981738,-5,-4,-2,-1,-2,3,17,-7
1570179610002269,-4,-1,0,1,0,-1,-3,-5
1570179610002269,-1,-1,-1,0,-1,-1,0,-2
1570179610004513,1,-1,-2,0,-1,-1,-1,1
1570179610004513,-1,1,-1,-2,-1,-2,-3,-3
1570179610016536,2,-1,0,-1,-1,1,-1,4
1570179610016536,-1,0,-2,0,0,0,1,-2
1570179610025077,-3,-1,0,-2,0,1,0,-6
1570179610025077,-2,1,1,0,0,-3,-5,-1
1570179610039964,-1,-2,-2,-1,-1,0,1,5
1570179610039964,-4,-1,-1,-1,0,-2,-4,-2
1570179610041959,1,-1,-2,-1,0,0,2,3
1570179610041959,-1,1,1,0,-1,1,-2,-1
1570179610062888,1,0,-1,-1,-2,-2,-4,2
1570179610062888,1,-3,-1,1,-1,0,1,7
1570179610064591,-3,-1,1,-1,1,-1,-4,-7
1570179610064591,8,1,0,-2,1,-1,0,13
1570179610076490,-3,0,-1,0,0,1,-2,6
1570179610076490,-2,-2,-2,-1,0,0,1,2
1570179610085579,0,-1,0,0,-1,0,0,5
1570179610085579,-1,-1,0,1,-1,-3,-4,0
1570179610100305,0,-1,-3,-3,1,0,-1,0
1570179610100305,-1,1,-2,0,-1,0,0,7
1570179610102096,2,-1,-1,-1,-1,-1,-2,3
1570179610102096,-1,0,-1,-2,-1,-1,-2,2
1570179610122906,-2,1,-1,-1,-1,0,1,-1
1570179610122906,-3,0,1,0,0,-1,-2,-13
1570179610124674,-1,-2,-1,0,0,-1,-1,-5
1570179610124674,0,-2,1,-1,-2,-1,0,-3
1570179610145152,-2,-2,-1,-1,0,0,-3,-12
1570179610145152,0,-1,-2,0,-1,0,0,-9
1570179610151130,0,0,1,-1,0,-2,-2,-1
1570179610151130,-1,-3,-3,-1,0,-1,-3,-6
1570179610160157,2,-2,-2,1,-1,-1,-1,-3
1570179610160157,-1,0,-2,0,-2,-1,0,1
1570179610162101,0,-1,-1,-1,-2,-2,1,0
1570179610162101,-1,0,0,0,0,1,-1,-1
1570179610182815,-2,0,0,-1,-1,-2,1,-2
1570179610182815,0,1,0,1,0,-1,-1,3
1570179610184540,0,1,-1,-2,-2,0,1,4
1570179610184540,-1,1,-2,-1,-1,0,-1,0
1570179610205712,-1,-2,0,0,-1,1,0,-2
1570179610205712,1,-1,2,-1,0,-2,0,-1
1570179610207577,4,0,2,0,1,-2,-15,16
1570179610207577,0,0,-1,-1,-1,0,3,0
1570179610219727,1,1,0,-2,-1,-1,-1,-1
1570179610219727,1,0,0,-1,-2,-1,-1,0
1570179610221725,-3,0,-2,-1,3,0,3,-4
1570179610221725,-3,-2,-4,-2,-1,-2,-3,-8
1570179610242768,2,-2,0,-1,1,-1,-1,13
1570179610242768,-2,-1,2,1,-1,0,1,-6
1570179610243767,0,1,-1,0,-1,0,3,-2
1570179610243767,-2,-1,-1,1,-1,-3,-2,-4
1570179610265508,-2,-1,-3,-2,-1,-1,1,-5
1570179610265508,1,-1,-1,-1,0,0,-2,3
1570179610266789,-3,-2,-1,0,-1,1,2,-4
1570179610266789,0,1,2,0,0,-1,-11,11
1570179610279903,1,-1,-1,-2,-2,0,-2,2
1570179610279903,-2,-1,0,-1,0,-2,-2,-7
1570179610286887,0,-1,-2,-1,-2,0,0,0
1570179610286887,0,1,1,-1,0,-1,-3,10
1570179610302856,-1,-1,0,0,1,0,1,0
1570179610302856,-1,-2,-2,0,0,1,0,-5
1570179610304116,1,-2,0,-1,0,-2,-4,-1
1570179610304116,-1,2,1,-1,-3,0,3,-5
1570179610324870,1,-1,-2,-1,-1,-1,-2,11
1570179610324870,-2,-1,-3,-1,0,-1,-3,-10
1570179610326778,-1,-1,0,1,-2,2,5,0
1570179610326778,0,-3,-1,-1,-2,-1,3,-1
1570179610338793,-1,-1,-1,0,1,0,-4,-8
1570179610338793,-1,-1,-1,-1,-2,-1,1,-2
1570179610346773,0,-1,-2,1,-2,-2,-1,1
1570179610346773,-2,-1,1,1,0,1,1,-5
1570179610361690,-3,0,0,1,0,3,14,-7
1570179610361690,0,-2,-2,-1,0,-1,-1,1
1570179610362683,-2,-2,0,-2,-1,0,1,-3
1570179610362683,2,1,0,0,0,1,1,10
1570179610384624,-4,0,-1,0,0,-1,-1,-14
1570179610384624,1,1,1,-1,0,0,2,3
1570179610385178,-1,0,0,-1,-2,-1,-2,-1
1570179610385178,-1,-2,-1,-3,1,-2,1,-10
1570179610398588,0,1,0,-1,-1,-1,-3,2
1570179610398588,-1,-1,0,0,-2,-1,-1,4
1570179610407045,-2,1,0,1,-1,0,-2,0
1570179610407045,0,-1,-2,0,-2,0,0,1
1570179610421555,0,-1,-2,0,-2,-1,-2,-2
1570179610421555,1,0,-1,1,0,0,-2,5
1570179610422523,-2,0,-1,-2,0,0,3,-6
1570179610422523,1,1,-1,1,-2,0,-1,5
1570179610444560,-6,-2,0,-2,-1,-2,-7,-17
1570179610444560,4,0,-4,-2,1,-1,1,8
1570179610445463,-2,-2,-1,0,0,0,0,-2
1570179610445463,-1,-2,-2,-1,-1,-1,2,-1
1570179610458427,3,2,1,1,0,0,-11,12
1570179610458427,-1,-1,1,-3,-1,-2,-2,0
1570179610466407,1,1,0,-1,-1,-1,-2,-2
1570179610466407,1,-2,-2,-2,1,0,-1,-1
1570179610490345,-4,-1,1,0,-1,-1,1,-6
1570179610490345,0,-1,-1,-1,0,2,1,-1
1570179610490541,4,-2,1,0,0,0,-1,7
1570179610490541,-2,-2,-2,-3,-2,0,-2,-7
1570179610504636,-3,-3,-1,-1,-1,-1,12,-9
1570179610504636,-4,0,-1,-1,-1,-2,1,-3
1570179610505299,1,1,-1,0,-1,0,-1,-1
1570179610505299,0,-1,0,0,1,-1,-1,2
1570179610518266,1,1,-1,-2,0,0,1,2
1570179610518266,0,0,-1,0,1,2,0,2
1570179610527241,-1,0,-2,-2,-1,0,-1,-5
1570179610527241,-3,0,0,0,0,-1,3,-4
1570179610542202,3,-1,-3,0,0,-2,-2,10
1570179610542202,-1,-1,-1,-2,-3,-1,-1,1
1570179610542373,0,0,-1,-2,-1,1,-2,5
1570179610542373,-3,0,0,0,-2,-1,-7,-10
1570179610564143,-3,-2,0,-2,-2,-1,-5,-12
1570179610564143,0,-2,0,0,-1,-1,-2,4
1570179610565371,-2,0,-1,-1,1,0,0,-1
1570179610565371,0,-1,-1,-1,-1,-2,0,-2
1570179610579102,1,2,-1,0,-1,2,-1,-2
1570179610579102,2,0,1,1,0,-2,-3,-8
1570179610587131,-1,0,0,0,0,-3,-2,-8
1570179610587131,-3,0,-1,0,0,1,-2,-4
1570179610602112,0,0,0,-2,-2,-2,-1,5
1570179610602112,-1,-2,-2,-2,0,0,1,0
1570179610603087,-3,-2,-1,-1,0,1,1,-3
1570179610603087,0,2,-1,-1,-2,-2,-2,4
1570179610624031,1,-2,-1,-1,0,0,2,3
1570179610624031,10,3,1,3,0,-2,-23,25
1570179610625098,-2,-1,0,-1,-2,-1,-3,-2
1570179610625098,0,-3,0,-1,0,0,1,-1
1570179610638992,0,-1,1,-1,0,-1,0,3
1570179610638992,-4,-1,1,-1,0,0,5,-5
1570179610647114,1,0,0,-2,0,-1,-1,-8
1570179610647114,2,0,0,0,-1,0,-3,8
1570179610661931,0,0,-2,-1,0,-1,1,0
1570179610661931,-3,1,0,1,0,0,3,-11
1570179610662927,1,1,-2,-1,0,0,1,6
1570179610662927,-3,-2,-1,-2,-1,0,2,-5
1570179610684898,-1,-3,0,-1,-2,1,-2,-2
1570179610684898,-2,-2,-1,-1,-1,0,4,-6
1570179610685865,0,-1,-1,0,-2,-2,-2,2
1570179610685865,1,-1,-1,0,1,1,-1,-1
1570179610698937,0,-1,0,-1,1,0,0,1
1570179610698937,0,-1,0,0,0,1,-2,-1
1570179610706809,1,-1,1,0,1,0,6,12
1570179610706809,1,0,-2,0,-2,-1,-2,2
1570179610721769,1,0,-3,-2,-1,0,0,2
1570179610721769,-1,-1,0,-3,-2,0,2,-7
1570179610722768,-4,-2,-1,-1,0,-2,-1,-12
1570179610722768,1,0,-1,-2,-3,0,2,1
1570179610744710,1,1,-1,1,-1,0,0,11
1570179610744710,-2,-2,-2,0,-1,0,0,-4
1570179610744710,-1,-2,-2,0,0,-1,-2,-1
1570179610744710,0,-2,-1,-1,-2,0,-1,0
1570179610758670,-3,0,0,1,-2,-2,-1,-4
1570179610758670,1,-1,-2,0,-3,-1,1,1
1570179610767010,-1,1,0,1,-2,1,-2,-1
1570179610767010,0,-1,0,1,1,-2,-2,-3
1570179610781610,1,-1,0,-2,-1,-1,-2,4
1570179610781610,-4,0,-2,0,0,-2,-1,-9
1570179610782606,2,0,0,-1,-1,0,2,8
1570179610782606,-4,-2,0,-2,-1,0,1,-8
1570179610804548,4,-1,-1,0,-1,-1,-2,2
1570179610804548,-1,0,0,-1,-1,-2,1,1
1570179610805546,-7,-2,-1,-2,-1,-1,10,-25
1570179610805546,3,1,-2,-1,0,1,-2,6
1570179610820505,-1,-2,-2,-1,0,0,-1,0
1570179610820505,-4,-3,-2,-1,-2,1,2,2
1570179610827244,0,0,0,2,-3,0,-4,1
1570179610827244,-1,0,1,-1,-1,-1,-1,-2
1570179610841577,0,-1,-2,0,-2,-1,1,-2
1570179610841577,1,1,0,0,0,1,4,20
1570179610842448,0,0,-3,-1,1,-1,-3,4
1570179610842448,0,0,-1,1,1,0,0,1
1570179610864387,-1,-1,2,0,0,0,-3,-2
1570179610864387,-3,-2,0,-1,-1,-2,0,-9
1570179610865459,5,1,1,0,1,-1,-8,14
1570179610865459,1,0,-1,1,-2,-2,0,4
1570179610878351,-2,-2,-1,1,-2,2,1,-6
1570179610878351,-2,0,0,-1,0,-1,-1,-4
1570179610887327,-1,0,2,1,-2,-1,-3,-4
1570179610887327,-3,-1,0,0,-1,0,-2,-8
1570179610902519,-2,1,-1,0,-1,0,-2,-3
1570179610902519,1,-2,-2,-2,-2,-1,-2,3
1570179610903285,3,0,0,-1,-2,-1,0,6
1570179610903285,-2,-1,-1,-1,0,-1,0,-1
1570179610924682,0,0,0,-2,0,1,2,-3
1570179610924682,-1,-2,0,-1,-1,-1,-3,-1
1570179610925231,-3,-2,-2,-2,-1,-1,-2,-2
1570179610925231,2,2,0,0,2,-1,-11,15
1570179610938279,-2,1,0,-1,2,-1,-3,1
1570179610938279,1,0,-1,0,-1,1,0,-2
1570179610946170,1,0,0,-1,1,0,1,14
1570179610946170,2,0,1,0,-1,0,6,0
1570179610962129,-1,-1,1,0,-1,-2,-2,1
1570179610962129,0,-1,-1,-1,1,1,-2,2
1570179610962129,-2,-2,-1,-1,-1,-1,-1,-11
1570179610962129,-1,-2,0,-3,-1,0,2,0
1570179610984067,0,0,-2,0,1,-2,1,1
1570179610984067,-1,1,2,2,-1,0,-1,-13
1570179610985146,-1,-3,-1,0,-2,0,0,7
1570179610985146,-5,-3,-1,1,1,1,0,-9
1570179610999030,0,0,0,0,-2,-2,-1,-1
1570179610999030,-2,1,-3,-1,-1,-1,-1,-8
1570179611007274,-1,0,-1,-1,-2,-1,0,-3
1570179611007274,0,-1,-2,-2,-1,-1,0,1
1570179611021970,0,-3,1,-1,1,0,0,-4
1570179611021970,-1,-2,-2,-2,2,1,3,-3
1570179611022965,14,6,4,3,1,-1,-23,36
1570179611022965,-3,0,-2,-2,-2,-1,2,-2
1570179611043919,-2,-1,-1,-2,0,-2,-1,-3
1570179611043919,3,0,1,0,1,-1,1,3
1570179611044908,-5,-3,0,-2,-1,0,5,-14
1570179611044908,-2,0,0,1,1,-2,-2,-2
1570179611067846,-1,0,-1,0,-2,0,-5,5
1570179611067846,-2,-1,-1,-1,-2,-1,1,0
1570179611068842,-2,-2,-1,0,0,1,5,-3
1570179611068842,4,1,0,1,-3,-3,-5,0
1570179611081807,-2,-2,-2,-2,0,-1,3,-11
1570179611081807,1,-1,-1,0,-1,-1,0,4
1570179611082805,-3,-1,-1,-2,0,0,2,-10
1570179611082805,1,0,0,0,-1,-1,1,1
1570179611104955,0,0,-1,2,-1,-1,2,2
1570179611104955,-2,0,-1,-1,0,-2,-2,-1
1570179611105100,-3,-1,0,-1,-1,-1,1,-5
1570179611105100,-1,-1,-1,0,-1,0,-1,-4
1570179611127687,1,0,0,-1,-1,-2,-4,-1
1570179611127687,1,0,0,-1,0,-1,-1,3
1570179611128681,-1,-2,-1,-2,-2,-2,2,-2
1570179611128681,-4,-1,-1,-1,-1,-1,-5,-18
1570179611141684,1,-1,0,-1,-1,0,0,4
1570179611141684,-1,0,-1,-1,-1,0,-2,0
1570179611142645,-3,-1,-1,-1,1,0,1,-4
1570179611142645,-1,-4,0,-1,1,-1,1,1
1570179611164970,0,0,0,0,0,-1,0,3
1570179611164970,-13,-2,1,-2,-3,-3,3,-23
1570179611165587,3,0,1,3,0,-2,0,8
1570179611165587,0,-2,0,0,-2,-1,2,8
1570179611187527,-2,-3,-2,-2,-1,-1,-3,2
1570179611187527,0,-1,0,1,-1,1,1,0
1570179611188522,-3,-1,0,-2,-2,1,2,-6
1570179611188522,0,0,1,-1,-1,0,0,1
1570179611201495,-1,0,-1,-1,-1,0,2,-5
1570179611201495,1,-2,-1,0,0,0,-1,1
1570179611202520,-2,-2,-1,-1,-1,-1,-1,-11
1570179611202520,3,-1,-1,0,0,1,0,6
1570179611224709,0,-1,-1,-2,0,0,-1,-4
1570179611224709,-1,-2,-2,-3,0,-2,-4,3
1570179611225423,-4,0,-2,-1,1,-1,-4,-7
1570179611225423,2,1,0,0,-1,1,2,5
1570179611247516,0,-1,0,1,-2,0,0,-1
1570179611247516,1,0,-1,-1,1,0,-2,3
1570179611248362,-2,-1,1,1,-1,-1,1,2
1570179611248362,-1,0,-1,0,-2,-1,-2,-3
1570179611262325,0,-1,0,1,-1,-1,-1,-1
1570179611262325,4,0,-1,1,-1,-3,-3,7
1570179611262325,1,-1,-2,-2,-2,0,-2,3
1570179611262325,1,0,-4,0,0,0,1,-1
1570179611284272,1,-1,-1,0,-1,-1,-1,-2
1570179611284272,-1,-1,-1,0,-1,0,-1,0
1570179611285265,-2,-2,0,0,-1,-1,-1,-4
1570179611285265,-2,-1,-1,-3,0,-1,-4,-13
1570179611307206,-1,1,-2,0,-2,-3,0,8
1570179611307206,0,0,-1,0,-1,-2,4,-5
1570179611308204,1,1,-2,-1,1,0,-3,0
1570179611308204,0,0,1,0,-1,-1,-8,9
1570179611322164,-3,0,0,-1,0,0,-2,-8
1570179611322164,-2,-2,-1,-1,-2,-2,2,-1
1570179611322164,1,1,-2,-1,-1,-1,4,3
1570179611322164,-2,-1,2,-2,0,-1,4,-5
1570179611345104,-4,0,-1,-1,0,-2,-4,-4
1570179611345104,6,0,0,1,0,0,-4,11
1570179611345313,-2,-2,-2,-1,0,0,3,-5
1570179611345313,-1,-2,-1,-1,-1,0,2,-1
1570179611367050,-1,-1,-2,-1,-1,0,2,0
1570179611367050,-1,0,1,-1,1,1,0,3
1570179611368368,-4,-1,-1,-1,-2,0,-2,-12
1570179611368368,0,0,-2,0,-1,0,1,4
1570179611382009,1,-1,0,0,-1,-2,3,-1
1570179611382009,-4,0,-1,0,-2,1,-2,-2
1570179611383001,0,-1,-1,-1,-1,1,-3,4
1570179611383001,-1,0,-1,-1,-1,1,0,1
1570179611403949,1,-1,-1,0,0,1,0,-1
1570179611403949,1,-1,-1,-1,-1,-1,-2,-3
1570179611404943,0,0,-1,-1,-1,1,3,13
1570179611404943,-9,-3,-2,-2,-3,0,8,-21
1570179611427888,-3,2,1,2,-1,-1,-8,-5
1570179611427888,4,0,0,0,1,-3,2,13
1570179611427888,-2,-1,0,0,-1,0,5,-4
1570179611427888,2,0,0,0,1,1,-2,6
1570179611441850,-1,-2,-1,-2,-1,0,1,-3
1570179611441850,-4,-1,-3,-2,-1,-1,-1,-4
1570179611442843,-4,-2,0,-2,0,-2,-2,-8
1570179611442843,-1,0,-2,-1,-3,1,2,8
1570179611464784,1,-1,-1,-1,0,0,0,2
1570179611464784,-5,-1,0,0,-1,2,-3,-7
1570179611464784,2,-1,-2,0,-1,-2,-2,5
1570179611464784,-1,0,0,1,-1,1,-3,0
1570179611487871,1,-1,0,-3,1,1,0,1
1570179611487871,0,-2,-1,-1,-2,-1,2,2
1570179611488724,-1,-1,-1,0,-1,0,-5,-14
1570179611488724,0,0,2,1,0,-2,1,-2
1570179611501686,4,2,-1,1,-1,-5,-15,12
1570179611501686,0,0,0,1,0,0,-2,-3
1570179611502682,0,-1,0,0,-1,-1,-2,-3
1570179611502682,2,0,-3,0,0,0,-2,2
1570179611524791,1,-1,-2,0,0,1,10,5
1570179611524791,4,1,0,0,-1,0,0,6
1570179611525620,-1,2,1,0,-1,-3,-3,3
1570179611525620,-3,-1,2,-3,-1,-2,-1,1
1570179611547775,-3,-3,-1,-1,1,0,3,-3
1570179611547775,0,-1,-1,-3,0,0,-4,-5
1570179611548560,-1,0,0,-1,0,2,3,-1
1570179611548560,4,2,2,0,1,-2,-11,8
1570179611561524,-4,1,-2,-3,-2,-1,0,-6
1570179611561524,1,-2,-2,0,-1,-1,0,-2
1570179611562664,0,-1,-3,-1,-1,-1,-3,1
1570179611562664,-5,-3,-1,-1,-2,-1,-4,-17
1570179611584462,1,1,1,0,2,1,2,-1
1570179611584462,-2,-2,-1,1,0,-1,0,-7
1570179611585464,4,-1,-1,0,-1,1,2,7
1570179611585464,-1,-2,-1,0,-2,0,-1,0
1570179611607401,-2,-1,0,-3,-1,0,1,-5
1570179611607401,-1,0,-1,-1,-1,-1,-1,0
1570179611608418,-3,-1,-1,-1,0,-1,-2,-1
1570179611608418,-5,-3,-1,0,0,1,14,-13
1570179611621367,-6,-2,0,-1,-2,0,2,-13
1570179611621367,6,4,-1,1,0,-3,-12,4
1570179611629346,-1,-1,1,0,0,-2,-1,4
1570179611629346,0,0,-1,0,0,-2,0,2
1570179611644308,-4,-2,-1,-1,-2,1,1,-4
1570179611644308,-3,-1,-2,-1,1,1,3,-3
1570179611645303,-1,1,0,0,-1,0,1,-5
1570179611645303,1,1,0,1,1,0,-4,7
1570179611667243,2,0,0,0,0,0,2,16
1570179611667243,3,-1,0,0,0,2,2,9
1570179611668456,0,-2,1,1,-1,-3,-3,1
1570179611668456,0,-2,-1,-1,1,-1,-1,-3
1570179611681235,8,1,-1,0,-2,-1,-12,16
1570179611681235,-4,-1,0,-2,-1,0,3,-4
1570179611689910,-1,0,-4,0,1,-1,1,-2
1570179611689910,2,-2,0,0,-3,-2,-2,5
1570179611704618,-5,-2,0,-2,1,0,3,-9
1570179611704618,3,-1,0,-2,-3,-2,-2,-1
1570179611705140,-2,0,-1,-2,0,0,-3,-8
1570179611705140,-1,-1,0,0,-1,0,1,7
1570179611728086,2,-1,0,-1,0,-1,1,-2
1570179611728086,-3,-2,-2,-2,-1,-1,3,-5
1570179611728086,-2,-1,0,0,0,-1,0,-4
1570179611728086,0,0,-4,-1,-2,0,1,0
1570179611741117,-1,-1,0,0,0,-2,1,5
1570179611741117,-4,-1,-1,-2,-1,1,1,-3
1570179611750022,1,-2,0,-3,-1,1,0,6
1570179611750022,-2,-1,0,0,-1,-2,-7,-13
1570179611763987,0,-1,1,1,0,0,1,0
1570179611763987,1,0,0,2,-1,-2,-3,4
1570179611765601,-1,-2,-3,0,-3,0,1,2
1570179611765601,-1,1,0,-2,-1,-1,0,0
1570179611787956,-4,-1,-2,-2,0,-1,2,0
1570179611787956,-2,-1,-1,-1,-1,0,0,5
1570179611787956,0,2,0,-1,0,0,-1,5
1570179611787956,2,0,-1,-1,0,1,-1,-1
1570179611800884,-3,-1,-1,-1,-1,-1,3,-8
1570179611800884,-1,0,-1,-2,0,0,-1,-1
1570179611809866,-2,-1,0,-1,-1,2,0,1
1570179611809866,0,1,0,-1,0,0,-1,2
1570179611824820,0,2,-1,1,-2,0,-2,-1
1570179611824820,-6,-4,-2,-2,-1,-2,-2,-9
1570179611825817,3,0,1,0,1,-1,-3,4
1570179611825817,-1,-1,0,1,-1,-1,1,0
1570179611846896,-1,-2,-1,-2,-1,0,0,5
1570179611846896,-6,-1,-1,-1,-2,1,12,-17
1570179611847761,-1,0,-2,-1,-1,0,2,-2
1570179611847761,1,-1,-1,-2,1,-1,0,6
1570179611861722,0,-1,-2,0,-1,-1,-2,-4
1570179611861722,1,0,0,0,-1,1,0,1
1570179611869706,0,0,-2,-2,-2,-1,1,-1
1570179611869706,-1,-1,-1,-1,0,0,-1,-2
1570179611884660,-1,-2,-1,0,0,-3,-5,-5
1570179611884660,4,0,0,0,1,1,1,8
1570179611884660,0,0,-1,0,-1,-1,1,4
1570179611884660,-4,-4,-2,-3,-3,-2,-2,-9
1570179611907932,1,1,2,-1,0,-2,-3,-2
1570179611907932,2,-1,-2,0,0,-1,-2,10
1570179611908646,-1,-2,0,-1,0,0,-2,2
1570179611908646,1,0,0,0,-2,-1,2,-3
1570179611921802,0,0,-1,-1,0,0,-1,2
1570179611921802,1,0,0,0,-1,-1,-3,-3
1570179611929718,-2,1,-2,0,-1,0,1,-7
1570179611929718,3,0,0,0,1,1,4,17
1570179611944500,-3,-2,-1,0,0,2,3,2
1570179611944500,-3,0,-1,-1,-1,-2,4,-16
1570179611945498,3,2,2,1,0,-2,-7,-3
1570179611945498,3,-2,-1,1,-1,-1,-2,10
1570179611967574,-3,-1,-1,-1,-1,-2,-3,-2
1570179611967574,1,0,0,-1,-1,0,3,0
1570179611968658,0,-3,-1,0,-1,0,0,-2
1570179611968658,0,-1,0,-2,-2,0,-3,-6
1570179611981454,-2,-3,-2,-1,0,2,1,-5
1570179611981454,-1,-1,0,-1,0,0,-6,-1
1570179611989735,-2,-1,-2,0,1,-1,-1,-3
1570179611989735,-2,0,1,0,0,0,-2,3
1570179612004340,-2,1,0,-1,-2,-1,0,-5
1570179612004340,0,-1,0,-1,0,-2,-5,8
1570179612005429,-2,-3,-1,-2,-1,-1,7,-3
1570179612005429,0,1,-1,-1,0,-1,0,-5
1570179612027289,1,0,0,-1,-1,1,0,3
1570179612027289,0,-1,0,0,-2,-1,-2,0
1570179612028800,-1,0,0,-2,0,-2,-1,14
1570179612028800,-1,0,-1,-2,-1,-1,-1,-3
1570179612050220,2,-1,-1,1,-1,-2,-1,-2
1570179612050220,3,0,0,-1,0,0,-1,9
1570179612051215,-1,-2,-1,0,1,1,-1,-4
1570179612051215,-6,-1,-1,0,-3,0,13,-11
1570179612064184,1,1,0,0,-1,0,-4,3
1570179612064184,-6,-1,-3,-1,1,-1,1,-4
1570179612065324,3,0,1,1,0,-3,-8,2
1570179612065324,-1,-1,-1,-1,0,-1,-2,1
1570179612095149,-1,-1,-2,-1,-1,-2,1,-4
1570179612095149,-1,0,-1,-2,-2,-1,-2,-3
1570179612096094,-1,-3,0,-1,-2,-1,0,-9
1570179612096094,0,-1,-1,0,2,1,-2,4
1570179612110168,0,-1,-1,-1,-1,0,-1,0
1570179612110168,-1,0,-1,1,0,0,-1,1
1570179612111056,1,0,0,-1,0,-2,1,5
1570179612111056,-1,-3,0,-1,1,-1,-2,1
1570179612125019,1,-1,-3,-3,0,-3,-7,-6
1570179612125019,-1,0,0,1,1,1,0,2
1570179612125019,-1,-2,-1,-2,0,-1,0,-8
1570179612125019,-6,-1,-1,-2,-1,-1,8,-18
1570179612148056,-1,-1,-1,-2,-1,-1,0,-2
1570179612148056,-1,1,0,0,2,0,-1,0
1570179612148056,-4,-1,-2,0,0,0,-1,-2
1570179612148056,-1,0,-1,-1,0,0,-1,4
1570179612169900,0,-2,-2,1,1,-1,0,3
1570179612169900,1,0,1,-2,-1,-2,-2,-3
1570179612171012,-5,-3,-1,-1,-2,2,6,-4
1570179612171012,3,2,1,0,0,-3,-5,2
1570179612184466,-3,0,1,0,-2,-2,0,-1
1570179612184466,-1,0,-2,-1,1,2,-3,-1
1570179612185088,2,1,-2,-2,0,-1,0,4
1570179612185088,1,1,0,-1,-2,-1,-3,6
1570179612207798,0,-1,0,0,2,-1,-1,0
1570179612207798,-3,0,-1,-1,0,-2,3,-9
1570179612207798,0,-2,-2,-3,0,0,-4,-16
1570179612207798,-3,-3,0,-1,-2,-2,5,-11
1570179612230301,-1,0,0,-1,-1,-3,-8,-2
1570179612230301,4,-1,0,1,-2,0,1,7
1570179612230739,-2,-1,0,1,1,-2,-2,-8
1570179612230739,2,0,-2,0,0,0,-2,2
1570179612244700,-3,-1,0,0,-2,0,1,-5
1570179612244700,-1,0,-2,-1,-3,-1,-2,2
1570179612244700,0,0,0,0,-1,2,1,3
1570179612244700,-3,-2,-2,0,-2,-2,-6,-8
1570179612267725,0,-1,-2,-1,-2,-1,1,6
1570179612267725,0,-1,-1,-1,0,0,-2,1
1570179612268635,2,-1,0,0,-1,0,0,8
1570179612268635,0,0,-1,-1,1,1,-1,5
1570179612290160,-2,1,-1,0,0,-1,1,1
1570179612290160,-2,-1,-2,-2,-1,-1,0,-10
1570179612290574,-2,-1,-1,-3,-2,-1,-3,-13
1570179612290574,0,-1,-1,0,-1,-1,-3,5
1570179612304537,0,-1,0,0,-2,-2,0,1
1570179612304537,0,-1,-1,-1,0,-1,3,4
1570179612305536,0,0,-1,0,-1,-1,-1,0
1570179612305536,0,1,-1,-3,0,1,-2,1
1570179612327534,1,0,-2,-1,1,1,2,4
1570179612327534,-1,-2,0,2,-1,-2,-4,-2
1570179612328766,-5,-3,-3,-2,-2,1,14,-21
1570179612328766,6,2,2,4,0,0,-1,17
1570179612350416,-2,-1,-1,-1,1,-1,1,-3
1570179612350416,-1,-4,-2,-4,1,2,1,5
1570179612350819,-2,0,0,0,-1,-2,1,4
1570179612350819,-1,-1,-2,-3,-1,0,1,-1
1570179612364727,-1,2,0,-2,-1,1,-1,-5
1570179612364727,-1,1,1,1,-1,-1,3,2
1570179612365376,4,2,0,0,0,-1,-4,5
1570179612365376,2,0,2,1,0,-2,-4,7
1570179612387366,1,0,-1,1,-1,0,-1,-2
1570179612387366,1,0,-1,-2,0,-2,0,4
1570179612388313,0,-1,-2,0,0,0,-5,3
1570179612388313,-1,-2,-3,1,-1,1,-2,-3
1570179612410490,-1,-2,-1,-2,0,0,0,2
1570179612410490,0,0,-1,0,-1,0,-1,0
1570179612411251,-2,1,2,-1,1,-2,-2,1
1570179612411251,-7,-3,-3,-3,-1,-1,10,-22
1570179612424504,2,0,0,-1,-1,-1,-6,6
1570179612424504,0,2,1,0,0,0,1,-1
1570179612425216,0,0,-1,0,-2,0,-1,4
1570179612425216,-1,-2,-1,-1,0,-1,1,-4
1570179612447162,2,-1,-1,0,-1,0,3,0
1570179612447162,-2,-1,-1,-1,-1,-2,-5,-5
1570179612448154,4,1,2,2,0,-3,-10,9
1570179612448154,1,0,1,-1,-1,-1,-2,8
1570179612470098,1,-2,0,-3,-1,-1,-2,-6
1570179612470098,0,-1,-1,1,0,-1,-3,2
1570179612471092,-3,0,-1,-2,-1,0,3,0
1570179612471092,-1,-1,-1,-1,0,-3,-9,-15
1570179612484218,-3,1,-2,0,-1,0,-1,2
1570179612484218,-1,-1,-2,-1,0,1,2,-4
1570179612485368,0,-1,-1,0,0,-1,0,-1
1570179612485368,-4,0,0,0,-1,-2,-3,-2
1570179612507995,2,1,1,1,0,1,4,6
1570179612507995,-2,0,1,-1,-3,-1,1,-8
1570179612507995,1,0,-1,0,-2,-2,-8,7
1570179612507995,0,0,0,-1,0,0,-1,1
1570179612529939,-3,-1,0,0,-1,-1,2,-3
1570179612529939,2,1,-1,0,-2,0,2,2
1570179612530989,3,0,2,0,0,-1,3,12
1570179612530989,-1,0,0,0,0,0,1,1
1570179612543901,2,1,1,-1,0,-6,-8,-2
1570179612543901,-1,-3,-3,-3,0,-1,-2,-1
1570179612545306,-3,-2,-2,1,0,-3,-4,-17
1570179612545306,1,-1,-2,-1,0,-1,-1,2
1570179612567880,0,-1,-1,0,0,1,4,4
1570179612567880,-2,0,-1,-1,0,-2,-3,-2
1570179612568832,0,-1,-2,-3,0,0,0,-1
1570179612568832,-5,-2,0,-2,-3,0,-1,-3
1570179612589777,-2,-1,-1,0,-2,-1,-1,-3
1570179612589777,1,-1,-1,-1,-1,-1,-1,4
1570179612590829,0,-1,-1,0,-2,0,-1,3
1570179612590829,2,-1,-2,1,-2,1,2,8
1570179612604738,-2,-1,-1,0,0,-2,0,-3
1570179612604738,2,-1,0,0,-2,0,-1,0
1570179612604738,-6,-1,0,-2,1,3,14,-14
1570179612604738,-2,-1,-1,-3,-1,0,5,1
1570179612627721,-2,0,0,-1,-2,2,1,-3
1570179612627721,0,-2,-1,0,1,-1,-1,4
1570179612628671,-1,-2,-3,-1,-3,-1,0,3
1570179612628671,-1,-1,0,-1,-2,-3,-5,-13
1570179612649620,2,-2,-2,-1,0,1,1,5
1570179612649620,-3,-3,-2,-1,-1,-1,1,-7
1570179612650612,0,0,-2,-1,-1,0,0,3
1570179612650612,-1,1,1,1,1,0,-3,-4
1570179612663581,0,-1,-2,0,-3,1,0,2
1570179612663581,-1,-1,-2,-1,-1,-1,-2,1
1570179612671596,2,-1,-1,0,-2,0,-3,1
1570179612671596,-1,-1,1,2,0,-1,-2,0
1570179612687635,0,-1,0,1,0,0,0,0
1570179612687635,-1,-1,0,0,-2,0,-1,-1
1570179612688522,1,1,1,-1,0,0,-3,-3
1570179612688522,3,0,-1,-2,0,1,-2,6
1570179612710452,-6,-3,-2,-3,-2,-2,-1,-4
1570179612710452,1,0,-1,0,-1,0,1,8
1570179612711452,-1,0,0,1,-1,-3,-2,-2
1570179612711452,1,0,-2,0,-1,-1,-4,7
1570179612723421,0,0,0,-2,0,-1,-1,-2
1570179612723421,-2,-1,0,-1,-1,-1,-2,-6
1570179612732393,1,0,-1,0,-2,0,2,6
1570179612732393,1,1,-1,0,0,1,7,-3
1570179612747606,2,1,1,0,-1,0,1,15
1570179612747606,0,-1,-3,-2,0,-2,2,1
1570179612748403,-2,0,0,0,0,1,-3,0
1570179612748403,4,2,1,0,-2,-1,-4,5
1570179612770294,-1,0,-2,0,0,-1,-1,-2
1570179612770294,-2,-2,1,-2,-1,-3,-5,0
1570179612770587,0,-1,-3,-2,-1,-3,-4,0
1570179612770587,-2,0,-2,-3,1,-1,1,-4
1570179612783267,2,0,0,-2,-1,-1,-1,-2
1570179612783267,0,1,-1,0,-1,0,-1,-7
1570179612792237,-3,-3,-3,0,-1,-1,1,-2
1570179612792237,0,-1,0,1,-2,0,1,4
1570179612806199,-3,-3,-2,-1,-1,0,12,-17
1570179612806199,0,1,3,1,1,-1,-8,-2
1570179612814174,2,0,1,-3,-1,0,2,3
1570179612814174,0,-3,-2,-1,1,0,-4,-9
1570179612830276,0,0,0,1,0,-1,2,12
1570179612830276,-2,0,-3,0,-1,1,4,6
1570179612831131,-1,-1,2,1,0,-2,-2,-2
1570179612831131,0,1,0,0,0,0,1,2
1570179612844139,-2,-1,1,0,-1,-1,-4,-7
1570179612844139,1,-2,0,0,0,-2,-8,5
1570179612853075,0,-1,0,-1,-2,0,2,4
1570179612853075,-3,-1,1,-1,0,-1,0,-3
1570179612868030,1,-1,-2,-2,-1,-2,-6,0
1570179612868030,0,0,0,-1,0,-1,1,-4
1570179612869029,-2,-1,-3,-1,0,-1,2,-6
1570179612869029,0,-2,-1,-1,-2,0,-2,4
1570179612890437,-4,-2,0,-1,-1,-1,-4,-8
1570179612890437,-3,0,0,0,0,1,1,-4
1570179612891966,0,0,-1,0,-2,0,-1,1
1570179612891966,-3,0,0,0,-1,-1,0,-9
1570179612903936,-1,0,-2,-2,-1,-1,6,5
1570179612903936,-2,-2,-2,-1,-2,0,0,-3
1570179612912912,-3,-2,1,0,1,-1,1,-5
1570179612912912,-3,-2,-2,-1,1,-3,-6,-10
1570179612928037,0,-1,0,1,1,-1,0,-1
1570179612928037,0,0,0,-1,1,-1,0,-2
1570179612928868,1,1,-1,0,-1,0,2,6
1570179612928868,0,-1,-1,-3,-2,-2,2,3
1570179612949815,2,1,-1,-1,-2,1,-10,4
1570179612949815,-1,0,-2,-1,-2,0,3,2
1570179612951807,-1,0,2,0,-1,-1,-8,-4
1570179612951807,-2,0,-2,-2,-2,-1,-2,0
1570179612972983,1,-1,-2,0,-2,1,1,6
1570179612972983,-4,2,0,-1,-2,0,-1,-11
1570179612974929,2,0,-1,0,0,-2,-1,0
1570179612974929,-2,-1,-2,-1,0,0,2,0
1570179612987713,-2,-1,-1,-2,1,-1,-3,-6
1570179612987713,3,-1,1,0,0,-1,3,3
1570179612988751,2,1,0,-2,-1,-3,-14,21
1570179612988751,3,1,-1,0,-1,2,4,13
1570179613009705,-1,0,-1,0,-2,-5,-8,-9
1570179613009705,-1,-2,-2,1,0,-1,-2,2
1570179613011648,-1,-1,-1,0,-2,0,4,-2
1570179613011648,2,-1,0,1,-1,-1,-1,4
1570179613032594,-1,-2,-1,0,-1,1,0,2
1570179613032594,-2,-2,-2,1,-2,-1,0,-1
1570179613034589,0,0,-1,1,0,0,2,-3
1570179613034589,-4,-2,0,1,0,0,0,-6
1570179613047902,-2,1,-1,-1,-3,-1,3,-3
1570179613047902,1,0,1,-1,0,0,-2,-3
1570179613049545,-5,-3,-2,-2,-1,0,7,-11
1570179613049545,0,0,0,0,0,-1,-3,0
1570179613070494,-1,1,0,0,2,0,1,0
1570179613070494,1,0,-1,0,0,-1,-1,8
1570179613071487,-3,-1,-2,-2,-1,1,1,-8
1570179613071487,-5,-1,-1,-1,-2,1,0,-4
1570179613092431,2,-2,-2,-3,-2,0,9,-19
1570179613092431,-3,0,1,0,-1,-3,-10,-13
1570179613094426,-1,-1,0,-1,0,-1,1,-4
1570179613094426,-1,1,0,0,-1,-2,-3,-3
1570179613107392,1,-2,0,-2,1,0,-1,3
1570179613107392,-1,-1,-2,-2,-2,2,6,3
1570179613113948,1,0,0,1,0,-1,-4,-4
1570179613113948,2,-1,-1,-1,-1,0,-1,6
1570179613130337,-2,-1,0,-1,1,1,-2,2
1570179613130337,0,1,0,0,-1,1,2,-1
1570179613132324,-1,0,0,0,-2,0,-5,-2
1570179613132324,0,-1,-2,0,-1,1,2,1
1570179613152275,-2,-1,-1,-2,-2,-1,-2,1
1570179613152275,2,-1,-3,-2,0,0,2,5
1570179613154461,-3,-2,-2,-2,-1,-1,1,-4
1570179613154461,1,1,0,1,2,-2,-2,-2
1570179613167230,3,0,0,3,1,-3,-12,0
1570179613167230,-1,-1,1,0,1,-1,1,5
1570179613173221,5,1,0,1,0,-2,-13,16
1570179613173221,-2,-2,-2,-2,-2,0,1,0
1570179613190462,-1,-1,0,0,0,0,-2,-10
1570179613190462,1,-1,0,-1,-2,-2,-3,1
1570179613192168,-2,-1,-2,-2,1,1,3,-4
1570179613192168,-4,-1,-2,-1,-2,-2,-2,-5
1570179613212111,3,0,0,0,0,0,-1,9
1570179613212111,0,-2,-1,-1,-1,0,2,-2
1570179613214108,2,1,0,-1,-1,0,6,6
1570179613214108,-1,-1,-1,-1,0,3,2,-2
1570179613227071,-2,-2,-3,-1,-3,-3,0,-2
1570179613227071,2,0,-1,-1,0,-1,2,2
1570179613234054,-1,-3,0,-1,0,0,-3,-5
1570179613234054,0,-1,-1,0,1,0,3,2
1570179613250181,2,0,-1,-1,-1,1,1,8
1570179613250181,-2,-2,-2,-1,0,-1,-2,-4
1570179613252009,-2,0,-1,1,0,-1,0,-3
1570179613252009,-1,-2,0,-1,-2,2,7,-13
1570179613272984,2,1,2,1,0,0,-1,16
1570179613272984,-5,-1,-1,1,-1,-2,-4,-3
1570179613273947,0,0,-1,-1,-2,-1,2,-1
1570179613273947,0,0,0,-3,-1,-1,0,0
1570179613286912,-2,-1,-3,-1,1,0,4,2
1570179613286912,-1,0,-1,-2,0,0,-2,-8
1570179613293894,-1,0,-1,-1,-3,-1,2,3
1570179613293894,-2,0,-1,0,-2,0,-3,1
1570179613309884,-4,-2,-1,-1,0,-1,-4,-9
1570179613309884,-2,-1,0,1,-1,0,-2,-5
1570179613311846,4,-1,-1,-3,-1,0,1,8
1570179613311846,-1,1,-1,-1,0,-3,-5,-3
1570179613332793,10,5,3,1,1,-3,-18,33
1570179613332793,0,-1,-3,-2,-1,0,1,3
1570179613334783,-1,0,-2,-1,-1,1,0,-4
1570179613334783,3,-1,1,0,-1,-1,-4,3
1570179613346786,-5,-2,-1,-1,1,0,4,-11
1570179613346786,-2,1,-1,-2,0,-1,-1,-6
1570179613353787,2,0,1,0,-1,-1,-1,9
1570179613353787,0,-1,-3,0,-1,0,-2,1
1570179613370157,-3,0,-3,-1,-2,-1,4,-11
1570179613370157,6,1,1,2,-1,0,-4,15
1570179613371725,-3,-1,-1,-1,2,-1,2,-9
1570179613371725,0,-1,-2,-2,0,0,-1,-9
1570179613392962,3,0,0,-1,-2,0,3,5
1570179613392962,-3,-3,0,-1,1,-1,-2,-4
1570179613394625,-1,-1,-3,-1,-1,0,0,-2
1570179613394625,0,-2,0,1,-2,-1,-1,2
1570179613406630,-3,-1,-1,-1,-1,-1,-2,-5
1570179613406630,-1,-2,-3,0,-2,0,2,2
1570179613415567,-1,-1,1,1,-1,-2,-1,-6
1570179613415567,-1,0,-1,0,0,-2,1,1
1570179613430527,-6,-3,-1,-1,0,-2,3,-15
