timestamp,emg1,emg2,emg3,emg4,emg5,emg6,emg7,emg8
1570179628253986.0,10.2289686306188,2.8008867822286834,0.5162506126209426,2.9042180702686218,1.294287370672332,1.1381796947117822,2.3781616819530758,9.8933379674609
1570179628253986.0,7.9888929531656165,2.331134569503471,0.44320987155375485,2.2904285961533493,1.2737727039967968,0.7755632323958703,1.8501147079971882,7.896380162652618
1570179628254955.0,7.597483255331313,2.2429474812057975,0.44431614261451896,2.203403402371278,1.2503056220774094,0.7954045825373639,1.8455642246429742,7.604686618562448
1570179628254955.0,6.979125462421622,2.101143425746736,0.4377553604634354,2.0792083946048097,1.2640772026686597,0.7471988486356717,1.6828954751978509,7.161339604196436
1570179628256868.0,6.663162406527977,2.027447365787036,0.45083837409027516,2.0074035449009737,1.2364564016486634,0.7631576764365681,1.666022584988052,6.897132823420346
1570179628256868.0,6.314674718017012,1.940303806814134,0.4666337990500857,1.948481272517226,1.2416283959588756,0.7647388456937352,1.5665981961297715,6.663172541908246
1570179628258141.0,6.050412333198783,1.8816354498940107,0.49138457173181876,1.8870316127082611,1.2163157044871535,0.784253072001151,1.5503653076719033,6.4377269184882655
1570179628258141.0,5.808670802790815,1.820337940726849,0.5198314245115265,1.8532512335758184,1.2190597329349526,0.798622715047757,1.485542099637663,6.283495646100769
1570179628264776.0,5.576699730167689,1.7716109125968036,0.552460568910031,1.8045002674737745,1.1944788080375317,0.812771319132642,1.478033085164491,6.0843221687098605
1570179628264776.0,5.388259458539548,1.7218345540531237,0.588421705849625,1.7856898557784295,1.1916802608947852,0.825415974981861,1.436178220757372,5.957171858987081
1570179628272755.0,5.180484734437149,1.6785412061631897,0.6241985823863629,1.7427035920220928,1.1675002365077092,0.8355403915964169,1.4284487612744263,5.755973826260277
1570179628272755.0,5.0268624758463005,1.6369252012684734,0.6578846250688264,1.7258876166860546,1.1643707478224863,0.8480285773177201,1.3924816173906203,5.6282622020419755
1570179628279739.0,4.840114295693346,1.6016242391404736,0.6882134749808615,1.6858782924984397,1.143708952917845,0.853385821245991,1.3829392122674597,5.436557358453441
1570179628279739.0,4.710460122453676,1.5683209706029149,0.7166785838973772,1.6739768166268891,1.141314732206827,0.8601261740330014,1.352102120494344,5.327695129183738
1570179628296691.0,4.544387386311817,1.539694303182041,0.7410837928267515,1.6373390328360247,1.1219666037607265,0.8634443396848328,1.3410733882757238,5.166561458162166
1570179628296691.0,4.43604707498093,1.5138413493650953,0.7619118521143219,1.6284373946214437,1.1178387101191474,0.8712859585562244,1.3189645450252885,5.083719672509164
1570179628301915.0,4.285533639632758,1.493631868934484,0.7773910686075234,1.5964952905645344,1.1013208591218937,0.8731664440407217,1.3152468877891454,4.9522435502127
1570179628301915.0,4.184156999480599,1.47564526987653,0.7918721612649522,1.5864856821258906,1.1003263528566312,0.876849982578148,1.3018139516130778,4.880306135017371
1570179628325616.0,4.03876198896421,1.4614007987066915,0.808208768410848,1.5514514223573297,1.0844329569189646,0.8749168031756783,1.2998958481917589,4.765629285634268
1570179628325616.0,3.9456767578106793,1.4459950047418095,0.8270374148825331,1.5406826793764021,1.0797251943975965,0.8769057562043617,1.2954056668523855,4.707091975044394
1570179628331600.0,3.8106454173473843,1.4334081434484114,0.8444319006392873,1.5111722490599138,1.0635136965791612,0.8731354150908962,1.302040552844127,4.609037703990422
1570179628331600.0,3.7188786127070332,1.4174400820776243,0.8605814195139999,1.508093198142392,1.0579352781432043,0.8726977369452811,1.305380071722592,4.559193095166919
1570179628364563.0,3.5849266965890028,1.403463054273208,0.8756755270867053,1.4858943719474362,1.0414694745648276,0.868761515244435,1.3147219893053301,4.48404760391308
1570179628364563.0,3.4963309767244035,1.3889400853371774,0.8885824268093125,1.4820178371477633,1.0358870308870551,0.8723795938772806,1.3237934041947164,4.448310265098975
1570179628365507.0,3.3746810024320424,1.3794215210158094,0.8989629327725008,1.4568988635409958,1.0189242727439765,0.8724122996170797,1.3348215065418834,4.394865913876626
1570179628365507.0,3.2977095318604994,1.3697429564458354,0.9115694567607291,1.4519839572823485,1.0094043623924494,0.8761134836911757,1.348194547370822,4.379431237312648
1570179628366502.0,3.1928161396376313,1.3608981430905842,0.9274453104285213,1.4292738689306514,0.9916072973607343,0.874905012759001,1.366956367555117,4.359219653817528
1570179628366502.0,3.12593083392982,1.345989653610671,0.9460516673230942,1.425556925225595,0.9850994009873634,0.8823589224359538,1.3894744980123903,4.371556404763079
1570179628377894.0,3.0364882231062778,1.3333422252958242,0.9647526282442362,1.4028918649246824,0.9732301667434351,0.8880104737673963,1.4108298964146704,4.384949059730187
1570179628377894.0,2.9849709650065934,1.3194352278970756,0.9833180368927125,1.3975724360854265,0.9699759649155413,0.9027931310158563,1.4319602352969263,4.421521109944671
1570179628379669.0,2.92068074311704,1.3085579614661451,1.0002620899659456,1.3749232925944468,0.9595187686315161,0.9134873701694225,1.4525447462901038,4.46386862394717
1570179628379669.0,2.8839196229904656,1.2941164186057523,1.014349246874193,1.3677224320675454,0.9577745947644475,0.9299704115959366,1.4809471081613974,4.521348704996119
1570179628383458.0,2.823613133250068,1.2828680045408543,1.025389609136294,1.3437290620842157,0.9531427888668835,0.9397362331394845,1.5115087326307355,4.579467579158031
1570179628383458.0,2.779691635527605,1.2676332092010003,1.0348087216450539,1.3372072295098931,0.9581954677928132,0.9560284033700768,1.5467348931623128,4.643274877426775
1570179628392493.0,2.7279341764215035,1.2527227546900304,1.0413404801842385,1.3154061252693203,0.9594656313098306,0.9674350131133049,1.5775218246964884,4.704961808930955
1570179628392493.0,2.69830133493125,1.2330275764597063,1.0453546923003996,1.3100448391769652,0.9661269848266005,0.9834094043591142,1.6109335143273926,4.752148505236848
1570179628406397.0,2.6622788420881025,1.216145539411211,1.0486027691416484,1.2915641726015454,0.9658120535368832,0.9911461695301121,1.6422219707573482,4.790453148462338
1570179628406397.0,2.640635314704191,1.1963301022327508,1.051180728334376,1.2882906225066237,0.9682559022918035,1.0037961153257215,1.6781666400020667,4.839530029582337
1570179628415373.0,2.620574774864021,1.1829645875328694,1.051012388268216,1.2716186723591403,0.9637514801378883,1.0120788971598311,1.7108446742886605,4.903985333548885
1570179628415373.0,2.6159373975397693,1.1689047760060058,1.0481957122158545,1.2691461309602547,0.9637319301892688,1.0276010611155963,1.7485209130002737,4.972328978294558
1570179628446302.0,2.61260851653189,1.1625511252197471,1.0446095636955663,1.2538552113729504,0.9602681619999214,1.0389946441456122,1.7847244298898302,5.044212918637853
1570179628446302.0,2.6051744276389104,1.1543967209276824,1.042230496461336,1.2525401387843629,0.9626452835318845,1.0556693724785127,1.823100903135645,5.111222033086682
1570179628447287.0,2.592631678451245,1.1531440819369518,1.041992542756573,1.2423895680813832,0.9624123102566919,1.0654968468275408,1.8525705509879513,5.172452554067085
1570179628447287.0,2.5806707434707716,1.148383274581071,1.0429346881246964,1.2480286014492323,0.9690008871413126,1.0804763286244243,1.8819415881640407,5.233879353378809
1570179628452455.0,2.56700917344195,1.1516372485345727,1.0440303028829399,1.2398196507305084,0.9745883030683988,1.091736500230087,1.9107939828430518,5.3083750706398405
1570179628452455.0,2.5453277240374166,1.1486755071995798,1.0453485780362943,1.2373739343612373,0.9838322262892194,1.106279272231994,1.9460694342388514,5.385876305160456
1570179628454399.0,2.517003023997434,1.148731947240835,1.046847126728326,1.2183938141909898,0.9880767715276089,1.1111808575802224,1.974351234354305,5.445849790258136
1570179628454399.0,2.4786786201827846,1.1393225627597179,1.049634587439703,1.208712673374703,0.9930360339001832,1.1150984610146437,1.993479107137165,5.482861053062081
1570179628475606.0,2.4391109957537465,1.1335447950020816,1.0556038963184509,1.1865105346730094,0.991785146165206,1.1122520325547782,1.9989628363365917,5.507120305219715
1570179628475606.0,2.3943382092235423,1.1194305867605927,1.0647957068516098,1.1750734145227832,0.9941074674166587,1.113927716656987,2.0011067828668265,5.520809411634036
1570179628476212.0,2.360031116562994,1.1133410653436817,1.075054192369693,1.1543979631146455,0.9941538755434496,1.112315415986881,2.0013397853766626,5.522879879724277
1570179628476212.0,2.3261041768768767,1.1055422055725728,1.084564305294685,1.1479061556896613,0.9969641708497216,1.1153606427937526,2.007387136357395,5.531443636449394
1570179628497333.0,2.3069013992616667,1.111178880020636,1.091307682376575,1.1339828837846315,0.9937450178031241,1.114969534632292,2.015555754813447,5.5486294674334795
1570179628497333.0,2.2860782157085664,1.1132631063330094,1.0955750345528732,1.1301385984115304,0.9898900590394423,1.1190695102086028,2.027641957281191,5.576398649548154
1570179628499149.0,2.2863078898054687,1.1265523043527297,1.1002712521118851,1.1183522939595876,0.9811264457728982,1.1198951230314638,2.036796947115559,5.597357013316703
1570179628499149.0,2.2805592172919202,1.134492688774017,1.1074412439208,1.119002799863382,0.9771190901051918,1.1263461613982737,2.048626532320824,5.621100302322515
1570179628512321.0,2.295489593329113,1.1529653523004588,1.115920840685466,1.113658253667726,0.9727947695518682,1.1310626903830172,2.061892466345875,5.639758686093615
1570179628512321.0,2.2991344492184376,1.1654755149783411,1.125884660775021,1.1198709797644588,0.9727340396473256,1.1404162490514407,2.080417524453283,5.659352622547253
1570179628519095.0,2.326894023601088,1.191354523699983,1.1371343038617259,1.1199655095939693,0.9701098437907618,1.145877323660212,2.0980492909515234,5.6833280909408534
1570179628519095.0,2.339474256609901,1.211162657113134,1.1468630136604814,1.1260231050736638,0.9690786547381587,1.1551834270855998,2.119533185983782,5.7197478514075035
1570179628535056.0,2.3753423106804363,1.2426443754889542,1.1531516300125042,1.1198541316878272,0.9601518175156898,1.1598156716145616,2.143638724842522,5.758365045668315
1570179628535056.0,2.3899190085182367,1.2679077784697015,1.1582394038602688,1.1181968278086287,0.9490869621206971,1.1681395222110185,2.1763566790190074,5.809909766264854
1570179628537046.0,2.4234463797970762,1.3052213265754888,1.1649487733305024,1.106384725474343,0.9347549767080676,1.1754932506862423,2.2127075499081528,5.860633914995705
1570179628537046.0,2.432794916624085,1.332218816918027,1.1733372872081715,1.1004018912306912,0.9257150765209143,1.1889139661199124,2.2548733790939677,5.912297813184585
1570179628558062.0,2.469263579475078,1.3665965874130577,1.1833166512006896,1.0861068319042329,0.9165797756356512,1.1974329047692993,2.29645590186422,5.96308913927865
1570179628558062.0,2.4836424337439875,1.3905707175255249,1.1949674112282043,1.0792732298884191,0.9109609266168817,1.2062572927376116,2.339910407049713,6.011388803598005
1570179628559555.0,2.5165470967976846,1.4235164473996702,1.206252649164703,1.0669340327244792,0.9015928558592049,1.2093066761625946,2.377685017024875,6.021161659081013
1570179628559555.0,2.518875460274442,1.4472686372295935,1.2153945849825265,1.0619815291462569,0.8924079922386358,1.2157647093152948,2.4179273255654903,6.013652271991272
1570179628572004.0,2.5506883092810178,1.4815348291417072,1.2214691955369772,1.047966518727581,0.8811842224943253,1.2189580160513271,2.460670301299244,6.008597461694909
1570179628572004.0,2.5644913105732225,1.5065590470287793,1.2265462355988903,1.039281442299876,0.8751361238268468,1.2234614820624319,2.501133005458892,6.024689600345508
1570179628579081.0,2.612880838162472,1.5429260434358874,1.2306142074464794,1.0251823497686865,0.8697985757500338,1.2223969081041808,2.529606253131098,6.042723637171474
1570179628579081.0,2.6404227214749754,1.573686236143963,1.2307663941057307,1.018438855472159,0.867424775790146,1.2231338842317527,2.5544511361873794,6.071570665220787
1570179628595201.0,2.701394275199421,1.6182465409587392,1.2279754849222955,1.0081130518398858,0.8629701259462428,1.2163264093185209,2.5764537286897324,6.1032854848631635
1570179628595201.0,2.7396141979143707,1.6557594281569554,1.2231511526890138,1.00695787350444,0.8589942336949666,1.2094986320254386,2.597144516366978,6.150520457723949
1570179628596887.0,2.814764887290189,1.703626030275738,1.215273196704723,1.0049097371489035,0.8504697098449733,1.2020042365399832,2.611482459304316,6.19670196338228
1570179628596887.0,2.8657520490745885,1.7442150313490148,1.2060999807621635,1.0113593245581909,0.8420492100811081,1.2031764946400296,2.625185453658084,6.2563501117402796
1570179628617831.0,2.9493376866891903,1.7963832157446222,1.1976459252338774,1.0151035761058707,0.8338082814947474,1.2061954492762068,2.6418514411833325,6.325348631748644
1570179628617831.0,3.0048756572531463,1.8405481152147904,1.1908028201730059,1.0242853740667837,0.8292933619890303,1.2157840459709475,2.663034360331565,6.415187484400491
1570179628618828.0,3.0875759031810452,1.8962406825552016,1.1876731668418148,1.032964555069509,0.8249099189860405,1.223149413028042,2.6879720926853023,6.506322869917583
1570179628618828.0,3.133664484451467,1.9454859057325136,1.187293607636914,1.0483970478027766,0.8240604963204524,1.2348509859687402,2.71708684849109,6.59847054719654
1570179628631797.0,3.2039532049691863,2.0062125133214406,1.1867245805548006,1.0605519372951913,0.8249431437764103,1.2455042479885876,2.7462427266509386,6.670490569914633
1570179628631797.0,3.2449881917985026,2.0601897801851763,1.1868601430559587,1.074075674023777,0.8284163933882791,1.2637503339810865,2.778921525998143,6.74665604624462
1570179628638959.0,3.3198445919575623,2.125641022690678,1.1897520258626055,1.080777994282775,0.8329403934844868,1.2823370869783919,2.81501538454874,6.828326851624572
1570179628638959.0,3.3647885261020507,2.1851521279992054,1.1944114078432921,1.0886931260540633,0.8378815561131366,1.3064649217841018,2.8420012997803377,6.9287677584188625
1570179628655825.0,3.4299457232178336,2.255216787006429,1.1998672585603576,1.0944700245612176,0.8398928781136279,1.3269612017083796,2.8457333420292565,6.988681004381671
1570179628655825.0,3.4599628551329547,2.317706216675034,1.2071107781543924,1.1043275046108496,0.841705845075272,1.3506028811280195,2.836082221196086,6.997716022003189
1570179628656726.0,3.526319017413227,2.3901552483692163,1.2161703531716646,1.1087870154211386,0.8458238519159372,1.3704862173860108,2.8234815920881524,6.951522606544478
1570179628656726.0,3.577803743778259,2.45520107708128,1.2251038165903052,1.114838032297476,0.8538890483054686,1.3937425469414724,2.8089877761888142,6.8995066009898345
1570179628677907.0,3.6711765452872065,2.529328600721113,1.2320078132751837,1.116362731036961,0.8657923295768414,1.4132656019649328,2.799815862829208,6.8246573332012614
1570179628677907.0,3.7430565901506787,2.5941796088741276,1.2349664088152141,1.1175953269735706,0.8814001690781805,1.4354572631102749,2.7992938935082647,6.764386660847615
1570179628678674.0,3.8484809053935063,2.665054376183666,1.232039314801574,1.11331476462702,0.898861101215207,1.4502418635147745,2.8067218820357898,6.699816566098507
1570179628678674.0,3.9268849938926578,2.7279990933466154,1.2240186795537737,1.11237276051456,0.9147054900628157,1.4636788608923552,2.8176607013077737,6.665193244634765
1570179628691743.0,4.030581211480103,2.8014882329848128,1.2157612509071813,1.1074582011253005,0.9307745138815402,1.472304082320592,2.8230289166544904,6.6204936612763055
1570179628691743.0,4.1028950318779795,2.870333750406118,1.2092357872645458,1.1039862611831974,0.9492732746823471,1.4835953984434425,2.81088200051577,6.5773200978194515
1570179628698943.0,4.213950230221711,2.951189005851872,1.2035167288130464,1.095900949264783,0.9708169586241481,1.4925639766096792,2.7910144320396464,6.505513232594253
1570179628698943.0,4.3080322504480435,3.0263954326934153,1.1995215177876764,1.0917372681717799,0.9913305857255481,1.507094052139124,2.771665534487277,6.444420444723502
1570179628714603.0,4.438910228039321,3.1107336168724684,1.199318074881556,1.0864801995794455,1.0100943608628512,1.5203881839415896,2.752865031247651,6.366299258780512
1570179628714603.0,4.5452076362916864,3.190321451954366,1.201936166489024,1.0850090492215567,1.0262492911078116,1.5396532091957253,2.7350618098277626,6.30634655049292
1570179628716790.0,4.684098509853936,3.2794243759615282,1.2044208416134334,1.0797635267454773,1.0410307560238914,1.5577622563594027,2.7256332034402075,6.233813572086179
1570179628716790.0,4.802997258763391,3.3632296444469274,1.2067499368598982,1.0771037670480357,1.054501299436298,1.5809067746788876,2.722564928916083,6.188508977664151
1570179628737727.0,4.959104245406214,3.454757549983836,1.205042586139045,1.0687867841715681,1.0686673222931944,1.6008423945737111,2.7198771261502195,6.136995270451111
1570179628737727.0,5.092672506671663,3.5400473353475594,1.195220637797091,1.0604606410994706,1.0813861541139913,1.6221248479132495,2.707255141416019,6.103723784888049
1570179628739508.0,5.254532810046218,3.6355170870173588,1.1830776348740242,1.045723597988848,1.0918737967398155,1.640665635744365,2.693584572356286,6.048276490714482
1570179628739508.0,5.3880329141793695,3.725560999430651,1.1725782702240481,1.030964776196387,1.0984230247643492,1.6632389354102817,2.6814843784981535,6.006161482496478
1570179628752473.0,5.547695126384373,3.8236087217461,1.1627903470299736,1.013065649934483,1.1044422674606598,1.6832412601500286,2.666624887144246,5.949217212522338
1570179628752473.0,5.680624128299076,3.9177474494078153,1.1537014698087764,0.9990837614915627,1.1128643883057476,1.7096697955878948,2.648103590994687,5.917205409553116
1570179628766641.0,5.843981595215298,4.020646194997873,1.1453308667608046,0.9847321105228202,1.126498782862583,1.7377322829465855,2.6342074790538192,5.874414685236456
1570179628766641.0,5.989706970750191,4.119545182224936,1.1367220850655801,0.9764470536760359,1.142837512001696,1.7709186668079715,2.617241629182643,5.845896694748966
1570179628775566.0,6.16975024065173,4.229603602730861,1.1279606547825942,0.9700252888602018,1.161159105522586,1.800642299394489,2.5939224501570552,5.788712693318678
1570179628775566.0,6.328618914409482,4.337000608632336,1.1222691315087512,0.9697241656621615,1.1803235286822265,1.8341115934837324,2.5627637887848365,5.732343805183047
1570179628776996.0,6.504951834691436,4.449286743970867,1.1216367612291038,0.9722374091916977,1.20255147177611,1.8654372456029678,2.5327481072779148,5.651150804233523
1570179628776996.0,6.649021839851199,4.554072402731875,1.1261639588870478,0.9806232151291358,1.2251455686696726,1.8974518798380609,2.507766025805344,5.585449908726098
1570179628797351.0,6.822685861486933,4.6686265890975704,1.1356076547368563,0.9905862652254782,1.2455480686794131,1.9241110327434985,2.4892793809019254,5.507240682707853
1570179628797351.0,6.977398968578919,4.783641327601947,1.1489624143326733,1.0008599411115358,1.2602389246718142,1.956992122791401,2.468028217304907,5.4564241890518055
1570179628799814.0,7.1579404572485394,4.910514927615254,1.1650015797748843,1.0096871418913236,1.2741381255101143,1.9921460144322287,2.449711052153905,5.399882237034883
1570179628799814.0,7.320768124924068,5.03480422532125,1.1839334369706833,1.0192767313999807,1.2887614328793604,2.033278117289224,2.4345225624801654,5.3728091452919
1570179628812313.0,7.510310596304844,5.161469511468043,1.205430337366993,1.0287444746135752,1.306245066456508,2.0741473398482575,2.4211707862692484,5.335229471058354
1570179628812313.0,7.6844332197395655,5.282204562084248,1.2296092876899336,1.036766394565781,1.3249757924039598,2.121893588182312,2.4084237316761787,5.300373072209173
1570179628819411.0,7.887260053053324,5.41693267653991,1.2550303278738828,1.0419436954528654,1.3432994178024993,2.171944328333589,2.401286467770522,5.23169995222761
1570179628819411.0,8.073921394787101,5.5572600449013985,1.2811489103121583,1.048517246396222,1.359522797809571,2.2285159064000872,2.394707381320593,5.1755647326027505
1570179628835473.0,8.287684910320278,5.7090286797169165,1.3077906816215743,1.0598297204021172,1.3781771874363284,2.2839127659623166,2.3894438689264312,5.108393782267047
1570179628835473.0,8.486901543979478,5.856722462514614,1.335342998021084,1.0753866229559408,1.3996353645838076,2.343210629140076,2.385947839543719,5.061019774288911
1570179628836552.0,8.711954905054416,6.007597256389138,1.363530056730872,1.0961091375184535,1.4240362479754902,2.4010707526004142,2.3896829461949918,5.0002170544236355
1570179628836552.0,8.92372075949665,6.1521808835275635,1.3927170333416812,1.119589740310882,1.450167439557647,2.4613796607280416,2.399307472757789,4.95969793759829
1570179628858288.0,9.162163681993752,6.302629415885306,1.4225093820742272,1.146514981367081,1.479138608122784,2.516964426989362,2.414978866055326,4.915273643456467
1570179628858288.0,9.393106931128191,6.45393867124526,1.4521498953145875,1.1759990777795757,1.5077363553142922,2.5742361945964083,2.4351534891808653,4.900535989299276
1570179628859543.0,9.64708707327421,6.608843787386542,1.4795892582528332,1.2110168732964028,1.536480256322977,2.6279199226978984,2.4571485203411743,4.88615528051608
1570179628859543.0,9.87853186102916,6.750241657034322,1.50484543331832,1.2479599191517483,1.5634203922392849,2.681060213810087,2.4735216012106913,4.898755464372631
1570179628872289.0,10.122357962315991,6.888986326398059,1.5300365513515664,1.2862361988475415,1.5900994736609237,2.7315278320703227,2.4921520131256947,4.909537310313027
1570179628872289.0,10.349171707477028,7.02837462976532,1.5570166007186506,1.320821649864528,1.6174828182013203,2.784751422027172,2.5176256578707727,4.942385024240662
1570179628886388.0,10.594378430769027,7.178862484385539,1.5831470763415894,1.3546252414793616,1.6464345959641782,2.838104298303072,2.5432462308263233,4.956069878722478
1570179628886388.0,10.823842039592153,7.322197822656822,1.606206173566263,1.3884744907500604,1.67405497731188,2.898092694302801,2.5537483612089904,4.95607635944465
1570179628895277.0,11.046854397980752,7.429338099669511,1.6257247694500434,1.4222594265510553,1.697582837573564,2.960609405773293,2.5505804469136044,4.918691233303619
1570179628895277.0,11.227058920051864,7.491478866347102,1.6445489743925996,1.448745453785248,1.7149922867700325,3.027401302457654,2.541612705109733,4.89063390997572
1570179628897084.0,11.406274061741243,7.559002823031625,1.6653743268816426,1.470190430451287,1.7322006777415557,3.0898228507662617,2.536133796936385,4.857505118180649
1570179628897084.0,11.567802910273894,7.645451411589255,1.6902090129385305,1.489357999019943,1.752295972740165,3.1472961270463347,2.533927440598988,4.843395794618947
1570179628918029.0,11.736419761820708,7.742366688883034,1.7194255248201686,1.510193425919393,1.7766616020222419,3.1969394545525742,2.537240011839206,4.813585274149693
1570179628918029.0,11.895062821247375,7.834099856065062,1.7531152852513556,1.5327911978916031,1.8047271870709394,3.2437278058609835,2.5454871375627977,4.7988856089362
1570179628919027.0,12.05214383394374,7.9131403313235085,1.7915951459004757,1.5568723217277705,1.8340198344496526,3.2853465072506625,2.5623081733297837,4.784036000026609
1570179628919027.0,12.146991878268292,7.948082547924542,1.830654868195448,1.5764093109225956,1.858656634487179,3.3244514892064325,2.5823123213369503,4.78553911701779
1570179628931046.0,12.204629190565086,7.933323590724545,1.8662402272629939,1.5878464743515193,1.874434043635667,3.353005273611169,2.5953093368115128,4.76575705663868
1570179628931046.0,12.246217118976835,7.885101463735122,1.9032737373025763,1.595204526572234,1.8842912961150788,3.368956885982175,2.598075976985221,4.754616640892375
1570179628939971.0,12.289932833649708,7.818392760992857,1.942769374682906,1.6028324349229413,1.8949538722335169,3.382616639004591,2.6011233038802617,4.723901618762689
1570179628939971.0,12.327230750865809,7.745540574242585,1.978013025977125,1.611625152294644,1.9084583684159844,3.4014250349405866,2.6040712379355404,4.696120994347947
1570179628955081.0,12.369970313829173,7.677534199217861,2.004269955419055,1.6157977485594153,1.9217661746344814,3.4195340058964274,2.609953916494036,4.655562912135026
1570179628955081.0,12.41350083013228,7.62275755909563,2.025553010674618,1.6151374133232217,1.9350806170048398,3.4383482954401874,2.619440199108813,4.629784951335554
1570179628956923.0,12.478686615921772,7.592696691280168,2.045522028680469,1.612737234493725,1.9491525299840935,3.454826355363259,2.630986171367179,4.598799978794864
1570179628956923.0,12.554806168471718,7.589081938238868,2.06316970334849,1.615156977056851,1.9633627068110822,3.4673161166438726,2.6338355616251348,4.588846405035786
1570179628977875.0,12.658530460942362,7.613690794212152,2.0756479381024078,1.6212078733042463,1.979155761786901,3.4802716540399334,2.6317612143272098,4.564735577674168
1570179628977875.0,12.778644016020884,7.658063743685927,2.0842951307160105,1.6289165394678775,2.0001040182911427,3.501635192854096,2.6337809537849584,4.542464414587302
1570179628978997.0,12.894928656299706,7.7133095536080285,2.0968098927806214,1.63421949742209,2.027039021269213,3.531840497690456,2.64103258756327,4.5003949605818905
1570179628978997.0,12.984297510989157,7.775264321850218,2.117826940936141,1.6407319464554608,2.060074155909472,3.5655890600876137,2.6405882334935753,4.4729090496720305
1570179628991992.0,13.071897922940378,7.8321433287271365,2.145222228172213,1.649473648922725,2.0973060518180757,3.599689661525355,2.637747824836265,4.445996239789109
1570179628991992.0,13.171329816102707,7.877724799213503,2.173304644080428,1.6639135262591458,2.135505241775391,3.6279891252052434,2.635195211379936,4.437132276098052
1570179628999815.0,13.290322972379508,7.9229641253523475,2.2003758344330944,1.6803575172775589,2.1686646759663875,3.645054349137627,2.6301634028385057,4.40161932262533
1570179628999815.0,13.431420235301838,7.982611258929222,2.232483718151917,1.6990605541193413,2.1934819603219946,3.661496497329418,2.6173609731224223,4.3625248815763635
1570179629014774.0,13.597940514655818,8.059767623141623,2.270896997578022,1.718780376162422,2.2014431993605417,3.6862354685252403,2.6033961563888806,4.310025118227736
1570179629014774.0,13.787534992510484,8.136658574682436,2.312192192453666,1.7425066822470912,2.194457462179334,3.7117174250275933,2.5888593452263846,4.266483995228958
1570179629020859.0,13.980152675731585,8.193408324397977,2.3512587421680835,1.7643487517932506,2.1848972035385006,3.7262364162008947,2.578112330012575,4.209121527448105
1570179629020859.0,14.160158139270667,8.2464491121544,2.3825195673508412,1.783878914825834,2.1835057108694294,3.716130444371581,2.567403642684795,4.163866047541172
1570179629037709.0,14.342726358110573,8.303852898029753,2.410023977887217,1.800041605662663,2.1846957432168668,3.6883477909392517,2.555217033762144,4.105845157315257
1570179629037709.0,14.56757458352496,8.363428814527504,2.4343200567854204,1.8147118647499612,2.1794735903207325,3.6468914133615384,2.5383679145128366,4.058718875469206
1570179629043740.0,14.827295205845589,8.417106431428795,2.4535781927394833,1.8227032304314859,2.162298731255958,3.5920100669821524,2.522090260613154,4.005707085562321
1570179629043740.0,15.074717885683818,8.46245632875613,2.4702709091303103,1.8322519529540058,2.142450656442645,3.5295679687874695,2.5067677522848486,3.9727470526507873
1570179629051670.0,15.266179755490462,8.511575335528542,2.4763827702270444,1.8339489131074547,2.120143257334377,3.4698133720043005,2.49528699309659,3.9422490398777725
1570179629051670.0,15.432482865379576,8.585826768917032,2.468615139924429,1.82476433136916,2.0938704396508676,3.409557311989763,2.4833648431908095,3.9351079666594813
1570179629060647.0,15.59783761497312,8.680831508293009,2.461295380203678,1.8058620624665236,2.062683670198474,3.3513753008417133,2.4761596460128454,3.9259149063242997
1570179629060647.0,15.730862122582021,8.765694233372143,2.4611665770359687,1.7886055562737466,2.0350265065848028,3.2914558743986024,2.469593828841311,3.9262115190485094
1570179629074659.0,15.774258072859448,8.797400019789787,2.4605047232265913,1.7694336391661185,2.010644603714449,3.2347069482047432,2.4655464125664937,3.915274682078407
1570179629074659.0,15.727941010003198,8.762530623273356,2.4469644657246854,1.7530475662224814,1.9889693052844717,3.1815844021874238,2.4585829356731312,3.901744265698176
1570179629076873.0,15.566654976153815,8.651294059992741,2.4187541945973208,1.7299625452155754,1.9662560717289823,3.1365065382632182,2.4479504751886267,3.8643507022081036
1570179629076873.0,15.355769604472004,8.495504456063816,2.3857468277270932,1.7066381114321514,1.9466274380802653,3.093244227114908,2.434479076712409,3.8336720524024748
1570179629097594.0,15.128231285476323,8.326706155735767,2.354164316964136,1.678423094759663,1.9257328266300944,3.0474066775167734,2.423662242234365,3.8051534749372427
1570179629097594.0,14.90600518198352,8.16479842805998,2.3214162586537372,1.6531552765949464,1.905429377385283,2.9924004885856066,2.4136181968081427,3.7963474983202206
1570179629099544.0,14.667425075445106,8.008182104142795,2.286701911001452,1.6270420829104548,1.8836584288349478,2.936722028781262,2.4102187452383075,3.7869997732764413
1570179629099544.0,14.455570520991268,7.864618839551945,2.2519782039666745,1.605928013592025,1.8633545286392317,2.8798967142171334,2.4084000023918097,3.7889301252604626
1570179629111589.0,14.247365050530503,7.7257072201262575,2.219015037370089,1.580660879358477,1.8413573156071334,2.828125822067459,2.4044723706890374,3.7897765608593263
1570179629111589.0,14.036311955884583,7.586058059967824,2.1845485615834397,1.5578707266117326,1.8214696926363163,2.780346923904948,2.3943181392538464,3.80603856884556
1570179629127523.0,13.794217481428545,7.434953295848893,2.1476816709927085,1.532425998851367,1.8007462654802686,2.739439751276644,2.3851396157795723,3.8284401728114013
1570179629127523.0,13.569062057573793,7.288695506633015,2.1079181877663644,1.5127546648897343,1.7793151162572691,2.6956358391521515,2.375826846909014,3.868319541122181
1570179629135446.0,13.33335963579879,7.14488187058033,2.0663793310328264,1.4916999940251268,1.7554826680985391,2.6519544281236764,2.369143894130739,3.9064109323085017
1570179629135446.0,13.100282187160152,7.008390820666372,2.0254069493990046,1.4757769411305766,1.7348412904445971,2.6064054566236097,2.3644015614919587,3.9462633606442465
1570179629136445.0,12.848982376785722,6.873786838501524,1.9867311881383614,1.4599264056571961,1.711930638567616,2.5622451182020884,2.3654570068999954,3.984834127493359
1570179629136445.0,12.617211984748888,6.749559483168114,1.949263662404826,1.4494486838153668,1.688617727482548,2.5141456717838153,2.3681085721013937,4.0355545888569715
1570179629157390.0,12.375269152505064,6.625804604324212,1.9127794622139693,1.4338694240164787,1.6613047274514547,2.4665501217133055,2.3742136342852147,4.080872980730796
1570179629157390.0,12.150227168821566,6.505597595176205,1.8749401127964649,1.4188492642179849,1.6324498383726769,2.4180784720769775,2.3812374068596753,4.12709550020049
1570179629159383.0,11.912459844596299,6.382658128474011,1.8367092193883654,1.3963338068007078,1.6011684108489739,2.374457477519471,2.3924994966484485,4.176739648734471
1570179629159383.0,11.697067708227962,6.266486074065527,1.800016914557026,1.374262108184313,1.572324137825884,2.3312725406786017,2.3969138674723616,4.234993874670486
1570179629171471.0,11.477783584827604,6.148008698400049,1.7653596419450548,1.3499036344671094,1.5434483265460237,2.291436265659199,2.385945114957653,4.273426975832916
1570179629171471.0,11.27604098815728,6.035515839127237,1.7318969815620746,1.331712900270595,1.5172028933213426,2.247768426672168,2.3641470291521522,4.30554731262659
1570179629180331.0,11.055913153075542,5.924195642583378,1.7007683210705176,1.3121900998288794,1.4896475977806183,2.206235402945468,2.3470855247783913,4.332273313104602
1570179629180331.0,10.85436620743201,5.821396172919154,1.6705458255202648,1.2994553042314538,1.4656763514752682,2.1663612629140294,2.3327211582557323,4.34884240747975
1570179629195287.0,10.644448733797768,5.720370282743519,1.6418881095491484,1.2866409778939056,1.4437127331974082,2.131980733829711,2.3214041530434164,4.3405567882125276
1570179629195287.0,10.45510691971103,5.628426333541038,1.61260042957623,1.2760516886732516,1.4258983987427951,2.098942407331244,2.310818631707209,4.333832048497579
1570179629196445.0,10.255585430597062,5.535817989694465,1.581176354910001,1.2603539036017428,1.407218736188262,2.0715580892934295,2.305519919547721,4.330188092289406
1570179629196445.0,10.082341366482636,5.4490101237523465,1.5489295433050758,1.2472164116411957,1.3884150933869717,2.040962216475912,2.297494508831532,4.337432444462936
1570179629217229.0,9.90594253812312,5.359536207799128,1.5182700474906652,1.2288627218487014,1.3665849114207151,2.009805533006364,2.285411121562407,4.3431530229075515
1570179629217229.0,9.750665818190885,5.272131472544572,1.4885441301150946,1.2116949378838402,1.3474762294062193,1.9765043220382457,2.269516622020352,4.355630988707724
1570179629219224.0,9.57844218352462,5.1773042147868695,1.4586914984893988,1.190926983895147,1.3304842281968008,1.9457930524237705,2.256650544117727,4.363217811526448
1570179629219224.0,9.42371002919175,5.08418729779261,1.4289792407155917,1.1745561210392312,1.3190388952501546,1.9142306668631925,2.2454206160614927,4.373429499084681
1570179629231198.0,9.258274739596436,4.987320149690621,1.401970439293587,1.1560142048926796,1.3090310487164036,1.887287076927504,2.2350560396954138,4.368641021747666
1570179629231198.0,9.111197722390378,4.893407297817818,1.3765767894553367,1.1402024600778928,1.3021237636350818,1.8594046037554957,2.214047455458689,4.359189208230446
1570179629240173.0,8.950611055927553,4.796409125306454,1.3542684637504219,1.1213886405169207,1.2948115767133332,1.833562209608086,2.187652235348405,4.345270701300693
1570179629240173.0,8.809148653541696,4.706868903946577,1.335197731631558,1.1069408783871388,1.2874864196252869,1.8063055001993886,2.1584172264779506,4.341402197266177
1570179629255133.0,8.655159688650386,4.615522888697691,1.316849200729909,1.0905666360082913,1.2756244566754809,1.7817967501597451,2.1283701937586894,4.3312762873289605
1570179629255133.0,8.519788431956233,4.527879285012327,1.2976253012265384,1.0765989354223977,1.263482971463564,1.7564607528237473,2.093985571808726,4.3218205693032195
1570179629256428.0,8.373838716415293,4.438120077102817,1.281031448747001,1.0596749016885183,1.251142705614591,1.7365660767373934,2.0606069712285677,4.309454509514699
1570179629256428.0,8.253270147931008,4.356999576833092,1.2676513300084717,1.0471576673002037,1.241272122370685,1.717627894185174,2.025372570306245,4.302484027070153
1570179629278071.0,8.127263049980437,4.278074417721961,1.2551921444322278,1.03552986476172,1.2300256569375447,1.6987967698362638,1.9907134293473603,4.278424519285547
1570179629278071.0,8.019884495368254,4.205697473558696,1.2418541836685506,1.0305168785892864,1.2201051186834997,1.6739650168533808,1.9522192951434105,4.245290040359645
1570179629279064.0,7.888885134552327,4.131169779808952,1.2287599843417858,1.0271089033376033,1.2111507024820145,1.6509750988981728,1.9154579090955968,4.194803977964035
1570179629279064.0,7.767234906927271,4.062335092858756,1.2154954826208009,1.0279408659791813,1.2069707715476887,1.6294630379837625,1.8791210124398963,4.143904841957247
1570179629300243.0,7.630103457335215,3.990297210361213,1.202365377380185,1.0273501689029505,1.20392675341583,1.6132641585278067,1.8457035299685098,4.086529490787674
1570179629300243.0,7.507792599689909,3.9208314457993865,1.1886350261793897,1.0289215378216927,1.2030162513361484,1.5940431000385098,1.8125482843282374,4.036224145018572
1570179629302010.0,7.3691031015694355,3.8475694732490577,1.1752344937928854,1.0295686848497176,1.2016512248270852,1.570516663728673,1.7851610265328641,3.9841581199345284
1570179629302010.0,7.245906910281474,3.7807038957758268,1.163166109704421,1.0340394252592544,1.2018304966667361,1.540683790843926,1.7618666830851546,3.944555632651538
1570179629315128.0,7.106018415486595,3.712856268866468,1.1523657732729071,1.03914725402315,1.2019946158204664,1.5137352104619242,1.7444731893626417,3.909282947360031
1570179629315128.0,6.981820881512428,3.649805030662215,1.141732984689187,1.0490131981335797,1.2060037180382255,1.487368340734548,1.7282307703057824,3.8879755313632067
1570179629316961.0,6.8429335080028295,3.5854457389285006,1.1334234680221362,1.0622191599068214,1.2106909343723502,1.4644153859872697,1.7143989676575337,3.8731744486506496
1570179629316961.0,6.722311665279888,3.5292164328280218,1.1288523935687653,1.080858287722128,1.2164951489015365,1.4394746645792749,1.699976863153858,3.8675033699151435
1570179629337157.0,6.592341817313773,3.4739182923521095,1.1292595157887586,1.100641604906335,1.2224692450025607,1.41628743977503,1.6871672658997714,3.85151633423461
1570179629337157.0,6.484243734113505,3.425851001382296,1.1342183748971835,1.1216349616696388,1.2293023724294327,1.3924470939901963,1.6742119341210124,3.8382220117886883
1570179629344103.0,6.363265105882246,3.3774084277849057,1.1425317552008485,1.141344681591204,1.2331065507800543,1.3713769257761352,1.6646270606222375,3.8274655216187896
1570179629344103.0,6.258156980405334,3.333934613327526,1.151785287118163,1.163816391293034,1.236408726294729,1.3484233083368917,1.6564682964405297,3.8294133688281313
1570179629360040.0,6.140099095181386,3.2875405252071603,1.1605993537908978,1.1865340198382146,1.2370283878898145,1.328886121598918,1.6518772779723365,3.8393952384749794
1570179629360040.0,6.04061168717691,3.2459581960318875,1.1692886386047334,1.2102905554065828,1.237458147319213,1.3105515638096334,1.6498930380756036,3.8578208225358206
1570179629361844.0,5.92784147929149,3.202911416979304,1.1776759836492465,1.233488424245661,1.2368879727699058,1.296591071467235,1.6540106459410753,3.8681559360704756
1570179629361844.0,5.8293212568143895,3.165310031255591,1.1827947147049627,1.2560342753561566,1.23757647165699,1.2829694316875095,1.6601918022110342,3.8742294705161364
1570179629382790.0,5.71460030174298,3.1249509554942816,1.1857849388482753,1.2759864116158413,1.237805469020346,1.2715642501509927,1.6662947028975301,3.879367721836921
1570179629382790.0,5.615903102689705,3.087453125700431,1.1885742605637208,1.2952946055637335,1.238915086585688,1.259121503507859,1.6730454379044664,3.8950780578501174
1570179629383876.0,5.504424063524181,3.0447974978812367,1.1917951138717633,1.3120342907841547,1.237364495622493,1.250047974449656,1.6854212728097446,3.919010142437706
1570179629383876.0,5.41051869511613,3.004910015865963,1.1953901997042597,1.3283491530322806,1.2361208618286328,1.2416303052228488,1.7007270996468915,3.9477290240199046
1570179629396808.0,5.304680680504213,2.9641010917715374,1.1987904602358448,1.3411335581383295,1.2359865157246295,1.2370134088125282,1.7188709304480958,3.969003585614747
1570179629396808.0,5.217558445301134,2.9292677321213616,1.2011442175916809,1.3533721577439106,1.2381981476808315,1.2344558476576688,1.7398915968966593,3.9933401303848104
1570179629405728.0,5.121486456043747,2.8925005379895157,1.2045133667218353,1.3629763461905795,1.2382205475591215,1.237465093109128,1.7638101593817685,4.02363507369426
1570179629405728.0,5.044532017025871,2.8625395184986306,1.210131789538198,1.3721598322083146,1.23902814237844,1.240175756769236,1.790672973595254,4.059512262911678
1570179629420736.0,4.956886073394039,2.8353284832506653,1.2189482253193036,1.3785547142729973,1.2406130307958847,1.244788016249438,1.8234596131025984,4.101125500307451
1570179629420736.0,4.887057078391127,2.8142499977354856,1.2293988292942022,1.3842711732346769,1.2436951444312259,1.2509976332825867,1.8608058145663176,4.1532486077658035
1570179629421685.0,4.8064131594754675,2.788586873480556,1.2394972783021403,1.3895132227303302,1.2440970945321177,1.2617216542200518,1.90230578504469,4.2171011536573655
1570179629421685.0,4.745201908395437,2.7653647528995733,1.2485321936489355,1.3987315176806496,1.2422302522527542,1.2728886590147872,1.9475334970131983,4.295523715773437
1570179629442847.0,4.676307430871446,2.739920001405093,1.2574757373963845,1.4068835026369928,1.2390569893225285,1.2849357084053707,1.9980156511601879,4.389428388213609
1570179629442847.0,4.62733025277815,2.719480865220047,1.26752955616568,1.4144459712316813,1.2401232910160909,1.2934309472370866,2.054627362519326,4.497759968684723
1570179629444622.0,4.5711795876996275,2.6961653557010736,1.2776345998404945,1.4181739224129246,1.2420766537961414,1.3008616225503458,2.118029333265202,4.620026100031113
1570179629444622.0,4.539276929938677,2.6744110947086805,1.2852183338619358,1.4214942640197257,1.244578619482796,1.3056236587931564,2.1895899608811145,4.755872565570518
1570179629456813.0,4.50438045986083,2.647523174418823,1.2899038461377725,1.42327879025241,1.244524252352502,1.3100430687686406,2.2573605767968354,4.885744104804768
1570179629456813.0,4.48429112955566,2.6211862311471954,1.2918171955720623,1.4278162921707955,1.2417379694619208,1.3122006364230558,2.3013237030905107,4.98618238777918
1570179629465573.0,4.446657944801473,2.5907282578021253,1.2929532911023442,1.433495591879241,1.2355672017389292,1.315746826700223,2.3290871117427754,5.071452045838041
1570179629465573.0,4.423419449956945,2.5656034832525747,1.2943861452849814,1.442678165284425,1.231592756326001,1.3184889390085948,2.355546838307769,5.161164036604204
1570179629480526.0,4.393536612665159,2.538358850299261,1.2968004939716973,1.448150275174776,1.2281907581593503,1.3237363569501368,2.3853281919325444,5.2573380087315345
1570179629480526.0,4.383516546425487,2.5134074676188285,1.2992203741511077,1.452382315276741,1.2264654598394447,1.3313711793978968,2.4178248402792675,5.355216911262931
1570179629481521.0,4.361642731910002,2.484900492253699,1.3016905559833132,1.4528541617505628,1.224804724337742,1.3416543392884845,2.4474895150093663,5.440524764994873
1570179629481521.0,4.349555992998706,2.4592167367762627,1.304377429135722,1.4521846993264373,1.224168998176041,1.347878406705325,2.4653017198455243,5.487783399711949
1570179629502687.0,4.314398686490301,2.43005242065495,1.3055101827834696,1.4458833037111147,1.2189896584991295,1.3532496865569965,2.469066981277192,5.472782884115756
1570179629502687.0,4.281923942008394,2.403382274656639,1.3048627664652375,1.439304294782574,1.21006687590435,1.3554853163092953,2.4600504912952745,5.437338499332332
1570179629504468.0,4.233664338553683,2.3725745854106726,1.3049312159898923,1.4287453390751468,1.1974806598085894,1.3573212690821221,2.4481891909766618,5.40781879578704
1570179629504468.0,4.19847356224764,2.3432939047319032,1.3051539021864824,1.4176078023941068,1.184617365909932,1.3580234229039925,2.44018678161676,5.380143087578024
1570179629516554.0,4.151304966935058,2.3109763232039753,1.30466100203081,1.4032582525054014,1.1693488497778526,1.3589624352958498,2.435883822046029,5.345779894844313
1570179629516554.0,4.1176150097440685,2.2837970208081844,1.303133489022944,1.3913687354739175,1.1542885747950289,1.3552216816754707,2.4227316756952564,5.315769967489668
1570179629525413.0,4.072029132851818,2.2555160133142165,1.2997052892108367,1.3771767959750867,1.1385947858389596,1.3476073886328095,2.398423736634852,5.280414285074567
1570179629525413.0,4.040326467947985,2.23039459528017,1.29418726986101,1.3637886200813116,1.1245904392002188,1.334977369790545,2.364306615280228,5.23642657447231
1570179629540419.0,3.995482817483428,2.201916914639722,1.2891899292901938,1.3462019294580527,1.1112221169823533,1.3221660157625252,2.328367810336212,5.1677558362067035
1570179629540419.0,3.960013245581342,2.176893219147689,1.283393251769952,1.3289465114683479,1.1017727755016713,1.3067785056295862,2.2925534705076474,5.094471081049543
1570179629541602.0,3.9088640434684363,2.149705118309632,1.2742432224429094,1.3100457017076825,1.0928126320490148,1.2918950654941082,2.258873359996746,5.020347449861618
1570179629541602.0,3.869321778827444,2.126650412169235,1.2619251831275908,1.2964636645421186,1.0860596498945947,1.2770654940859816,2.224647904377887,4.951752244384362
1570179629563082.0,3.8176409393737774,2.1039836755222416,1.2496338182945574,1.2817004070031368,1.079494588811432,1.266677000998229,2.189159467378541,4.87790549353483
1570179629563082.0,3.7790511768043826,2.0891593729005553,1.2378472269048326,1.2682521906271451,1.0719775544602448,1.2564605129863449,2.148308607402398,4.807417725874717
1570179629564329.0,3.7293872801999535,2.075748613832405,1.2265651964939621,1.2530703514455221,1.059657024291056,1.2462064513051594,2.1063250515250216,4.732792837335783
1570179629564329.0,3.693508208931432,2.0664598777687115,1.217746657987633,1.241555750676314,1.045225433963303,1.2329925212886228,2.0624097659912524,4.667553670795701
1570179629576412.0,3.647532982747042,2.0543492254145055,1.2121985280091452,1.2273607859616316,1.028263829940756,1.2202950763737233,2.0216694772934747,4.603860864979558
1570179629576412.0,3.616145111454898,2.0462193709832013,1.2069842089745524,1.2138856621445344,1.0119675607071335,1.2055241607986267,1.9850243204216207,4.5534314709581025
1570179629585253.0,3.5764297714649147,2.038965495111046,1.200726554111239,1.1980740538635675,0.9953743252781059,1.1909567604759248,1.9543623570334725,4.5072900330692764
1570179629585253.0,3.552997467476033,2.036680274687385,1.1924983875473314,1.185752802754499,0.9823637474246539,1.174200253672091,1.9253753102009037,4.474445569387529
1570179629600420.0,3.5189855341536798,2.0292474510855842,1.1828202561121062,1.172878680036717,0.9704280694877895,1.1598619620866502,1.9001148766419151,4.446768610781799
1570179629600420.0,3.4936588461882714,2.02131332112694,1.1731508626917477,1.1639980236530325,0.958746341638592,1.146624187000079,1.8762770248044314,4.424935676286167
1570179629601563.0,3.4542674126745725,2.0092356435643475,1.165593519513571,1.1550379779477642,0.9462510451632408,1.136470362234238,1.8570782166085722,4.397553451975888
1570179629601563.0,3.4269963499808767,1.9992117706783301,1.158881992818801,1.150386234260468,0.936586448491412,1.1272803930915527,1.841222244072262,4.379907089729744
1570179629623176.0,3.389730545455592,1.9878003037185585,1.1507667943748454,1.146291063267565,0.9272279037060762,1.12033269218499,1.8295167913161,4.367367587923397
1570179629623176.0,3.364238799874356,1.9809663803154112,1.1410220552754924,1.1461613903759251,0.9205769648402194,1.110977132702853,1.8170151282731326,4.360016608900626
1570179629624227.0,3.3275824513823555,1.9727915598106534,1.1308967235856688,1.1459559179856067,0.9169334963217555,1.102900472785435,1.802569207756842,4.346758890154949
1570179629624227.0,3.303311765656108,1.9682172633121953,1.1200459035984158,1.1494408912741576,0.9165630554940922,1.0944850542731905,1.7848611652906454,4.341762086390412
1570179629636315.0,3.2701015437784586,1.9624689231851458,1.1094227567777,1.1496146873196245,0.9129173470064147,1.0869931147084446,1.7677953045285304,4.343058817747701
1570179629636315.0,3.2529138717904047,1.9604113736134512,1.1001991765499555,1.1491715539487697,0.9071905274120078,1.0783912661812478,1.7493926052708266,4.351215120316246
1570179629645083.0,3.230540976833043,1.9554194077193372,1.09229349749799,1.1447224569883478,0.9018024490471275,1.0726846192878088,1.732924090730545,4.355868022428537
1570179629645083.0,3.2213183408000687,1.9520092352258995,1.0843006874184893,1.1406008219562314,0.8996916589171653,1.0666799082632012,1.7200290735572643,4.366898367093861
1570179629659213.0,3.202828227267033,1.9461353340031033,1.076223473704776,1.1348965789149204,0.8978700145755263,1.0599312446032207,1.7144600118152011,4.377418777159912
1570179629659213.0,3.196458713767249,1.942910509146265,1.0675371506209328,1.1323075644095422,0.8964073187956372,1.0497155352278817,1.7145478019845448,4.385912196764514
1570179629668033.0,3.1805482587463247,1.9379006426984584,1.0591318195922161,1.128150317820449,0.8934027006798343,1.0396376607873237,1.7201398059374902,4.385888234303511
1570179629668033.0,3.179483056160256,1.9382028548380543,1.0520056110064169,1.1263560252256384,0.8906774619291851,1.0295897727655932,1.728662248690986,4.392314800947421
1570179629683048.0,3.1755136364787715,1.9395005717047733,1.046744418794177,1.1222809285660806,0.8888897845028,1.0241045024431767,1.741453241296772,4.4063551526774045
1570179629683048.0,3.185887468979713,1.9448806776857748,1.0434243616009518,1.1195216695482861,0.891056115721646,1.0199115900657023,1.7563415506848312,4.430861328904525
1570179629684321.0,3.1842167659984932,1.9487566876755278,1.041667201788006,1.1137180994322575,0.8957779677608659,1.0142507835871941,1.7742031189208538,4.450436667072093
1570179629684321.0,3.186090656112679,1.95315774214115,1.039972570026636,1.1060897957291937,0.9023010701848433,1.004473236299486,1.796129715584175,4.4601007874721095
1570179629696101.0,3.1726173945930523,1.952125762264187,1.039260565923573,1.0923811772960457,0.9089963051128631,0.9963779667068904,1.8219386897564909,4.463737324833514
1570179629696101.0,3.1698898106173576,1.9529829488956443,1.0398570525661286,1.0776729827855522,0.917976646394585,0.9901986436800437,1.8463313667557115,4.47804754547924
1570179629704925.0,3.1632035955891853,1.9502123505270752,1.0400326650730491,1.0598221219102921,0.9285356224331747,0.9879671403656615,1.871561536810299,4.499456055317636
1570179629704925.0,3.1714303003585758,1.946629402889354,1.0388067599283994,1.043914761988138,0.940952136654366,0.9859980348265688,1.9001870330186106,4.536128710685095
1570179629719897.0,3.172347926933426,1.93784753226033,1.0381776645916228,1.0271639530691665,0.9530615861574977,0.9852542752467993,1.9308102806963878,4.580299207732068
1570179629719897.0,3.1829087997900722,1.9301584601741413,1.0384843717904497,1.0148399392141139,0.9665742799629807,0.9857338801799883,1.9602172074233912,4.6276161330282735
1570179629721881.0,3.1854499934016745,1.9207305281624925,1.0387154863569623,1.0038664976199685,0.9819575177114426,0.9907748988044024,1.9912210047631376,4.680380992385001
1570179629721881.0,3.2036378495958626,1.9155727456194562,1.0403440973197453,0.9982080746638146,0.9999546626573631,0.9994604004332265,2.0243706256299245,4.750067742100915
1570179629742964.0,3.220957225328643,1.9107428293571052,1.0453906125704513,0.9949271584247857,1.0162402135571886,1.0130085689393267,2.0603642190616096,4.824969958710012
1570179629742964.0,3.2494051998743028,1.9099896935460061,1.0511972452708855,0.9968705000616646,1.028089234239262,1.0291394838747239,2.095701349682123,4.8954945239452305
1570179629744494.0,3.2685859682992677,1.9071848415465698,1.056116131612214,0.9997439628981907,1.0346798158146786,1.048914345756087,2.1332296290564625,4.952342459590349
1570179629744494.0,3.296534000269857,1.906643649940512,1.0626688904719062,1.0075058071262175,1.0376586719197192,1.0674393214748195,2.1636757144919847,4.996720509667249
1570179629755903.0,3.308654453995475,1.9028351790311737,1.0727202110568972,1.0180657951724705,1.0363859096875085,1.0818972942296599,2.171097552568806,5.023429162686242
1570179629755903.0,3.3256619314704,1.8989705912083392,1.0856312103217665,1.0320530815786595,1.0345355831490841,1.0922036037249843,2.1610281505084137,5.037458094037795
1570179629764814.0,3.333258951695057,1.8903905900801465,1.1000036335105896,1.0423844042068096,1.032965547905784,1.104242405810838,2.147656949346491,5.027257290764553
1570179629764814.0,3.3421942711164787,1.8818818542351765,1.112540609705727,1.0504741361053747,1.0303287919430189,1.1162188103197368,2.1305571564867263,5.001924485373992
1570179629780723.0,3.3354338872358467,1.8698153174206376,1.1228612290267757,1.0554277276306225,1.0234428067938133,1.1254515665890024,2.110768695931025,4.969923543815597
1570179629780723.0,3.340394464734913,1.8589225380952303,1.1306750349545065,1.0590395868715088,1.0155288320068923,1.1291851689785937,2.0882036309722367,4.946269746790719
1570179629781850.0,3.3405779277787344,1.8452290794918165,1.1366435826794123,1.0588906006250114,1.0079555161866072,1.1299732064253716,2.06654288360062,4.922053106811426
1570179629781850.0,3.348816701516722,1.8346785549867215,1.1428264907026626,1.0590072482375048,1.001529657794801,1.1289297850469187,2.044428039746331,4.901576927899136
1570179629802892.0,3.3422834008184883,1.8216283004381633,1.1487158705546643,1.0555192335069883,0.9938878012812168,1.1297176989879139,2.024312378763829,4.87935280618808
1570179629802892.0,3.3397008173144838,1.8085725190469717,1.1541089108359694,1.0516949392210961,0.9867424117584728,1.1283595724302875,2.006169386077625,4.860454205682858
1570179629804657.0,3.3294630102866627,1.79250545491252,1.158415368844859,1.0457864955164495,0.9802704680032639,1.1251222345870078,1.9903402839977973,4.8390584014751
1570179629804657.0,3.32866694053033,1.780359512371303,1.1599869516840824,1.0405917521506727,0.9749602649587114,1.1211035798948927,1.9736786029782232,4.817543262367714
1570179629825659.0,3.309352335946979,1.7664009296119554,1.1606399187944296,1.0340932016033322,0.9693164868897441,1.1188210302198762,1.9587702328419714,4.780347640494712
1570179629825659.0,3.2893827626665963,1.7544747066861737,1.1603837320105432,1.0304452135155022,0.9655158946175944,1.1157746875001906,1.9431614945632047,4.7389997691351775
1570179629831779.0,3.257308265637686,1.7394006609974295,1.1599755702496584,1.0263864057245105,0.9627299190740063,1.1135080195740046,1.9279911932960732,4.692372512811384
1570179629831779.0,3.2369760700966648,1.7266005093994699,1.1616161737634794,1.023396798772907,0.9622222694775067,1.1102723431220816,1.9123927156010976,4.654425607830161
1570179629839561.0,3.212079183892015,1.7140119600417258,1.165061141713653,1.0193188474649832,0.963125369893124,1.1086343014717759,1.8989237922163718,4.620805155239311
1570179629839561.0,3.195059084505674,1.7046661565226287,1.1692839520718101,1.0189491522514298,0.966965967274837,1.1079043860989006,1.8873832230585652,4.593290347893557
1570179629841556.0,3.165059486965361,1.6917417609550085,1.1735704353701464,1.0204957380716142,0.9714612134260038,1.1073717486486478,1.8788349237036368,4.559736396250768
1570179629841556.0,3.142483934298272,1.6786427454519406,1.176604592774789,1.025916197494114,0.9745975463953005,1.1032105241146388,1.8725674005249493,4.53110730811138
1570179629862502.0,3.110924489851452,1.6620543320151973,1.1783051232086517,1.0312984051096055,0.9736273529011936,1.0984677042568416,1.8717754341453656,4.507846441330853
1570179629862502.0,3.089758822528072,1.6473353633668077,1.1782734320717874,1.0356893535067886,0.9689476389464104,1.0921153042936609,1.8692985108404188,4.49665294309882
1570179629864685.0,3.0582021091269596,1.6295834014375945,1.177331667876196,1.0368087170806153,0.9596043083376486,1.0838885605697708,1.8587573564817952,4.477736094699334
1570179629864685.0,3.0324232335941956,1.6142996414980173,1.1763032092507661,1.0382083706942382,0.9482153814984452,1.0707075365905903,1.8390592973839996,4.458884661892429
1570179629885575.0,2.995459336412697,1.5971593311150172,1.1762475081171366,1.0364798219293292,0.9347255313076449,1.055300524406731,1.8181409079804314,4.441730763368517
1570179629885575.0,2.9657522849570164,1.5813823848138295,1.1792864016017635,1.0336816864780196,0.9201768853692486,1.037396809433349,1.797175076834086,4.429800197695595
1570179629886875.0,2.927168974473311,1.5639984141767471,1.1866619891452759,1.0269884913505927,0.9039124476756515,1.0210151828912237,1.779129852349757,4.415239120851182
1570179629886875.0,2.8994081940555394,1.5515592534307894,1.1951578708861634,1.0200761270451684,0.8891333856090878,1.0055262610918996,1.7640060108557523,4.413850076312923
1570179629899622.0,2.864485248134865,1.5389237610606774,1.2004054245211673,1.013796932776101,0.875474826101888,0.9911610574824115,1.7541757808768734,4.419106493860812
1570179629899622.0,2.8404367375939126,1.5269771355015969,1.2021009421826234,1.0114002366350643,0.8630757062153328,0.9751572367025064,1.7480697040664146,4.426546462169729
1570179629906388.0,2.8099169146215655,1.510226520541887,1.2022569461651917,1.0088752663346912,0.8515862274744379,0.9609069159439235,1.7439450284363958,4.416364485340719
1570179629906388.0,2.788437738688223,1.495311322426787,1.2007021547309171,1.0079589743378774,0.8434473244937729,0.9482611665167341,1.7360679112196982,4.391968663711122
1570179629922345.0,2.7570669241156134,1.479961262500052,1.198389279302568,1.008536234764892,0.8381949812185778,0.9396917641047521,1.7274522407757633,4.358363889342078
1570179629922345.0,2.7354898647126458,1.4680995908819596,1.195472005383575,1.013289265185101,0.8363263444453987,0.9332171826812277,1.7199543844660106,4.334214725890018
1570179629924340.0,2.7088445455447614,1.4558468570086796,1.1907841857982069,1.0193162996652887,0.834927566644223,0.9294814447766873,1.715664574427786,4.307996991105633
1570179629924340.0,2.693867639398682,1.4472741065452663,1.1854982230258722,1.0296353729433214,0.8342517993019084,0.926937274867919,1.7135364419614765,4.279807058669607
1570179629945290.0,2.6718313267879594,1.4368677923044564,1.1821334197681943,1.0421659159301473,0.8355146400352416,0.9263253114111801,1.7146928573131222,4.241776675339927
1570179629945290.0,2.6575503651732593,1.4284711587708736,1.1811764876370072,1.0549374548477133,0.8392833195292277,0.9256664157953547,1.7151084620352577,4.203549534212791
1570179629946280.0,2.636203600833774,1.4195445321743088,1.1824061337441178,1.0634765321432678,0.8416639370222173,0.9276627730505483,1.7134893733351089,4.165039501586646
1570179629946280.0,2.627339614600303,1.4146499885377355,1.1840267397312576,1.07087822946093,0.8426412645781033,0.9307012532861226,1.708875126783966,4.13501794261975
1570179629960484.0,2.611731712997497,1.4084692634013747,1.1840958570513718,1.077584100633592,0.8431882838744722,0.9336611100444021,1.7017926827911598,4.103373351435672
1570179629960484.0,2.600729780388276,1.4027768049270422,1.1807808992761968,1.0847928694512872,0.8462256512045012,0.9310911938954187,1.6886125691743357,4.080164274925064
1570179629961239.0,2.5803776985365103,1.3929580518520133,1.1743761981398346,1.0895902349349214,0.8518513712685627,0.9241342985326739,1.6745162308047636,4.06296495586785
1570179629961239.0,2.570250876536342,1.3832455713469052,1.1661840376993808,1.0936605772753147,0.8571551340674008,0.9158825668752103,1.6622148078265022,4.05822025779037
1570179629983181.0,2.552327380116474,1.3698985318497148,1.1584600090918584,1.094963207513696,0.8577067150700931,0.9099481822867168,1.652122379430676,4.059478571011302
1570179629983181.0,2.5416735428127244,1.3583356997248899,1.1516707292607722,1.0960694389094845,0.8561224134261475,0.9042551984476578,1.6399513094168696,4.072020223851312
1570179629984400.0,2.52588698697569,1.347051719052746,1.1449712014080684,1.0972259022185915,0.8560211911104356,0.9011097196931345,1.6247293874657187,4.079100709369233
1570179629984400.0,2.5200104749872123,1.3410853167837153,1.1389576134423687,1.1002676787893655,0.8586979146224444,0.8999995847511583,1.609097571878044,4.076099074852998
1570179630005124.0,2.5103691641827988,1.3350987426019298,1.1343021007068463,1.0993602714728041,0.8618271792184959,0.9004488455648102,1.5986335570164452,4.067103291612083
1570179630005124.0,2.5154660128516415,1.3300216829351066,1.1297555463097035,1.0942733929503228,0.864791514677446,0.900674031821792,1.590140209781535,4.065067677546789
1570179630007195.0,2.519710831059338,1.3229358587298472,1.1262807477997128,1.085890687785973,0.866947759599474,0.9029222797177681,1.582323810882566,4.062499242733517
1570179630007195.0,2.5340834907054974,1.3182235467769283,1.1242058247099898,1.0797683784264558,0.8686888198516294,0.906263165985565,1.575459390870417,4.063613782226578
1570179630019272.0,2.547090515948957,1.3118772336195543,1.122820182809938,1.073380757569147,0.8703534083422181,0.9120054093146739,1.573191554587703,4.061312361903576
1570179630019272.0,2.574125669369418,1.3084660035229176,1.1219752601796338,1.0685897199900014,0.8745377183639599,0.9193134676865958,1.5742191247173747,4.0598782243196565
1570179630026327.0,2.5945525353596217,1.3055858254093535,1.121247351512483,1.0645580712603504,0.8812384677880388,0.9288661864784747,1.5768426731131102,4.057002057783886
1570179630026327.0,2.619078241173055,1.306150586872998,1.1182929618172548,1.062636206133423,0.8890957026510242,0.9367709319267604,1.5774262452357153,4.062597888372439
1570179630043073.0,2.6366308472602773,1.3036999473978983,1.1124597530372833,1.0605609814890136,0.8956626693219932,0.9423327524255054,1.5782274329865067,4.074200509287462
1570179630043073.0,2.6581002220886365,1.3013483777369028,1.1040981446916207,1.0614400635058172,0.9000390313308495,0.9451068357131387,1.5814438432606601,4.096890255770851
1570179630044245.0,2.664962547705225,1.2979251799189062,1.0940001495753753,1.0636091681775082,0.9035256856537985,0.9460997177948987,1.5896023711993217,4.121942406756956
1570179630044245.0,2.6705858346305553,1.2976763762465577,1.082965993717793,1.069366815264347,0.9087174081132545,0.9438906814272083,1.6013445318457855,4.141422478320923
1570179630065203.0,2.6657993064188985,1.2977343232720917,1.0709851736476637,1.0754152115185094,0.9145170713540575,0.9400544738658734,1.6169900610692018,4.157643037719377
1570179630065203.0,2.6661084494453386,1.3022825156593607,1.059377503601669,1.0805511055728234,0.9202790553090519,0.935422477139308,1.6304313105447217,4.179184795442524
1570179630066955.0,2.656109407951153,1.3075588563255243,1.050990682221169,1.0812458234169786,0.9256517373482669,0.9315745578173555,1.6351831278587117,4.19014229723997
1570179630066955.0,2.651715536784431,1.313939380565351,1.0456783886915924,1.0797927962007474,0.9300427836452739,0.927351906929938,1.6359496949619745,4.197096502284615
1570179630079975.0,2.643137261834275,1.3187920249530665,1.041784829818519,1.0750077076661375,0.932855449284178,0.9242932411542484,1.638569492001921,4.206787736380614
1570179630079975.0,2.6419447818999773,1.3269952332980182,1.038581322253618,1.069369021891342,0.936475085676062,0.9192438635838563,1.637601209015408,4.221920991540648
1570179630086597.0,2.634083132704145,1.3327046596661567,1.0383577803946236,1.063760294830926,0.9398607978252452,0.9134293789886816,1.6340602598598075,4.237644938144176
1570179630086597.0,2.6366348193978655,1.3383182018715303,1.0411320813157743,1.0618876132462085,0.9412507714688458,0.9078708824926297,1.6284852284914921,4.262702523200965
1570179630103041.0,2.6370916071143258,1.341615274429531,1.043252708500908,1.0612900753533618,0.9409395864156025,0.904033471075543,1.6184040866491856,4.2919428984447165
1570179630103041.0,2.6436422693925468,1.3428445090049959,1.042441717606298,1.0632025487511139,0.9412580305144931,0.9011058842498235,1.6040216826229996,4.322272003259174
1570179630103967.0,2.6439039369175097,1.3393923713148352,1.0402102255343926,1.063761036476842,0.9430606103269504,0.8993715705737514,1.590921485887167,4.35591612832989
1570179630103967.0,2.653692430344892,1.3377654497252123,1.0375154072834107,1.0644047620517885,0.9459765052128122,0.8975829145491963,1.5819758849061298,4.400156096732191
1570179630124978.0,2.658322074699172,1.3332272221634296,1.034577489734582,1.0633592605830517,0.9486726828263427,0.8971105003574191,1.578626243739282,4.448652006166288
1570179630124978.0,2.6691488193581,1.326601213507949,1.0311052783665067,1.0611094427740224,0.9505856291022752,0.8949748292679535,1.5786075674524704,4.504326029393587
1570179630126880.0,2.676058519961171,1.3166946792930934,1.0280163392906703,1.057202723506496,0.9502081259423646,0.8914366621894226,1.5805791008399137,4.555808662720461
1570179630126880.0,2.691147432877458,1.3083563059538366,1.0263909573679226,1.0558002416664853,0.9477791524562982,0.8871889251889765,1.581844383777483,4.589330742541215
1570179630139892.0,2.6940365570820797,1.2991204469062654,1.026545429793417,1.0545029959774537,0.9426461346139777,0.8846203312976292,1.5825894761186077,4.596782651657296
1570179630139892.0,2.6955996000306968,1.292400306356332,1.0294642421652807,1.0547622452026104,0.9369518268615887,0.8821561250495169,1.5842773284376532,4.5919180181854236
1570179630146766.0,2.688547450560013,1.2857189487499923,1.0359544421843272,1.0569361002738746,0.9315026813883258,0.8796218820378352,1.5894606791865713,4.575882383815902
1570179630146766.0,2.6877213034409917,1.2818111261588572,1.044242947055679,1.0633013542239325,0.9256496956209143,0.8757688264258593,1.6000515798701471,4.5515797550673485
1570179630162905.0,2.6792523812071747,1.276357494244018,1.0533552424153134,1.071440736202324,0.9207919661413165,0.8722677454568417,1.6176248517530212,4.523129587095347
1570179630162905.0,2.677937545996297,1.2721683314363994,1.0622238046188712,1.0831856790261656,0.9186753732024745,0.8693660932593591,1.6411285256322696,4.505586988702678
1570179630164696.0,2.6749789992778705,1.2685790651411057,1.0695716553267955,1.0955665015397582,0.9180691272953128,0.8681518894168345,1.6687096077765773,4.497310560831946
1570179630164696.0,2.6774272078908274,1.2693771550539361,1.0768523687920029,1.1060974544315116,0.9193960818842664,0.867874631231115,1.700248790737627,4.501379180469514
1570179630185641.0,2.6659238304368236,1.2697018189166869,1.085797295439981,1.1111942314248036,0.9214710353386976,0.8694511042231415,1.736808930686678,4.513903096914104
1570179630185641.0,2.657381312958741,1.2726314890902266,1.0947020805622678,1.115612403240043,0.922570489160463,0.8721956257973896,1.7774153983655303,4.542780147202584
1570179630186903.0,2.6446245728848394,1.2764255505737938,1.102614162717833,1.1212747700699812,0.9220174629189939,0.8769680918911444,1.8210829686484233,4.583053272938476
1570179630186903.0,2.641260150396121,1.2825261128182888,1.108348514926965,1.1294415265388154,0.9230146946623934,0.8833057292435456,1.867955114464256,4.628765083938325
1570179630199636.0,2.635201221747296,1.2864021632634823,1.1115867571362719,1.1376897049582315,0.9266216397268717,0.8902563190427041,1.917091979749796,4.668551606344642
1570179630199636.0,2.637758664877035,1.290993831850112,1.1130757758224372,1.1467941407634659,0.9313074364130223,0.8948474092110129,1.9687950736618876,4.70373673122635
1570179630206588.0,2.6363994196493366,1.2940966657819024,1.1129840887100513,1.1550791227907995,0.9357521150393906,0.8973628641182795,2.0261931283739982,4.734016049536996
1570179630206588.0,2.6436537256244788,1.2971669809227946,1.1111813350572126,1.1638963906427666,0.9392080084909519,0.897744684938225,2.078111437195621,4.759731215068241
1570179630222687.0,2.6418391742219036,1.297583489039302,1.1067551711151928,1.1674041318911497,0.9411846207850749,0.898676160888332,2.1077168889413413,4.763242408870666
1570179630222687.0,2.639789750429314,1.2994268317364608,1.0986815402429446,1.1671721466194016,0.9449335073495854,0.8999381471920971,2.123429302280539,4.75962049662373
1570179630224540.0,2.628065446039097,1.2998246039126817,1.0892637755312813,1.1631749532433622,0.9496615072610036,0.9003692099415188,2.138041845434559,4.756558030083028
1570179630224540.0,2.6257336708031804,1.3004068744508495,1.0817223334773807,1.1569136566664555,0.9505867364776882,0.8978893370848844,2.1485539222757364,4.759082087085024
1570179630245479.0,2.6229896649042495,1.297227680423842,1.0774575075921347,1.1488303437786533,0.9478186447450254,0.8937056179611363,2.154790562182852,4.751504910039335
1570179630245479.0,2.6262925844159914,1.2913039902243437,1.074237840297326,1.1427869550716747,0.9465132512771803,0.8889081890596069,2.1621859596073865,4.72047166362258
1570179630246475.0,2.619902582497726,1.2815754159665564,1.0688810908626383,1.1350821629352665,0.9478066134566607,0.8863828397616069,2.17258182260717,4.664705177394132
1570179630246475.0,2.61730118842468,1.2725115812318253,1.060076660927951,1.1262682864930174,0.9501282766356105,0.8859736165476589,2.1818780404285407,4.606864277193879
1570179630259445.0,2.6058933906179296,1.2613558748613196,1.0492052319716374,1.1153274975863763,0.9521724083805373,0.8874538121976859,2.1893381150910374,4.542322432898009
1570179630259445.0,2.598458039627619,1.2518728502169538,1.0378537626728763,1.1068660604896023,0.9541313005323702,0.8902829801546975,2.1944511984666897,4.474679161851217
1570179630266430.0,2.583318650039032,1.241764644193171,1.0284902883208558,1.098177875023238,0.9557247223898833,0.8942161647934737,2.1975102751296367,4.400035600783169
1570179630266430.0,2.570880198611232,1.2347239646437629,1.0221324474857296,1.0913183170921044,0.9580972115424481,0.8975121955244066,2.198803973787817,4.332439780594302
1570179630282595.0,2.5472441023216135,1.2297015069139259,1.016831730501219,1.0843635368549884,0.9631083080032323,0.9015236436733619,2.1996432336446894,4.267659802950251
1570179630282595.0,2.5261310703067976,1.2275876364297873,1.0090001057746134,1.0784222395496061,0.9712330552150948,0.9069045467926172,2.2022935608931506,4.212402103771371
1570179630284381.0,2.495212568494584,1.2225885294379917,0.9973790065340505,1.0719359307862009,0.9804357781257413,0.9134165103998296,2.209925311572405,4.159605772917314
1570179630284381.0,2.4685127256970016,1.2171388472956883,0.9838289292424416,1.0674381970631794,0.9890322495735498,0.9194481851893411,2.2197819967632615,4.113389976127719
1570179630305560.0,2.434970955716643,1.211746040403699,0.9708671114511507,1.0623760760198848,0.9938562281208814,0.9264102450738911,2.2274193515857506,4.065047465463126
1570179630305560.0,2.4077929210803366,1.2104198241740567,0.9586460513408691,1.061105984841068,0.9937972294734607,0.9341126918090038,2.232243117141593,4.023497210643639
1570179630307000.0,2.3745821363721555,1.2102514326308942,0.9485332001370222,1.0614967343203363,0.9912411228761536,0.9411594910125892,2.238880312080363,3.9847084213898625
1570179630307000.0,2.3478413896176042,1.2139873198392968,0.9403892847639918,1.0637172760065294,0.9893866320584109,0.9458863183356316,2.2472138344470682,3.9565129098304768
1570179630319475.0,2.315400418975616,1.2189933644587012,0.931201025585883,1.065512243091842,0.9901345310257726,0.9485033343746476,2.257068324910614,3.9343663696930133
1570179630319475.0,2.291924970898806,1.2267309026397846,0.9205406697078827,1.068253624758685,0.9941618741079336,0.9502031783917716,2.2690642553117746,3.92659761411001
1570179630326397.0,2.2672431045630663,1.2342497112408366,0.9115567157653593,1.0686475058768625,0.9975324556862568,0.9537341612694131,2.2809937738585195,3.9234064214153683
1570179630326397.0,2.252863393119761,1.2416412173905726,0.9052049164157244,1.0675202757988134,0.9972333707489035,0.9578858875254446,2.2862069317819222,3.9218094736470603
1570179630342419.0,2.2367324229481573,1.245170818709386,0.8990591304052628,1.0625842530015452,0.9945587120947056,0.9631210789075604,2.287834186407237,3.912854887605185
1570179630342419.0,2.231672443673951,1.2482370705852852,0.8909251930922687,1.0590523070680942,0.9918295702638187,0.9692139528801733,2.290788108684035,3.9004687470426216
1570179630344216.0,2.2226410976216675,1.2498751680227802,0.8833445047803467,1.0545906866097998,0.9887816675770329,0.974776783744034,2.300895965187407,3.8830147504746324
1570179630344216.0,2.2186241701573977,1.2526029920638557,0.8779289792612094,1.0499395861544771,0.9867638899979063,0.9790323045566818,2.319891468027684,3.8715169605602746
1570179630365390.0,2.2107347642058475,1.2542983923200033,0.8740717927470102,1.044623151741469,0.9847964349205737,0.9835938449777781,2.3401308277197272,3.858407839531364
1570179630365390.0,2.2109528563058545,1.2572520520235513,0.8717337957563578,1.0408824905553058,0.980146712576273,0.9872181021526963,2.343463257473553,3.8414066122426735
1570179630367154.0,2.203284148219237,1.2593259642569934,0.8701639070752129,1.0340010303031717,0.9719869160846831,0.9884047490710332,2.327585278787495,3.82035654216044
1570179630367154.0,2.1977289886243887,1.2627636957424655,0.8689125602121535,1.0265055656727646,0.9622800618236814,0.9860430831666748,2.3050274322582496,3.8092835485650176
1570179630379122.0,2.1853440709503356,1.265452561988459,0.869211345177466,1.0168188070961004,0.9535833750976103,0.9823521350583014,2.286218106429976,3.8024747001815076
1570179630379122.0,2.175677211067661,1.2696187718182308,0.8702607979653795,1.008130978955259,0.9476955604478148,0.9786906526234707,2.2686108415999353,3.798457104668129
1570179630388102.0,2.1587047749903023,1.2732059060248724,0.8709071364934944,0.9992739123064409,0.9424576963786467,0.9771469860914321,2.2532195927462593,3.7906572121997395
1570179630388102.0,2.149013530105828,1.2784548970447087,0.8717585049178614,0.9930265133463922,0.9380676495479637,0.9756805095369269,2.2400360673553172,3.7875062227891942
1570179630403112.0,2.1373798626087566,1.2835437838337083,0.8740697909857486,0.9873509038675183,0.9343568609115677,0.9718098067057825,2.2259112027302304,3.79055940452741
1570179630403112.0,2.1351053253086567,1.290089708519806,0.8779428050468291,0.9841500574421879,0.9296428402335928,0.9639891129115479,2.2073807538027768,3.8066533656373878
1570179630404456.0,2.132474647641202,1.294738173434394,0.8837056470793195,0.9800831415182651,0.9232358571647316,0.9553500298326346,2.1891182137623857,3.8312044658879074
1570179630404456.0,2.141408398791143,1.2992076125087866,0.8895735273017049,0.9767571318218171,0.9172703182541461,0.9475421793678085,2.171512979502689,3.8646154397518986
1570179630425177.0,2.1532737117083465,1.300981462805873,0.8932054443955848,0.9694847857985768,0.9135716192273803,0.9407581745221191,2.1557663577689783,3.9056238619551533
1570179630425177.0,2.1761381073585864,1.3026076160595637,0.8960673274818769,0.9592990296730716,0.9127908906612244,0.9331880641841768,2.1386455295259688,3.961211760578536
1570179630427078.0,2.1984285944480155,1.3032853384647443,0.8995390046025831,0.9454928638348283,0.9128153908175813,0.9254094189435971,2.1198678313748376,4.020259996245613
1570179630427078.0,2.2240732685601388,1.3048629557455236,0.9025552491827046,0.9338173722009646,0.9118268196037123,0.91658644053011,2.097828205888346,4.068824317084165
1570179630439013.0,2.2408769531714485,1.3037430524160079,0.9060964168837159,0.923036654024295,0.9092645205954638,0.907258907945269,2.075511743060464,4.1049388632485355
1570179630439013.0,2.263465822915094,1.3022235080284241,0.9103445503017457,0.9142237052788579,0.907324899590083,0.8973513926974366,2.0526302984790368,4.144266699226486
1570179630447944.0,2.2844245297845287,1.299186463433637,0.9144494693309764,0.9035591073386622,0.9059342893483902,0.8896847280430134,2.030852140798786,4.184450209162451
1570179630447944.0,2.31164798633731,1.2968507094460249,0.9172916870152694,0.8930477463433942,0.9043358194621348,0.8841922565884452,2.009660221436865,4.2265501170477435
1570179630463002.0,2.3339723633394223,1.2937100950965075,0.9186228381365108,0.8807305631157736,0.9022260747381707,0.8797652955914567,1.990941500448773,4.26396230128926
1570179630463002.0,2.3523583799288748,1.293594347787134,0.9202945562879281,0.8703666411554901,0.8997905327786585,0.8753587186576529,1.9697628398057152,4.286813989511169
1570179630463897.0,2.357678848821845,1.294372634693161,0.922679256584097,0.858889122091158,0.8977577166357575,0.8728581335068463,1.9480806860704356,4.29659427084424
1570179630463897.0,2.3642917377094874,1.297493241304248,0.9246608584351365,0.848231957024693,0.89652263358281,0.8700216140968609,1.9263146655540555,4.307287271550348
1570179630484962.0,2.363336552567113,1.3001167369091684,0.9272063755111118,0.8371075151788177,0.8938754780494413,0.8649885929063975,1.90328120054606,4.318053008471497
1570179630484962.0,2.3656225424000192,1.3031420501500848,0.9304706708801629,0.8273535052578628,0.8898324379453936,0.8585118088791883,1.8764011233862572,4.338076399207349
1570179630484962.0,2.363605893634224,1.304129293074475,0.9334573927501203,0.8151653755216095,0.8851379944763795,0.8525203263699215,1.8490873423886427,4.369570010361622
1570179630484962.0,2.367235625724022,1.3041911137045625,0.936963512388582,0.8030599178578527,0.8799806371236111,0.8453175496292652,1.8194137704272992,4.414307926627473
1570179630506998.0,2.3676484233075876,1.299691402192807,0.9421464891811745,0.7906100585767579,0.875115689931071,0.8382334391228746,1.790127451799321,4.4641018037071785
1570179630506998.0,2.375110546581419,1.2944975446322213,0.9501585023522044,0.7815745083972472,0.8708717401552745,0.831713403173249,1.7622441795298773,4.518824902194604
1570179630507781.0,2.378586492078335,1.2892855468471707,0.9605826149773347,0.7742988485126754,0.8650259777365868,0.8274045622892937,1.7375994320689268,4.569237463207389
1570179630507781.0,2.3841334293076737,1.2866052999565516,0.969578232644962,0.771272563793849,0.8585435080653298,0.826090431575207,1.7146049183942278,4.611297919520208
1570179630521787.0,2.3873412755632217,1.2835852029620323,0.9749691685865278,0.7699855371407172,0.8533242315848659,0.827711519326861,1.6954109067768077,4.6436344482666705
1570179630521787.0,2.4015603930636344,1.281951042002981,0.9754062979643553,0.771234495812079,0.849590467784742,0.8297587769244624,1.6745452379860235,4.669926371876924
1570179630522746.0,2.410636177478488,1.2773589560684266,0.9711934686506433,0.7732167136742916,0.8482634707476735,0.8324267140603651,1.6511643195479422,4.681402689326588
1570179630522746.0,2.417559887100632,1.2702318470016531,0.9668696493781925,0.7768202834850569,0.8505169824513357,0.8362953868983108,1.6261454997217841,4.68513177591495
1570179630544678.0,2.4126345207593887,1.2597906909675225,0.9651126321436271,0.7791487368744403,0.8553257242847453,0.8419872723410406,1.604433809064668,4.678685087057097
1570179630544678.0,2.4074593237785162,1.251065033894019,0.9642482691853479,0.7815534592923973,0.8606823960902731,0.8472875260478318,1.584074598600811,4.665590106027737
1570179630551838.0,2.3932120621622457,1.2420467916274038,0.9631960547239675,0.7822627181239815,0.8655564060074072,0.8502324628464878,1.5635038092881306,4.640566160730945
1570179630551838.0,2.380018437644123,1.2340255673490577,0.9627988862420678,0.7835583338668619,0.8699384963288482,0.8530192464496984,1.5398202449902902,4.6129630723517465
1570179630566924.0,2.358705975929901,1.2244503006941447,0.9634319258893371,0.7852164661567307,0.8738826657449746,0.8593995033693882,1.5184096821975714,4.581130867845066
1570179630566924.0,2.3393144367552847,1.2154886249562953,0.9630907705254839,0.7880252455531743,0.8783907312385942,0.8675837380676285,1.4988684903124996,4.540424826330082
1570179630567633.0,2.3142459440559042,1.2046960142243501,0.9615160323629754,0.7894359137900723,0.885504848764987,0.8740342407351803,1.4796577779266156,4.474828990279513
1570179630567633.0,2.296344259125564,1.19399803231081,0.9595997202923493,0.7905791545215685,0.8940621219809856,0.8760739872323081,1.4588841883365444,4.401394356464839
1570179630582048.0,2.2750276122533166,1.1814313443428346,0.9574684032551736,0.7908796056973106,0.9022221574196654,0.874643043681551,1.4390008521171966,4.323771830709719
1570179630582048.0,2.259512184640244,1.1705296554274733,0.9550507568927902,0.7928484500462112,0.910934830846736,0.8711644868417915,1.419566517917126,4.250148810031097
1570179630582584.0,2.2379967998443777,1.1592439196219584,0.9524240140337339,0.7953869296494331,0.9202713283628843,0.8670088216510506,1.4020352746739688,4.178288753250886
1570179630582584.0,2.2178739283411995,1.1511018326693638,0.9495761931627101,0.8000779795706972,0.9291777476334827,0.8627231032914193,1.3830907882177401,4.115668196592844
1570179630604570.0,2.19225874921367,1.144413068251577,0.9456779314069821,0.8040359292833197,0.9388348696370766,0.8598218338677696,1.3655846377680445,4.049209054768379
1570179630604570.0,2.17533060225595,1.139515081446191,0.9393245535251348,0.8061779149161468,0.9490272869997051,0.8580538645562419,1.349702007237515,3.9850940628477023
1570179630605520.0,2.157191496486946,1.1337482748660814,0.9321240917503061,0.805768831279202,0.9579681778314699,0.857938864464227,1.3368901530326547,3.9220049707416282
1570179630605520.0,2.1468487243840806,1.128402742465383,0.9263264690483618,0.8051152671101877,0.9656826765631975,0.8582483400338795,1.3235697301534857,3.8703252696913975
1570179630627486.0,2.1353285764796746,1.1199908741738924,0.9204817622935054,0.8031606489476613,0.9733274872971623,0.858308856380602,1.3110002463566128,3.8235036155846496
1570179630627486.0,2.1308294739317746,1.1118906853078254,0.9121098689595514,0.7994011750517518,0.9808026059852323,0.8576748555704808,1.3001317814895197,3.7884682198004778
1570179630627486.0,2.1199604750765824,1.103368552567326,0.9027178329680478,0.7907789825735779,0.9892758562392502,0.8567613439749067,1.2922452736140222,3.762084381036128
1570179630627486.0,2.1138858687434183,1.0972780327599865,0.8944691916252147,0.7800772665163261,0.9995445756259498,0.8542501200145115,1.2849084574312,3.7480436625516504
1570179630642420.0,2.1036200022654774,1.0911797206506804,0.8867624559009316,0.7667076500969661,1.0107037524782838,0.8493634718418744,1.2791568068778527,3.727985932021708
1570179630642420.0,2.0963526083477513,1.085679992797578,0.8784124292598527,0.7537307974000559,1.0217117808265412,0.8414428092149805,1.2744966469166457,3.706668356465284
1570179630642420.0,2.0841762332285247,1.0798223116240322,0.8692674084828982,0.7421520327708965,1.0317613362439446,0.8315033492251054,1.273988154884953,3.6869251709386917
1570179630642420.0,2.0759173175268253,1.0774495512755675,0.8600347477884451,0.7337534511217114,1.0389226860150598,0.8220089966150458,1.2747366770855473,3.6755350028765488
1570179630664409.0,2.0617049556333913,1.073967745513694,0.8528189047425494,0.7275234413305073,1.041461969805084,0.8147223768066916,1.2732122238225005,3.66107978760171
1570179630664409.0,2.05372839831482,1.0699164619944845,0.8489950244816211,0.7248570624144779,1.039411241295571,0.8084013048215813,1.2675373697022367,3.649972889377449
1570179630665363.0,2.044741491739397,1.0644934342285195,0.8469800807975493,0.7248877549836553,1.0356720328232087,0.803387807194644,1.260480305695407,3.640321314035652
1570179630665363.0,2.0425550961449637,1.0615413428601939,0.8444989016554932,0.7279244266021764,1.0331098696054122,0.799352635357045,1.2516231812682612,3.6427445359226684
1570179630687299.0,2.0387967785816987,1.0593743248724343,0.8424040823912844,0.7300368340622622,1.0316971967659552,0.7975890651228206,1.2441629349732672,3.649372434600526
1570179630687299.0,2.043886659986693,1.0579269091432015,0.8407663595669671,0.7305543411982527,1.029485557300281,0.7990034063991022,1.2377786192052633,3.651413473704998
1570179630687542.0,2.0438344457188564,1.0516380477816587,0.8385439801653867,0.7304300072138117,1.026400653285858,0.8030161256216056,1.2327071073683742,3.634818600136659
1570179630687542.0,2.0428419003509357,1.0423813085030311,0.8365485719605494,0.7315513474679906,1.0234474997576264,0.8073851836197663,1.2279273906410964,3.606104385326615
1570179630710332.0,2.0343040498817246,1.0296151115203416,0.8369100480410117,0.7333150762044497,1.0215640111824316,0.8121923959445383,1.2236805048897543,3.5629829280035823
1570179630710332.0,2.0320157388023667,1.0160289943005973,0.8398023282322851,0.7363657580148294,1.0199295239760042,0.8173261585578562,1.2174426774417617,3.5226269906791794
1570179630711233.0,2.028039735104171,1.0014446803955364,0.8442600720249976,0.7411854270852631,1.014516127866189,0.8209487182590466,1.2115188421572094,3.486396140359707
1570179630711233.0,2.0274831376906612,0.9892532143240833,0.8512585670004404,0.7474973647264701,1.005151427596618,0.8227876771317215,1.2074664826154846,3.4566973565579286
1570179630724203.0,2.022858361027881,0.9765301231312855,0.8608737339502114,0.7527298476639775,0.9955049508947554,0.8239697793809101,1.2059468174630557,3.4236689204566275
1570179630724203.0,2.0270439173382724,0.9660775468006284,0.8710866769751716,0.7581814761239417,0.9877238826646147,0.8243484956752232,1.2041690649659782,3.3939397263873605
1570179630725198.0,2.028435848316876,0.9569836840893872,0.8808740739355259,0.7645187374248238,0.9817463800802925,0.8250222073680689,1.201410097209646,3.360622683035198
1570179630725198.0,2.0286501110054314,0.9498545781813197,0.8912354413095314,0.772183877002819,0.9777323465851503,0.8269284255555578,1.1981945078283334,3.328821469143298
1570179630747142.0,2.020485058412942,0.9417497055480436,0.9031823805270105,0.7799181405615,0.974610505738517,0.8292403319953955,1.1986265921752315,3.2952647637845285
1570179630747142.0,2.0170356193447687,0.9359821987394997,0.9157295872615899,0.7870063373920682,0.9724601249653604,0.8318298796339244,1.2029862793193806,3.26721649931941
1570179630747142.0,2.0111760954049838,0.9294807633330241,0.9269178732386714,0.7941447409765898,0.9712691176527114,0.8348353656871438,1.2084373123830816,3.2340738173895978
1570179630747142.0,2.0120656116090254,0.9217572978022012,0.9348412296593942,0.8007912368541424,0.968250745452721,0.8371634020578799,1.2113535477081647,3.1995478279839435
1570179630762105.0,2.011360602776337,0.9126197539196996,0.9405649910934585,0.8036088250654204,0.9611774970281073,0.839868265990979,1.2157519901658094,3.1610432881030417
1570179630762105.0,2.0165546122695623,0.9063662594567146,0.9480973854607166,0.8046844177740238,0.9499528212361864,0.8439213733380649,1.224711760381903,3.127251651701884
1570179630770127.0,2.0196381872495337,0.8998309118461023,0.9594076307442665,0.8057793119456776,0.9361361815560276,0.8475205919344192,1.2386538494139214,3.0955667047657895
1570179630770127.0,2.028947312258863,0.8942740380779637,0.973490859406534,0.8052893756617778,0.9227828303944945,0.847587380184335,1.2535088196721436,3.0713556813930953
1570179630785037.0,2.0340808148648093,0.8882027304861242,0.9893731642573301,0.8036716261172208,0.9108175789915248,0.8450972334319339,1.2643924299494504,3.0490691622097605
1570179630785037.0,2.0404871037389123,0.8820302032324869,1.0070912760824318,0.8033437930377372,0.901430979250287,0.8409404633309205,1.270634380383117,3.029580391644699
1570179630785037.0,2.038347485625041,0.8751963790658878,1.0247256812258585,0.8030511475293397,0.8946255558361756,0.8341832587691693,1.2786099814486434,3.0019430911918494
1570179630785037.0,2.0321814524378614,0.8709601230982427,1.0395202211976748,0.8030729474387118,0.8895193425203266,0.825569786095337,1.28878940440387,2.974998885779184
1570179630807220.0,2.0132602670637665,0.8648252301816614,1.0506936176517967,0.8041214228883288,0.8860160002347051,0.8161748983575934,1.2976809382628858,2.9498265406468382
1570179630807220.0,1.9956168251647342,0.8570257660125006,1.057416623021597,0.8055833784387898,0.8841750180170675,0.8068321141083805,1.305373210387597,2.931961231042078
1570179630807976.0,1.9721743604043547,0.8470719817275709,1.0577590258894585,0.8070953024215995,0.8839487061685278,0.7996933967084624,1.3135252430413238,2.9165506024779404
1570179630807976.0,1.951810029137129,0.8379947095601904,1.0534467899882072,0.8099945324389701,0.8843485451078265,0.7947800791867808,1.3206886628548844,2.9065522378899797
1570179630822151.0,1.928487731990334,0.8282254541705215,1.0482942501178851,0.8130855976090001,0.884359190131526,0.7911757105067212,1.3281702482820608,2.9008327827079645
1570179630822151.0,1.9118810743176275,0.8204227780758719,1.042260538548264,0.8156438665180661,0.8849799164866483,0.7888566997612393,1.3367235622018294,2.9060634692940566
1570179630822935.0,1.8945013264001116,0.8137630212650592,1.0362029127269625,0.8173755071762586,0.8882302782660487,0.787848171995268,1.3460362920791165,2.9177072011419165
1570179630822935.0,1.8843016861439088,0.8090420062531875,1.0321608751243618,0.8185984059879288,0.893982794724504,0.789201104538433,1.3545976389026082,2.9343468200040874
1570179630844881.0,1.8702681427593089,0.8047450155925239,1.0283474238715022,0.8180751843320085,0.8992696386351579,0.7928122853474534,1.3638244353412121,2.948042264231004
1570179630844881.0,1.861321581032404,0.8015241175285878,1.0225935103041102,0.8140689146478033,0.9031165949967727,0.797763978978865,1.3725939008685195,2.964783868469332
1570179630844881.0,1.8524835028533588,0.797201732438174,1.016662018950244,0.8069184683869899,0.9066247859214536,0.8039231327254797,1.3791364094439353,2.986534291480937
1570179630844881.0,1.8515793352903127,0.7949323052748883,1.0136309704857736,0.8008707545634831,0.9097349360129818,0.811429576633823,1.3846400613497443,3.0126766673640115
1570179630866999.0,1.8463957175689087,0.7952434278241403,1.011925512478118,0.7968118427054344,0.91354802858921,0.8200434956418556,1.3917859472190826,3.0352765241980597
1570179630866999.0,1.8425881180970591,0.7984111424703052,1.0064460280036225,0.7922184286881722,0.9179129666823682,0.8289271190571491,1.3995569042590514,3.0599734415790127
1570179630867826.0,1.8305242924499572,0.8007162309146121,0.9976789980964373,0.7855391722934205,0.9219628921807019,0.8369874271600055,1.405467230554109,3.08713577698729
1570179630867826.0,1.8181935161824925,0.8038574385346369,0.9894633954638397,0.779023170825531,0.9256551391332387,0.845641227312995,1.4083643945826099,3.1168154852621317
1570179630881885.0,1.80053983189977,0.8070081432229578,0.9829552927420532,0.7724101528088909,0.9301304528076078,0.8565348626684458,1.4135562857893746,3.1518757041646963
1570179630881885.0,1.789222156795097,0.8102656947283168,0.9791721674606603,0.7659342255391445,0.936193615692131,0.8696039390175706,1.421441973994838,3.1981663766182127
1570179630889897.0,1.77595041073775,0.8123632605593476,0.9793171704763824,0.7613525465020964,0.9429004594922552,0.8814373336767028,1.4295811011596544,3.251718311268495
1570179630889897.0,1.767408433608386,0.8133794415035747,0.9825469998314293,0.7589941441819634,0.9491765935476401,0.8897358870241295,1.4384681843535503,3.3115624421717866
1570179630904825.0,1.7558957952308571,0.811420801965238,0.9869792477719176,0.7577010737988354,0.9541724408602287,0.8957045853120265,1.4471567293150338,3.360451848310713
1570179630904825.0,1.7480804902326406,0.8101654750625189,0.9896245303459522,0.756582618698117,0.9559318071581998,0.9025826614492317,1.451783585442482,3.3838826282688474
1570179630904825.0,1.7363791517710436,0.8104634522393214,0.9883225531660891,0.7545431826557322,0.9557369582481449,0.9099061897812938,1.4553194100661657,3.3926382077696178
1570179630904825.0,1.7297577937416726,0.8116917739663013,0.9847782598490986,0.7526145467303617,0.9574113169131261,0.9180674479634394,1.459073176358218,3.4047362592732884
1570179630927057.0,1.7212092019765461,0.812467167714924,0.9820026904971861,0.7518532073638591,0.9618174398513303,0.9276566336820714,1.4580371210343364,3.405109686478967
1570179630927057.0,1.7177787076992443,0.8149005006669615,0.9801425036232981,0.7532068376613671,0.9648554150396182,0.9379024393841211,1.4490171900091509,3.3817745830521133
1570179630927654.0,1.7116877336827108,0.8174246789247159,0.9772352258681017,0.7567846093072115,0.9638488856190934,0.9486581777401316,1.4377002241257941,3.3433102195917104
1570179630927654.0,1.711041148969939,0.8196810628861324,0.9731016198282222,0.761371679782338,0.96079424797022,0.9610708194642389,1.42599201743852,3.307691225196108
1570179630943617.0,1.7069322979829396,0.8215804962035415,0.9696854681018575,0.7672488895269387,0.9566749974214598,0.9727551911905205,1.4136420148882523,3.2695297899728306
1570179630943617.0,1.7050075309056163,0.8242453950358765,0.9690452714918696,0.7741087753914471,0.9514281673181965,0.9833725047768148,1.4006574154759281,3.2344129414040594
1570179630944610.0,1.697018286204291,0.8256631424868484,0.9713553831957104,0.7833496241353759,0.9460336806872504,0.9946378796446851,1.3889713790965597,3.2027423650284197
1570179630944610.0,1.6910133983082407,0.828391333845799,0.9746554240832128,0.7953173836457698,0.9394384737093966,1.0055673620729295,1.3771782461465591,3.1763402148109963
1570179630964653.0,1.6825099718008,0.8322791712362025,0.9779231535169014,0.8082307402294208,0.9306591484474909,1.0122067071598635,1.3646517747564073,3.1546577365487636
1570179630964653.0,1.6777173198719906,0.8359597243075175,0.981128928879748,0.8187174314465553,0.9206338238570702,1.015320865683522,1.3521181406945701,3.1427188949854425
1570179630965555.0,1.6683920676695772,0.8394247050820538,0.9842854455206053,0.8265747458524966,0.911306566174292,1.0176828094214487,1.3427883954129567,3.1309370571898603
1570179630965555.0,1.6636196804063668,0.8444861054567755,0.9873870064841885,0.8314848114177757,0.9026274142152664,1.020376894332954,1.3356551273750406,3.1175942652362414
1570179630995622.0,1.6575820062577467,0.8506915352060854,0.9904505693158998,0.8341073892886776,0.8945994057656516,1.024136962394683,1.329961823997072,3.1033947924694893
1570179630995622.0,1.6557413317974847,0.8587441114553028,0.9934688858802992,0.8351606334257778,0.8881585000485277,1.0290267882228994,1.3210062850700552,3.0923080357256643
1570179630996476.0,1.6458708400299622,0.8682991312306377,0.9974442310932069,0.8381830715125927,0.8823041944421324,1.0338988937876128,1.3070555083686686,3.074195448695753
1570179630996476.0,1.6344934387356709,0.8782103488334055,1.0034128606640857,0.8443800115948178,0.8759969249932883,1.0389672716967913,1.2904020710736714,3.0558571954127216
1570179631002509.0,1.6192583583373923,0.8847723212539187,1.0094529912299801,0.8530590837421982,0.869312999954546,1.0440912562228724,1.2739858155757442,3.0297629611462136
1570179631002509.0,1.6102212014625819,0.8879132702785676,1.0135692853727019,0.8626689946660587,0.8632279514852864,1.0494367541574192,1.2581987990193302,2.992626539932885
1570179631002509.0,1.602479534772561,0.8897793436221405,1.0167372275611617,0.8737557795145143,0.8598148093543565,1.0548793555275322,1.2441366877702178,2.9523502773715533
1570179631002509.0,1.601175639574549,0.8931817855676258,1.0199577675742246,0.8846648859090815,0.8598180174364103,1.0595648747886515,1.2309590944553603,2.921086263530995
1570179631024579.0,1.5972944802086062,0.8968710456270379,1.0232559365028562,0.8951390153486075,0.8611457143867122,1.0615159406042303,1.2206283137746428,2.891389894336836
1570179631024579.0,1.5969990009794048,0.9012259649127959,1.0266390833380858,0.9046615191453218,0.8607033315617443,1.0589508767720974,1.211759799008574,2.864846155442988
1570179631025484.0,1.5928082506846797,0.9068701042429568,1.0301205634488615,0.9128570372922312,0.8578308154144917,1.052828811305729,1.2048454987102197,2.8355702555090385
1570179631025484.0,1.5901100212022918,0.914412012176487,1.0346926176198283,0.9184572100691212,0.8535964295227056,1.0470124986140807,1.2004314904503737,2.807059137063404
1570179631046816.0,1.5841409898396346,0.9236092484999864,1.0413946624219383,0.924140563752161,0.8511582402163462,1.0433791284678395,1.1986866389819675,2.781860180231307
1570179631046816.0,1.5817803241666557,0.9331111257380966,1.0492888961465856,0.9301418523075538,0.8500568358419485,1.041903226111678,1.1970419371733196,2.7623576506021603
1570179631054321.0,1.5763677853962808,0.9403609751026583,1.056452817830789,0.9349831411552063,0.8485996125867045,1.0416041854121025,1.1949337911834181,2.739221989820033
1570179631054321.0,1.5762361908605425,0.9455375372451451,1.0609282033798966,0.9383654817525605,0.8477704248757622,1.0405119570391015,1.1905572606272807,2.719420907403866
1570179631062294.0,1.5755643185093304,0.9489722092076539,1.0626666853718767,0.940705334078283,0.8487506683311481,1.0376498117594422,1.1839075581347263,2.6975244505211196
1570179631062294.0,1.5791949613339744,0.9539773094994953,1.0645703657632246,0.9407109356856582,0.8512474070327557,1.033929391537554,1.1771132227394068,2.6725922527481196
1570179631062294.0,1.5828386369264815,0.9625627902000824,1.0687007213819117,0.9398652367650876,0.8556147288900668,1.030350153443254,1.1716262037519205,2.647562933192817
1570179631062294.0,1.5902385652832467,0.9736041062218375,1.073154566439738,0.9387597147223484,0.8626039847046743,1.027825287062873,1.1629671473046972,2.626537302124882
1570179631084472.0,1.5892652924336705,0.98376851889344,1.0768964657229398,0.9387584882501206,0.873304546849895,1.0274359607475643,1.1495993715235315,2.600011237781093
1570179631084472.0,1.584781692789281,0.992308606488545,1.0828958274152365,0.9413949573503575,0.8870050261641585,1.0272009870331058,1.1339464044387202,2.569396359365674
1570179631085242.0,1.5748489736967355,0.9986828707033153,1.0903654308719863,0.9468065668933209,0.9027130994929166,1.0261632619778125,1.1208968363030911,2.5311986746039246
1570179631085242.0,1.5687610522511035,1.0041799917826262,1.0953531218057717,0.9525991976621628,0.9181214600862639,1.025261272447924,1.111774823409132,2.493273832732196
1570179631107292.0,1.5589447620493115,1.00943416487493,1.098732710662431,0.9582114764266423,0.9340254309586646,1.0226705090254122,1.1049217280246921,2.4532430753861
1570179631107292.0,1.5477144330614572,1.0150487156688794,1.1024754619662445,0.9623648706067396,0.9508378640784808,1.017195138077785,1.0962182404421643,2.4098429245551785
1570179631114329.0,1.5321761866828663,1.0197110405728982,1.1076313262222408,0.9645190917701364,0.9677924349651277,1.0098514095750528,1.08854325600385,2.363605996602097
1570179631114329.0,1.5231373205432628,1.0227760058348208,1.115364964468475,0.9644835180386266,0.9837374002966663,1.0003896167880204,1.0840437755178507,2.3199799848876177
1570179631122141.0,1.5134852360950855,1.0245342458947622,1.123078729534894,0.9635856726998974,0.9992740839290791,0.9907551129305755,1.0807042328598417,2.27030014264793
1570179631122141.0,1.5070122378972914,1.0266245457513161,1.1258851357571331,0.963501009936981,1.0141603685479263,0.9828505730497546,1.0756892125229025,2.2202864040671955
1570179631123133.0,1.4968948297856848,1.0276716220563815,1.122412532517154,0.9643789766372127,1.029746545105264,0.975920299802547,1.069117387320739,2.1725360084305874
1570179631123133.0,1.4866120113432797,1.0280191767337914,1.1161272140652019,0.9660062870550506,1.0442532629403374,0.9697587198680278,1.0611578368166876,2.1286401610816763
1570179631144290.0,1.4687975608923123,1.0282564748047078,1.1101301130906809,0.9695211011966207,1.0556039447341274,0.9646005806220332,1.0552534721362494,2.085653872707938
1570179631144290.0,1.4500103778237419,1.0272332555015828,1.1035333397422564,0.9726811623835592,1.0650947111716096,0.9582961980973063,1.051593757803467,2.0473495262653847
1570179631145528.0,1.4265791734306845,1.0228578408126077,1.0962475687830988,0.972824585884732,1.0748148407267504,0.9508354642462321,1.0476238409699397,2.01052071958327
1570179631145528.0,1.4078623027784833,1.017373179016843,1.0882813725394553,0.9699208284779347,1.0831215462123847,0.9430065553701285,1.0426406828198989,1.9791958523702293
1570179631167226.0,1.3895369898561163,1.011227004068433,1.0785269419654406,0.9660454023655118,1.087557944340227,0.9349521318461095,1.0369916255811233,1.9510830552332328
1570179631167226.0,1.3769280514833115,1.0051280054126692,1.067582696904121,0.9610523033915718,1.0865580281202676,0.9264524695582473,1.030061003878838,1.9244123039608372
1570179631168025.0,1.3639656208739424,0.9983869591112272,1.0573821878504912,0.9539994855026672,1.0828827208112048,0.9185864603444568,1.0251011936768524,1.8989413395989891
1570179631168025.0,1.3549941600103679,0.9915774044556787,1.049099012397181,0.9457944855293599,1.0800971494232923,0.9122689577408953,1.0232106324902965,1.8765479711643454
1570179631181109.0,1.3445951044401636,0.9848431183853398,1.0420117009160683,0.9383961061704541,1.0799026900022173,0.9066849097887659,1.02282284333175,1.8569406488824431
1570179631181109.0,1.3379179433048494,0.9801393256422615,1.035013151572623,0.9327312615535311,1.080821784846631,0.9016413332159101,1.0225847896129876,1.841343207911411
1570179631189955.0,1.3302346216599297,0.9761225760387839,1.0279921225755717,0.928812138533959,1.0830362344228832,0.8982687013338079,1.0226388041419416,1.8322570982156925
1570179631189955.0,1.3247491192217822,0.9724435124428167,1.0217861766915641,0.9265684901161243,1.085124160182734,0.8955162378623416,1.0237559088655601,1.828877941890342
1570179631203920.0,1.3145948966934957,0.968304865252848,1.0176256366763048,0.9250415497114162,1.084508069238739,0.892420516517578,1.026237195806652,1.8313318522291178
1570179631203920.0,1.3065526477896987,0.9644981977047284,1.0148347182840678,0.9231717419326688,1.0813131424659348,0.8898576162880892,1.0279345435379577,1.8389328804600387
1570179631205080.0,1.2989341696193315,0.9594357275104201,1.0105425051886952,0.9210274322832673,1.0766999180923462,0.8889105684297575,1.0279033888942593,1.8530342480951854
1570179631205080.0,1.2949613326931622,0.9526271249753685,1.003102266001182,0.9175314345360936,1.0704803894080528,0.8885572238006425,1.0259090896412817,1.8668450576409625
1570179631227047.0,1.288863191147892,0.9429639303172985,0.9951777604180613,0.9118010637370182,1.0627872018179927,0.8868377848373757,1.0239978223804496,1.8817912725448083
1570179631227047.0,1.285587622083755,0.931737153455005,0.9880254753318617,0.9057706548547312,1.0534881602790704,0.8816934675308592,1.0241486192514502,1.897340025700679
1570179631227856.0,1.2811004891289501,0.9201979561706999,0.9807612548093539,0.902515095073309,1.0437043820325895,0.8740840214805041,1.0255194473644573,1.9191269164796338
1570179631227856.0,1.2809827703830066,0.9086633668473085,0.9732382056320257,0.902844067041781,1.0351916288135476,0.8679867345995479,1.0280300274202043,1.946071791073904
1570179631241982.0,1.2842938122925551,0.8939102221859715,0.9654730562071083,0.9058284162120905,1.0278946092637962,0.8644594946731871,1.0307565026806724,1.9819009768075933
1570179631241982.0,1.2955749801973044,0.8779099710372822,0.9573526968722332,0.9092693267454204,1.020688954039331,0.8625681576109062,1.0316463472890194,2.0191328693001616
1570179631242815.0,1.3088154778861152,0.8620491190430681,0.9488638273964856,0.9134474198580613,1.0137067528972268,0.8633204628274044,1.0317004279186197,2.059016353166051
1570179631242815.0,1.319103099838535,0.8472447021691814,0.9398245804163974,0.9190502524566039,1.0078571073852554,0.8677820844962125,1.0309134324050222,2.0943154775404142
1570179631264908.0,1.3183278114235903,0.8337272919848476,0.9310676556060539,0.9242679139369816,1.0051482547741453,0.87578809713453,1.030299446054234,2.130428841067328
1570179631264908.0,1.3127773784617371,0.8235391216743454,0.9246304509337092,0.9270140154341564,1.005237106335604,0.8873754858949453,1.0328712716718689,2.165424243143613
1570179631264908.0,1.3054048117600547,0.8164146294264223,0.9209320615872307,0.9286832957199193,1.0061776924039771,0.9021640068548696,1.038555754359014,2.2091846633077945
1570179631264908.0,1.301299441948628,0.8123782998373649,0.9190041427412581,0.9310256074005012,1.006864542820583,0.9171075150857811,1.0453629574000782,2.25589080535598
1570179631286696.0,1.2959200094900778,0.8078832168207539,0.9189346588209385,0.9361752384234949,1.005443761084088,0.9283724158413025,1.0512363953027404,2.30804992000649
1570179631286696.0,1.2910691574242492,0.8017963558981267,0.9197962514538863,0.9426454357095693,1.000052547873668,0.938594934430042,1.0543275792264093,2.351599803465129
1570179631287700.0,1.282794762058256,0.7963312791504108,0.92054702722239,0.9457963310500883,0.9929362012316623,0.9513976075594323,1.0556456054129053,2.388706335018662
1570179631287700.0,1.273243354317556,0.7933584926676669,0.9210300136408167,0.9437647665809041,0.9858924830654279,0.965628799720151,1.0572147865105894,2.4216914770557576
1570179631301795.0,1.2624586732044614,0.7915186938866379,0.922245547934832,0.9408662924719902,0.9799634183313247,0.9772358897024902,1.0579451781600344,2.460180587272473
1570179631301795.0,1.2553359232745886,0.7921681706275596,0.9244830091872895,0.9396953254182441,0.9759127346830581,0.9848332744252613,1.0569453692941895,2.492640542345527
1570179631302744.0,1.2509108684097778,0.7951661927928032,0.9239355283214146,0.939366416572545,0.9727683454067807,0.9905313310878694,1.0541762206417546,2.5244482581143153
1570179631302744.0,1.251839624339756,0.7997802228241466,0.9189057598238437,0.9387133583539812,0.9704286550679722,0.9983150992997175,1.050706111060432,2.5569208615276966
1570179631324646.0,1.2553520046167346,0.8057391049187024,0.9130886739798789,0.938974211973321,0.9688899002428637,1.0067974297308555,1.0484177138707054,2.598246993110356
1570179631324646.0,1.2624472632541035,0.8132219630637908,0.9077415641024338,0.9398536549547113,0.9660359217459988,1.0123002128032557,1.0472867941669917,2.637671413422151
1570179631331786.0,1.2675276997748315,0.8220805009900222,0.901899804588417,0.940666877624229,0.9611033655763668,1.0139652554630383,1.0442621453512049,2.675423209832881
1570179631331786.0,1.2694599677208143,0.8324194861886003,0.8963755267049528,0.9432106467948432,0.9540949702673232,1.0129453007021576,1.0384854880780787,2.7032511501105025
1570179631347534.0,1.2705505143148723,0.8441685332765173,0.8923733648738947,0.9486011446891967,0.9471910533442657,1.0111018352077776,1.0318598449865437,2.7359002193339768
1570179631347534.0,1.2753412699521058,0.8554078363937988,0.8890499076199521,0.9555238002303884,0.9421143834597151,1.0084164023571163,1.0233804901525436,2.770806858380899
1570179631347534.0,1.2820419101173612,0.8641030545554917,0.8854332544864866,0.9642410646183751,0.9378852773744596,1.0038548194422556,1.0100429155762376,2.813474614464418
1570179631347534.0,1.2905480284180926,0.8722721973126567,0.8804709448986817,0.9734321488237357,0.9344716692167656,0.9983807718855411,0.9918792680715337,2.8579919865250956
1570179631362493.0,1.30012928284504,0.8809269187509446,0.8729274425430351,0.9824601237215808,0.9338970074668194,0.9939073504362158,0.9717935781755495,2.91111698818174
1570179631362493.0,1.3113893416902391,0.8881477473205884,0.8643973725564427,0.9901363692340821,0.9347443381798324,0.9904046466048837,0.9538030352432931,2.9652873408586498
1570179631362493.0,1.323912556633617,0.8939256872289383,0.857073948628743,0.9958645230609798,0.9352670898885356,0.9868773605862504,0.9398225754402749,3.026783008912095
1570179631362493.0,1.3380231074805313,0.8992977665879793,0.8500899143180008,0.9995306098397384,0.9362930250907456,0.9832912894197695,0.9288807363966232,3.0878736774784654
1570179631384659.0,1.3535581149494795,0.904260120989752,0.843294591836857,1.0013780236456178,0.9358038249687693,0.9796417541593944,0.9198164609129403,3.1536486325218736
1570179631384659.0,1.3696079959750642,0.9088611778884091,0.838675390642884,1.001288779210427,0.9310568704125005,0.9768674750872147,0.9117373127971944,3.21473007959541
1570179631385442.0,1.3852181211858219,0.9140738789554445,0.836579843669974,0.9984042999746688,0.9255559632788039,0.9769699809466691,0.9035909877741067,3.2747746201915113
1570179631385442.0,1.401317594372702,0.9199946411137916,0.8350694988011526,0.9936366187285423,0.9218986207248494,0.9799637784360409,0.8978022136343041,3.3275048481898435
1570179631407423.0,1.4160712555147266,0.9236684079494498,0.8330974998605378,0.9899033552427282,0.920080721398146,0.9829504160261234,0.8958765081707507,3.3823676413837727
1570179631407423.0,1.4254450325019683,0.9241309852664882,0.8295670720485766,0.9861966616590726,0.9197579933441913,0.9839408977293305,0.8967496397078444,3.4330281345206717
1570179631407423.0,1.4327380464288273,0.9232366430809394,0.8243039152491458,0.9805013340037836,0.9190327084560947,0.9839596578867097,0.8979603075875784,3.48457488791114
1570179631407423.0,1.4436894163272762,0.9220614048852321,0.8182215352911899,0.9738101199176199,0.9170956140052348,0.9829976140938607,0.899127004038098,3.529222864797762
1570179631421341.0,1.4584597878042096,0.920513689491185,0.811275239103688,0.9660131557209141,0.9172619230766956,0.980120410240182,0.901079477984605,3.57378465458416
1570179631421341.0,1.4717743033774577,0.9186888354688022,0.805377840586584,0.9561430777193345,0.9199404307503609,0.9761816588816241,0.9059979886736856,3.6108597682759282
1570179631429340.0,1.4821082294751888,0.9164710880231985,0.8008229557453238,0.9459103423460378,0.9243151309046506,0.9723051464874037,0.9116803328274282,3.645571071413769
1570179631429340.0,1.488206896284972,0.9139620525359001,0.7945749908606563,0.9374289083810338,0.9310364178000123,0.9675465581478777,0.9158533769542578,3.667426503041006
1570179631445271.0,1.4875415319171545,0.9110313132898592,0.7863864272423355,0.930568455236406,0.938974085492195,0.9581694581439519,0.9185419325801228,3.6768513572900257
1570179631445271.0,1.4839221469056791,0.9077817485375702,0.7781355822003609,0.9254851711828566,0.9460310139938617,0.9415483979469119,0.9213818550192538,3.667859059219718
1570179631445271.0,1.4836041847566321,0.9040598128758492,0.771906514643434,0.9210523049280046,0.9524985890765081,0.9221654216760055,0.9237707528225433,3.654412860950794
1570179631445271.0,1.4872020782278552,0.9009414160472643,0.7688502899622095,0.917370829128406,0.9561821358314779,0.9038342972447648,0.9265553941442527,3.6474839179903644
1570179631467357.0,1.4961955028351472,0.8993380930195038,0.7670696929701545,0.9143353669465817,0.9567943886195804,0.8868950436168744,0.9303340153725631,3.6580730698256567
1570179631467357.0,1.5108865620186247,0.8994108616988289,0.7644638207631732,0.9100973919726472,0.9552952306427797,0.8711986107892703,0.9373355361208706,3.6730084624713806
1570179631467357.0,1.529756048761035,0.9001447267923357,0.7629813513818203,0.9044273680082427,0.9529728171958531,0.8560091425800034,0.9448855036674597,3.6906888856797226
1570179631467357.0,1.5490806229821479,0.8977293709530374,0.7646488349866947,0.8984377811933516,0.9505036985420975,0.839995721781598,0.9511808464443681,3.7046005967202285
1570179631481439.0,1.569779907603552,0.8898741727969733,0.7674414698707905,0.8919408850704723,0.9480924236342109,0.824183303615393,0.9565018681055958,3.7231284064955448
1570179631481439.0,1.5899602229124072,0.8794460500331625,0.7673454379375237,0.8860615984021197,0.9464926169556551,0.8094418228132062,0.9640022518587266,3.7437087870466046
1570179631489309.0,1.6087111549028024,0.8692459629170798,0.7643848091158147,0.8807024207040495,0.9457588263729024,0.7959577989775211,0.9744913123133898,3.768354254906378
1570179631489309.0,1.6263273921975412,0.8614443853353038,0.7605598748012616,0.8730835082321426,0.9457764844051381,0.7846289201568516,0.9890223459541686,3.787402558652752
1570179631504319.0,1.6436832863709043,0.8570375917996477,0.7559025776487027,0.8618230501354885,0.9485101897685876,0.7766718624065934,1.0059831432198953,3.807150747061069
1570179631504319.0,1.661045108978923,0.8551848651882964,0.7524810080452051,0.8499194900879616,0.9512274021410947,0.7720895677464682,1.025265767146491,3.8234289554375285
1570179631505116.0,1.6779844258437902,0.8528170133108317,0.7512398366733395,0.8392220989295951,0.9505821786445317,0.7698976799433433,1.0419432488826397,3.8359817197697725
1570179631505116.0,1.684254502065332,0.8489169906097009,0.7512163012026065,0.8279976517679037,0.9479347221850496,0.7690435386886252,1.0535274941911186,3.8275751779201426
1570179631527278.0,1.6761258243719652,0.8464297936037091,0.7534157901638482,0.8148995901749471,0.9463794173801597,0.7694622158838198,1.061532823050297,3.797261093228978
1570179631527278.0,1.6621299949994885,0.8463736851190408,0.7577162608766043,0.8030016961426143,0.9453128762870561,0.7711893598048516,1.0713265892171875,3.7509473122433876
1570179631528056.0,1.6521362547384795,0.8467523220159817,0.763066255033785,0.7942558554764976,0.9430671605522923,0.7741092585425715,1.0835680169016342,3.7063508469660427
1570179631528056.0,1.6486235496279074,0.8465431871887615,0.769450064525385,0.7878349644934224,0.9407020092481866,0.7783152865209525,1.0977013501668536,3.666095622246102
1570179631541254.0,1.650698922000802,0.8468129604290698,0.7758109929303775,0.7816355131966826,0.9402105824338826,0.7836315647861721,1.1097334039198135,3.630710798318575
1570179631541254.0,1.650073177057795,0.84845870965618,0.7823612698662293,0.7746491416293658,0.9410356921381682,0.7901966181091423,1.1159593498753322,3.5941261362893817
1570179631550115.0,1.6403355198555538,0.8505485792660282,0.7899694035513558,0.7668500357435405,0.9411278175660336,0.7977702035139329,1.1144994422800123,3.56661259288297
1570179631550115.0,1.628283038306135,0.853015147182981,0.7976052081885369,0.7582203113576026,0.9366522170877167,0.8065192563398401,1.1113531257881852,3.5426566076450503
1570179631565014.0,1.6210072378576914,0.856930146313224,0.8054371341911186,0.7498963209251784,0.9294647450019363,0.816061339965236,1.1083315519116201,3.524980071661922
1570179631565014.0,1.6181383884396963,0.8610998471466347,0.814386390476291,0.7438336879681671,0.9221463285799574,0.8245735987059829,1.1086022398333493,3.5108244045785635
1570179631565014.0,1.6199926728408025,0.8647123776090623,0.823325497224779,0.7412228583402632,0.9138004196924533,0.8311742964382841,1.1131707057982487,3.504022910344407
1570179631565014.0,1.6250482226595702,0.8676487623748899,0.832531395972445,0.7417612680031713,0.9054490963653343,0.8381748643475176,1.1217476631528274,3.4997987128507484
1570179631586998.0,1.632782913921052,0.8700592483931352,0.8428000050627246,0.7456832430650765,0.899059347101579,0.8450537564320455,1.1323944670659627,3.502888908883694
1570179631586998.0,1.6415662981564434,0.8707953551028093,0.8530817599156938,0.7523928972080155,0.8932504531135844,0.8501050115901841,1.1470140876048773,3.5037847124783337
1570179631587890.0,1.650052066010381,0.8691186149115142,0.8634793297368625,0.7610304821076092,0.8884723971232412,0.8523829166711482,1.163553315594056,3.507351135473332
1570179631587890.0,1.6577117445328262,0.8659435854798004,0.8738331575561263,0.7680355584258932,0.8863898613392223,0.8532859102990487,1.18217998963918,3.5166365905478987
1570179631601854.0,1.6660672871841213,0.8623739684973831,0.8822460515686427,0.7735017321982982,0.8868762697983084,0.85249161144504,1.2015862982324754,3.5392347015462113
1570179631601854.0,1.668495755768605,0.8582522677433094,0.8892055469261053,0.7800555711999663,0.8886182666700615,0.8494785156492737,1.222007223422612,3.563699540394819
1570179631609903.0,1.6621793191555416,0.854717967855494,0.8956853076685143,0.7898159390838676,0.8918122734839629,0.8462771268851557,1.2429607909014824,3.589010492702136
1570179631609903.0,1.6546679161094748,0.8514943060214405,0.9017846028337717,0.7996349424548499,0.8951196182133517,0.8459673089503139,1.2662592160501216,3.604834771557333
1570179631624864.0,1.651126490142193,0.8468033995287807,0.9085354570056605,0.8074677781159301,0.8991348304106406,0.8488930931508197,1.2904696406681166,3.620358615962941
1570179631624864.0,1.646782414173403,0.8416198409656848,0.9167071153993371,0.8131079173829393,0.9053110935351452,0.8539219674564646,1.316953926521918,3.6381707088208524
1570179631624864.0,1.638475703528401,0.8380657741295389,0.9250565019560402,0.8182950733313514,0.9123947613707721,0.8576945181019775,1.341215427745312,3.6618034083931437
1570179631624864.0,1.6288426651011878,0.835852000181168,0.9327732057847146,0.8223935570698762,0.9182007460078078,0.8590080139057721,1.3626850448868797,3.6812753543819796
1570179631646886.0,1.6234715034185658,0.8351430292260377,0.9399126249404106,0.8270781274599842,0.9220618944499758,0.8599352172851837,1.3832517001627116,3.708209463094306
1570179631646886.0,1.622409069812212,0.8346540052208604,0.9464834390857857,0.8303762023785701,0.9210978273034637,0.8624769375404104,1.4059102826628005,3.7432417352474485
1570179631647937.0,1.625303242253122,0.8348247445842238,0.9513933922110882,0.8315635099518414,0.916616247233969,0.8650987320950733,1.430422883176771,3.7943436894686937
1570179631647937.0,1.6282115944700537,0.8373001016039879,0.9529023114173788,0.8333909479544422,0.9125380886894104,0.8672420832926154,1.4591094857878937,3.8552049684355754
1570179631661691.0,1.632510017015165,0.8420644466892974,0.9503852982070565,0.8389859003124969,0.911599710508722,0.8687139079158859,1.4893639271916002,3.9309294277987124
1570179631661691.0,1.6400291464336376,0.8466834342374703,0.9451421477609991,0.8460725090491263,0.9128227774799224,0.8699585201502528,1.521449798767714,4.011954916301638
1570179631669671.0,1.651788545785826,0.8506643359650967,0.939086682120863,0.8542814759540703,0.9143324416839701,0.8718259136692496,1.5539053405496215,4.101517155596845
1570179631669671.0,1.6664020577247036,0.8537382736544563,0.9330573773760686,0.8606614318871533,0.9150377795982458,0.8763871919478898,1.5867940827921383,4.1931290652193685
1570179631684804.0,1.6850284481201099,0.8563319486972525,0.9269218768616574,0.8636605009830173,0.9152803920781577,0.8817473295273066,1.6187463216636204,4.294965455079797
1570179631684804.0,1.7041063808197139,0.8581523091792599,0.9207208127937995,0.8652559619436213,0.9137699027083189,0.8855698122770231,1.652135537757005,4.399736596150984
1570179631685631.0,1.7253010798299964,0.8606466607874492,0.9154288930502192,0.8687653378643497,0.9102834585498546,0.8890664723329182,1.6848065652577513,4.512381142068274
1570179631685631.0,1.745861103132354,0.8641229426650772,0.9118691532902117,0.8721100198398551,0.9069442326933802,0.8943953554576922,1.7165323675492468,4.622779063433361
1570179631706571.0,1.7666751989284448,0.8667065801590554,0.9088452734914869,0.8761668192722029,0.9066628816561505,0.9009623546429172,1.7471708838546265,4.733753404907715
1570179631706571.0,1.7859526560228645,0.8653913516284335,0.9054786367646019,0.8798752199072618,0.9084201880262196,0.908977811635062,1.7784607142334856,4.831886966744048
1570179631707751.0,1.8016042541312771,0.8621588763546113,0.9018563359082895,0.882111160312275,0.9103857702624071,0.9169159586366941,1.808132135686005,4.920005728259898
1570179631707751.0,1.8129228388067098,0.859482261616317,0.8991291576982796,0.8824573767560853,0.9114780913056608,0.9243685732994281,1.8381234478341475,4.997748880117766
1570179631721675.0,1.8265701092339084,0.8574827944332337,0.8990443008088809,0.8816005207017684,0.9121477887032731,0.931116320680582,1.8681830691055317,5.075962523484771
1570179631721675.0,1.8432515900800994,0.8558091100026166,0.9001774073073725,0.8781405139668156,0.9121142425500495,0.9376318202675336,1.8956721827402931,5.147107484216092
1570179631729671.0,1.8597769319478976,0.8555506112377188,0.8996465576984836,0.8750931372322005,0.9117329541345142,0.9436821803925516,1.914652522850433,5.208538490962725
1570179631729671.0,1.866454887668222,0.8530416211255999,0.8978890875716988,0.8732357501624347,0.9106938008236379,0.9507588090846153,1.9247088311408598,5.250211961423005
1570179631744683.0,1.867101086958517,0.8474731975117489,0.8959612735310534,0.8709560246707384,0.9093303147274713,0.959152388277315,1.9296653545917135,5.290462029480238
1570179631744683.0,1.868100517607154,0.8417528898927304,0.895011844265631,0.8660808847225483,0.9072561504183287,0.9679574611013139,1.9379532394438876,5.335665909669685
1570179631745479.0,1.8690449042108621,0.8379678667636913,0.8968206638965477,0.8618788653488988,0.9037806511249289,0.9750226303521027,1.9471891568406552,5.381579618098557
1570179631745479.0,1.865099522475412,0.834381615919586,0.9008664253435342,0.8603690184945073,0.8980808327637048,0.9813852198102281,1.954639293058461,5.414169387729192
1570179631766606.0,1.8608581326198208,0.8308664223510488,0.903962478803263,0.8626987280613471,0.8929430191743639,0.9896440612430252,1.9603955685877328,5.446897953191372
1570179631766606.0,1.8579210273092541,0.8291961658612886,0.9048080003586061,0.8656175976684745,0.8906930727761819,1.0004428703289892,1.9657189318963275,5.473732737509024
1570179631774537.0,1.859350618579863,0.8314529197988595,0.9059388473553898,0.8685337328648569,0.8919471110202906,1.0110566505126992,1.9724950881393797,5.500108786177177
1570179631774537.0,1.8645033973874743,0.8354626881361291,0.9102242280957782,0.8730129785043735,0.8946059613347888,1.0190831260365272,1.9842392925090384,5.534837480675027
1570179631789534.0,1.8725202402988426,0.8399973215439549,0.9181392276002209,0.8814927763036338,0.8949604130771223,1.0230791619682642,1.9985431670040124,5.581091258816603
1570179631789534.0,1.8822027332277753,0.8449612774810277,0.9292898225486811,0.8925589521880837,0.8918570243047456,1.0269572702363694,2.014551326115016,5.617287670785168
1570179631797329.0,1.8956525595863831,0.8530823611368427,0.9421908120312137,0.906770077200232,0.8890374475198837,1.0328510485042357,2.0280857378526376,5.6328647919928665
1570179631797329.0,1.9092592749740247,0.8640717138249577,0.9547929720403866,0.9215361491553452,0.8867110199991222,1.0406564013095454,2.0384060771823806,5.629161813536132
