timestamp,emg1,emg2,emg3,emg4,emg5,emg6,emg7,emg8
1569407417906614.0,3.411389755971153,1.7182480410907655,1.3715812832444778,1.3317718793219053,1.8558251624997537,1.2171622450057007,0.9633464266526102,6.301232926003499
1569407417906614.0,3.3300229195615514,0.9482447593325124,1.333209284227131,1.284761843507791,1.0145018786219029,1.1901251659781598,0.7394003106072334,6.336637347227361
1569407417907611.0,3.3251460210613666,0.9341086437247721,1.3268692269345446,1.2583022651078826,0.9101959695991236,1.1781905888236337,0.7860593502634315,6.46257441910406
1569407417907611.0,3.298988789012686,0.7080575502091663,1.3193551306283426,1.2400535604393117,0.6215985069928728,1.1629357142135224,0.8332721733273308,6.56309909140124
1569407417907611.0,3.2867496327376844,0.7283758549761983,1.3012194246986588,1.2173573124939492,0.5497849155970199,1.1559561645044265,0.9143417750288977,6.661540962577489
1569407417907611.0,3.2527558686730966,0.6180446884190415,1.2859356313324102,1.2034534924718014,0.37686892738194766,1.150362697477615,0.9952346631151481,6.722133780177655
1569407417908609.0,3.233184237914318,0.6407058407843504,1.266750525057341,1.1855123729307881,0.3276326676893761,1.1517248646020248,1.0826660213268453,6.802631838150813
1569407417908609.0,3.207019624982537,0.5807909640111231,1.2569165074799378,1.1764270066864928,0.20935129603524344,1.1535712380243548,1.1709322145672334,6.871481700949271
1569407417920620.0,3.1905575311509096,0.6059399508241982,1.2438397432920765,1.1653163241061018,0.17272996665179013,1.1596139974375492,1.2520328099829525,6.936308143688977
1569407417920620.0,3.161668945544713,0.5778288444386642,1.2386155943673245,1.1617169278402035,0.07615473956566889,1.1653500800322385,1.3301342332747108,6.988751083485611
1569407417928555.0,3.13813651515098,0.609397750476215,1.2300297280207209,1.155158935836331,0.05055675025747999,1.1696899157226819,1.4014280925135252,7.056535119431529
1569407417928555.0,3.112884534158306,0.6052808093827942,1.2276466157823702,1.1536990897575559,0.038798912390641635,1.1716256420383786,1.466780625616558,7.115139676618423
1569407417935566.0,3.099060713438103,0.6395339659371101,1.2235625071854352,1.148843660329559,0.08092337972522495,1.1754341385949514,1.5197110245187035,7.1720302187909
1569407417935566.0,3.0787770190989554,0.6492905655068508,1.2247664559295064,1.1469710035061094,0.13218383161511807,1.1769530199705571,1.5665771142557035,7.2109483989770125
1569407417949792.0,3.0590171728568634,0.6857682854384364,1.220816365050976,1.1396469872647614,0.16358221960647265,1.1784447290263889,1.6062827443469991,7.236792107571941
1569407417949792.0,3.029466740123366,0.7003310647952834,1.2209925822230767,1.1357635655432423,0.21159472650591682,1.1792253203449752,1.6419874073145295,7.230142381133603
1569407417961465.0,3.0030711696256978,0.732191702442666,1.2202018044854512,1.1257059242417982,0.24167840262523382,1.1812166824457604,1.6743683936308844,7.211671024486076
1569407417961465.0,2.974998433439639,0.7474075392909445,1.2250935085508765,1.1171567178686215,0.2839785917900119,1.1830467043347672,1.709736997398715,7.18673329880295
1569407417973719.0,2.952015170264433,0.7780854348161191,1.226168577044194,1.1047297614263516,0.30893985332864493,1.1855609105414344,1.7457320541150256,7.175138748919953
1569407417973719.0,2.9248569137529574,0.7959626565293236,1.227495994855603,1.0965860085710273,0.34295598768358343,1.1859507258144795,1.7826122711379955,7.1646745304499255
1569407417981413.0,2.9024005139312483,0.8236121218934856,1.223984971963202,1.0863000627733694,0.3622510935266223,1.1860101372266687,1.8185694615300285,7.167546135999333
1569407417981413.0,2.8790100693730616,0.8363587657506768,1.2240053410690068,1.0787243513985225,0.3867418401740014,1.1854575385489727,1.8566253095592218,7.18203677350424
1569407418001398.0,2.8605535746279136,0.8567696921907422,1.2215596341925652,1.0659123713203102,0.40087879841156293,1.1868045684978155,1.8960148020479255,7.219598998005667
1569407418001398.0,2.841201448678941,0.8624895100383742,1.22364391945071,1.0544447617213801,0.42262159022772783,1.1891130729559327,1.937357322612765,7.268381815399123
1569407418035268.0,2.829098391746342,0.8766906179521942,1.2249932071617309,1.0409025929660858,0.4369125425051756,1.1895401908145522,1.9744514979587229,7.333190963088393
1569407418035268.0,2.8191039558808235,0.8832083019480269,1.22965714363473,1.0329613242739142,0.4588144875171365,1.186397746363349,2.009065238425661,7.389983074598936
1569407418036292.0,2.813342557323825,0.8997697311272778,1.2300773180139672,1.0232781317546755,0.47474652065208206,1.1821550384695843,2.0402040376024515,7.423042406986233
1569407418036292.0,2.803924741023875,0.9023170248620839,1.2303052356275872,1.0169326183964837,0.49628723959298754,1.1730029265557202,2.065110145461335,7.435309293752167
1569407418037307.0,2.7990495104021282,0.909821803756384,1.2253649380441498,1.0097749662995272,0.5107719160259033,1.1621420751651401,2.085334106319218,7.45993833334955
1569407418037307.0,2.792689853456554,0.9093087634607374,1.2215156806220442,1.0070778966609604,0.52724161893767,1.152719414799748,2.0993741806946407,7.471514872515505
1569407418047273.0,2.7806993933242894,0.9182911491435714,1.2142503228422825,1.0043841835267824,0.5364213453905018,1.1447768830288072,2.1041214035027345,7.449811591695488
1569407418047273.0,2.7588850266244953,0.9203523344438205,1.2092070199759943,1.0049521504863432,0.5481534737813513,1.1359981739158955,2.1073606167077985,7.404505861669211
1569407418057211.0,2.73823474419465,0.9282035566165566,1.1998797116339806,1.0011517994089474,0.5555054220690752,1.1276533838032625,2.1150032343038716,7.3671911749347485
1569407418057211.0,2.7165428007841412,0.9247561976937647,1.1920413724033112,0.9957190868839995,0.5667274206218124,1.1210116565720931,2.1269754325857773,7.321822218132447
1569407418058248.0,2.6995725221495923,0.9266493260728608,1.1815394351384816,0.9844341860127193,0.5738409714005667,1.1178768939353274,2.1444406839250014,7.26120351882493
1569407418058248.0,2.685124907267398,0.9231271054482634,1.1734621028824774,0.9732564529448526,0.5836252397447845,1.1169160435662389,2.1683761430693846,7.188605199295155
1569407418085174.0,2.673743053392283,0.9286585640639426,1.1636975398515146,0.958911581445663,0.5907446056450868,1.1184488750209207,2.1950929673443276,7.127662676085089
1569407418085174.0,2.6602262057385224,0.9287437235324786,1.1575733566242288,0.945575255869309,0.601341265113727,1.1187990338057912,2.216719862466585,7.068697006488967
1569407418093149.0,2.650533669006394,0.9343482066533135,1.149216815700014,0.929775513713283,0.6103923959087637,1.1170439747476268,2.231504637724942,7.011729628954101
1569407418093149.0,2.6406284926792973,0.9343060993093733,1.1440485371912095,0.9167095938647172,0.6236189175649953,1.115909189300305,2.2450017714663018,6.951976215062974
1569407418095110.0,2.6348709298234154,0.9419250028813757,1.1378334670598316,0.9025421050308163,0.6332106476785575,1.118321822714913,2.2626023363704535,6.896010333813639
1569407418095110.0,2.633476074127285,0.9473521823096519,1.134802387094078,0.891948492119369,0.6441148511871311,1.1222408818208598,2.2821424118638403,6.83932355259001
1569407418116065.0,2.641998849585605,0.9588490011005898,1.13192765407339,0.8828057321204744,0.652051942818786,1.1280466829352565,2.302115839498045,6.789390054902
1569407418116065.0,2.6538563631536887,0.9665788328156103,1.1328086614538841,0.8779815580900925,0.6632781856855687,1.1357314021041829,2.3251069802648763,6.7370913048102485
1569407418118081.0,2.663529470800859,0.9808212524895694,1.132372988591631,0.8732749201498716,0.6726337195663759,1.1442532246721755,2.351974467206303,6.683100407958069
1569407418118081.0,2.669692930689308,0.9923739785502,1.1343813677266639,0.8715840658762711,0.6862711573584723,1.1518531296235714,2.379592193312801,6.621000539706386
1569407418123033.0,2.6803032181825506,1.0076567528574094,1.1350508262247774,0.8700722560562021,0.699976304077382,1.1580854327002468,2.402196687877952,6.564649682113119
1569407418123033.0,2.6925611183901497,1.0181557514476833,1.1380844192356288,0.8723628086317025,0.7185129184401475,1.160762435395255,2.414770014892446,6.512081490875803
1569407418129019.0,2.7094398668686694,1.0331826631368046,1.1399165906692954,0.8764204853486492,0.7349142325440344,1.161685257967142,2.426070264004602,6.470096299729164
1569407418129019.0,2.7211547967561103,1.0422796527356282,1.1441637300224212,0.8837137860495085,0.7509855527583338,1.1611592522122824,2.4313296355042864,6.42782806349938
1569407418145973.0,2.720570759222946,1.0514109740299349,1.1475423922592807,0.8913635289667147,0.761097989164407,1.1561780285132068,2.418151918954343,6.38275873819762
1569407418145973.0,2.7111368390645563,1.0563454740199916,1.1529003887763678,0.8986391566003415,0.7691592066819968,1.147095984768603,2.391358544359363,6.334475319789825
1569407418146971.0,2.703392141030535,1.0652448830189536,1.1548653287366506,0.9011756623936011,0.7742034708078541,1.1388482527121686,2.3659771596256256,6.2946860844900465
1569407418146971.0,2.695817057357103,1.0658473748129518,1.1552732955959972,0.8996798035711573,0.7786973567154709,1.1309076913630598,2.342305588162523,6.260144985914894
1569407418167952.0,2.6931844664079194,1.066095131793881,1.1507966426399947,0.8911975106036378,0.7815807923581357,1.1234782958816192,2.3201741470155564,6.23637439395216
1569407418167952.0,2.693632369662859,1.0602475725042633,1.1474396742167379,0.8810130940743358,0.7875408773689907,1.1174003246896156,2.296947714216494,6.21972110024357
1569407418167952.0,2.6942190951203315,1.058858564457385,1.1436103915722626,0.8703715968841812,0.7948326306385759,1.1127846882484171,2.272015114849957,6.215133610634219
1569407418167952.0,2.6880660223429618,1.0543964511719395,1.1410238922989286,0.8607823631494623,0.8029067669966107,1.1080469775176183,2.244944747349204,6.214492445435411
1569407418181878.0,2.6790699253026466,1.052591267298243,1.136788843662881,0.8498915308510213,0.8096794620138297,1.103294827537452,2.2195019558797835,6.207345623992975
1569407418181878.0,2.666227118568003,1.043181298179099,1.1352034759155514,0.841718526849893,0.8161545329403433,1.0987507894462207,2.193757529230646,6.177547960668214
1569407418188859.0,2.652538164423593,1.0357318362724295,1.1299703637209113,0.8348563720503483,0.8217109140573264,1.0962697365771696,2.1731329014884495,6.141231248955994
1569407418188859.0,2.639327998351466,1.0237481954238794,1.1236880280149295,0.8302000216963795,0.8267684179162601,1.0950531579077525,2.158807703720513,6.105157842477046
1569407418206855.0,2.627624933032416,1.017785806473943,1.1125510790212525,0.8260975973877365,0.831272737286651,1.0944381572989437,2.151648121884564,6.072224748686715
1569407418206855.0,2.6126875449538347,1.0098855578246524,1.0999149976982987,0.8232712281277433,0.8340795482327806,1.0938418759735897,2.151519968574444,6.038993046927247
1569407418206855.0,2.598384165624902,1.0048070047076305,1.084926458523513,0.819000459417988,0.8357088283725594,1.0935373262514556,2.1603276358513983,6.0107541978944345
1569407418206855.0,2.584513224436324,0.9948145706365548,1.072486320799986,0.8154575952151897,0.8353746721292574,1.0940383678957306,2.173641191470006,5.981476088993429
1569407418227755.0,2.570917327181059,0.9905247793626516,1.0605802049845483,0.8124218633771484,0.8321832923701586,1.096627437100141,2.182834897851179,5.951189311988639
1569407418227755.0,2.5562860692165814,0.9846883802273889,1.052971179060315,0.8112202923827659,0.8264138875959712,1.0985449932924722,2.179438806933195,5.914723823300537
1569407418228795.0,2.5448112607621125,0.9819852634597029,1.042662762581865,0.8107855536611375,0.8227097407732573,1.0973236849314096,2.170120695320169,5.881777255500483
1569407418228795.0,2.534003569234539,0.9772699546048548,1.0305371689940124,0.8121361687176958,0.8183592212860799,1.0922489513182763,2.1608253019811157,5.849365904059104
1569407418241756.0,2.523262639824329,0.9777545538723824,1.0141783056988243,0.8153956204489964,0.8142869681433127,1.0859545010452836,2.156033295426029,5.82117252306762
1569407418241756.0,2.5097325450359427,0.97512518633006,0.9984588285131738,0.8216241246503108,0.8083422764810372,1.0808651631795,2.155440756347048,5.788272335633564
1569407418251728.0,2.4977587988842704,0.9759003307310583,0.9822123560329401,0.8271936912498001,0.8026047361429512,1.0764783092582706,2.15531850238632,5.74707216359192
1569407418251728.0,2.487300753512506,0.9755599268610898,0.9705271204918486,0.8304986327308075,0.7957243040911484,1.0699394191346996,2.1512765834246634,5.695155792696626
1569407418264655.0,2.478714067634221,0.9797627883005043,0.9593616439292797,0.8327017101663768,0.7909776769497362,1.0616148154023293,2.1456162613137106,5.631604566791678
1569407418264655.0,2.4689969639833724,0.9834672790458304,0.9491648123604111,0.8364745228887355,0.7862246574981077,1.0529899124285342,2.1423983127874737,5.553034468558015
1569407418265652.0,2.462075799225926,0.9917745589692424,0.9381030838345233,0.8404279674966668,0.7826996509999172,1.0452157637130042,2.1468171000733567,5.474371349288589
1569407418265652.0,2.4596691474797208,1.0002834511907714,0.9317463584012139,0.8449402957663505,0.7771610621961775,1.0359355002084456,2.1587099424167375,5.396986992000077
1569407418287622.0,2.462048166474005,1.012136522477088,0.9265678373165268,0.8516548310692663,0.7734945722327523,1.0252501855134788,2.177847576541537,5.32706130969278
1569407418287622.0,2.462679433815057,1.0179081132000118,0.9219731973682879,0.8610668148681524,0.7709702599676392,1.0158440278862255,2.2038932015587327,5.2648581832358525
1569407418288597.0,2.46215604477882,1.01959454260903,0.9143521771281677,0.8699510916874711,0.7694354359257961,1.0091333547712398,2.234480427781023,5.215861090990587
1569407418288597.0,2.46221177798342,1.017049043235748,0.9076138375219014,0.8774906062791135,0.7671044133134756,1.0043292168025901,2.265194345931815,5.1744165474948405
1569407418301595.0,2.464932072479745,1.0171624489098325,0.9017100869446483,0.8854359058110627,0.7674480090286265,1.0002403369830213,2.2972696884444996,5.1397683792759645
1569407418301595.0,2.467259018378218,1.014808696948362,0.8989573188173531,0.8931623726418464,0.770300064125035,0.9935989759298768,2.3345962242565608,5.109219268613258
1569407418309536.0,2.4685534757089718,1.014964671257832,0.8939532552481475,0.8974492996724529,0.7758505586452042,0.986429104030402,2.3731980353561974,5.087907277396231
1569407418309536.0,2.4678606422283926,1.0148052512803338,0.8887010500583366,0.8994039037852619,0.7821704414504977,0.9812186290730414,2.3990608314217847,5.070220534384851
1569407418324495.0,2.4689026071247473,1.0184422936766044,0.8841120497425884,0.9017327802271542,0.7900633171839508,0.977651700773646,2.4126969668040936,5.059665896796035
1569407418324495.0,2.471193640387411,1.022231432473845,0.8838661361099553,0.9048342110470491,0.7968886764697273,0.9764106405923172,2.427340366684788,5.057421924927822
1569407418331477.0,2.476588717684977,1.0308668992887389,0.8858506180131304,0.9064744294951482,0.8022665510546646,0.9785751063945143,2.4443189388958735,5.062378232107228
1569407418331477.0,2.4846404811535834,1.0415096624299298,0.888997584855192,0.9068396079990696,0.8075051894631189,0.9823704535714287,2.4552918156944608,5.067522619627669
1569407418347467.0,2.4972734700395516,1.0549332705332837,0.8897713819198608,0.9076318523430018,0.8133622936591578,0.9859168397614634,2.4611953971141167,5.075437453583709
1569407418347467.0,2.511538260249144,1.0638600098985505,0.8922897183573392,0.9082664792238745,0.8181659424518766,0.987221208539275,2.466313992275158,5.072498530747698
1569407418348433.0,2.521480404760728,1.0697851910058214,0.8975505271892156,0.9064002590484281,0.822663582410625,0.9876000619633922,2.4715301471030338,5.057240755164246
1569407418348433.0,2.5203167597524585,1.0709932572537841,0.9076715186566349,0.9031999527506308,0.8270508963616672,0.990052364082116,2.4750101372336735,5.039192945207469
1569407418362433.0,2.5130511666595043,1.0725653260345909,0.9189081140277731,0.8993403638992997,0.8323406539848797,0.9957111453196761,2.4812416173478926,5.027192168179526
1569407418362433.0,2.5016748250716465,1.073432243526449,0.9291471581414233,0.8960665440423252,0.8346866200921491,1.0037308718831364,2.4910624857505925,5.01879506975851
1569407418369413.0,2.4906427864205116,1.0764697843104338,0.93787940545515,0.8951625257980037,0.8340708432204739,1.0138828815188248,2.5034204418158708,5.020476114141243
1569407418369413.0,2.480959740269759,1.0753687606569422,0.9445978956356338,0.8979569049447926,0.8300971301491096,1.0221916579715502,2.5168208734146837,5.026894674114025
1569407418385375.0,2.4685769882248567,1.0726933661281681,0.9463047870527835,0.9033589290778793,0.8249477854425918,1.026472318508894,2.5301238618677884,5.032498962542872
1569407418385375.0,2.452145335234489,1.0677531252200583,0.9468184470485301,0.9095040587695983,0.819998293257005,1.0298842530367494,2.5424115174576296,5.034827316189771
1569407418385375.0,2.4392794516022276,1.0661913751301413,0.946101824106613,0.9152882893107721,0.8189464163020451,1.0343282458797203,2.557914766983213,5.0428846131217435
1569407418385375.0,2.42918239829775,1.064225552962168,0.9454649671544011,0.9217691956250303,0.8195713869327429,1.038839873351093,2.569248950887018,5.049756472082376
1569407418407277.0,2.419486985808861,1.0640283952233878,0.9436065790032893,0.9309260728482807,0.8205407997104243,1.0435896648642842,2.5658272199131065,5.042349357180995
1569407418407277.0,2.409081576529104,1.0614634537851622,0.9426187678882911,0.9437817957831229,0.8181957294546381,1.0485919943069406,2.556115519598199,5.017475555567808
1569407418408271.0,2.402743149124107,1.059079585162872,0.9425012568153752,0.9573941773333666,0.8140233518470352,1.0532859694276624,2.5531915642317826,4.989489673395489
1569407418408271.0,2.4011880606029306,1.0567003065661464,0.9447239681192818,0.9678834532741222,0.8060955951868192,1.0564226544119026,2.551903607025987,4.965470932408413
1569407418422233.0,2.4032499444680355,1.0596623303738901,0.947460253897671,0.9762980136308909,0.7979820259100463,1.0571181494266146,2.54688634824309,4.953265585056765
1569407418422233.0,2.4045732579677854,1.0648316485820983,0.949862649662029,0.9837079435820648,0.7889294813902763,1.0534287931861521,2.537128547798598,4.953473602293591
1569407418429216.0,2.402884189927385,1.0728866958307604,0.9493974865905489,0.9900902625947027,0.7797361865967538,1.0474204101274474,2.5264700138397154,4.966237992318167
1569407418429216.0,2.395855686488436,1.081253239748243,0.9485995594944706,0.9965996810332097,0.7703621454734374,1.0423540478858109,2.5140048418540615,4.976611894662963
1569407418445173.0,2.389461850437825,1.0926638713934944,0.9496579792710559,1.0012937046200083,0.7638750910136695,1.0380606143765125,2.5017192645206316,4.979906100619035
1569407418445173.0,2.383174758753436,1.101069636605435,0.9533064977269017,1.0004778243680763,0.7566736412970588,1.0342214307907995,2.4883914801222433,4.977896072742567
1569407418446172.0,2.3721251849042866,1.1060649656383346,0.9565227074578284,0.9926537146791437,0.7492550780519073,1.0313566215170198,2.467982234583741,4.968642214113347
1569407418446172.0,2.3570561508926695,1.10877254196871,0.9602970935127798,0.9816355098568295,0.7399453647835896,1.028176067176,2.4375489248400264,4.947996060863552
1569407418467115.0,2.342293336168851,1.114006285125399,0.9617704667776461,0.9709558744220607,0.7310488180001368,1.0256240953496314,2.405800741855225,4.927498673627706
1569407418467115.0,2.3234925321830318,1.1176863208050396,0.9602947931592105,0.9620522607018898,0.7233520261416396,1.0238103521991613,2.3781301165920516,4.9086129003722885
1569407418468112.0,2.302235299836004,1.1219780719578158,0.9573256537485509,0.9546076623681804,0.7190982917848698,1.0227580942393708,2.3590678712624418,4.889843202216544
1569407418468112.0,2.2808761986065114,1.1246785237072108,0.9570772400039121,0.9500178672905013,0.7176101745307915,1.0235312224651463,2.347887736450894,4.867631344204373
1569407418482105.0,2.2586501730507016,1.127051753930174,0.95923777688408,0.9471347245360198,0.7194587711890343,1.0257867321840546,2.342872340254566,4.844117674930637
1569407418482105.0,2.2322802445841585,1.1274871415348193,0.9629556092157495,0.9442101896865791,0.7244225821730507,1.0283889416726486,2.339163796210912,4.821357441553911
1569407418489056.0,2.2044866522033324,1.129497863200828,0.9672029256011342,0.9418649047822173,0.7324017492534571,1.0305608645426847,2.3331102066925147,4.806265301621193
1569407418489056.0,2.176238153384242,1.1308917446078213,0.9732888437746368,0.9404402628217722,0.74259684153294,1.0307647540436626,2.3177591076012023,4.799449475092365
1569407418505012.0,2.1511890299272225,1.13343366421417,0.9766335838414361,0.938648872766511,0.7524574174110796,1.0296475635240072,2.2992769296348397,4.803200466318537
1569407418505012.0,2.1303721960487403,1.1318031566494715,0.9753417682477137,0.937661770750934,0.7627244047755014,1.028072384057637,2.280786155144646,4.814538155451879
1569407418506010.0,2.1139596664573643,1.1257875785544809,0.9708095431974295,0.938306862294209,0.7735832358207807,1.0261905917714602,2.25938146977386,4.836555119727976
1569407418506010.0,2.10060858696532,1.1147714303606322,0.9660543632692514,0.9408264074712853,0.7859029024803694,1.024664622406088,2.2357869835316366,4.867431833864325
1569407418527952.0,2.0933947548482457,1.1053179228038505,0.9601875032873673,0.9451083518794153,0.7986230775427695,1.0250321865663536,2.2128691652516843,4.904642934285962
1569407418527952.0,2.0905703983971673,1.0962296417617936,0.9549951991034978,0.9484130494334004,0.8097204400163406,1.026626031699695,2.187260230011772,4.936146207059529
1569407418527952.0,2.0896840028503476,1.090390990257301,0.9507405212855415,0.9474883210154806,0.8155724365596037,1.0286518156071254,2.160290152091854,4.955722650042289
1569407418527952.0,2.088325306296476,1.0844767498036336,0.9484879350050631,0.9453000245259661,0.8193620793345731,1.03001052306005,2.1334800037199724,4.964192168039563
1569407418542914.0,2.0841008668579817,1.0807011950084058,0.9475456099563763,0.9447306400568185,0.8231504413973134,1.0293844036291095,2.1096388167173394,4.962794527688564
1569407418542914.0,2.0758689673297277,1.07883619325053,0.947867132726929,0.9460019925774497,0.8287087100045416,1.0279472634039215,2.0866765102054607,4.952728207081369
1569407418548896.0,2.070290944750095,1.0807843538285604,0.9484173997103126,0.9480416992933537,0.8341157320843651,1.0282748950169107,2.0675832027618197,4.945405412054043
1569407418548896.0,2.071076021663178,1.0812867758067168,0.9520838377787977,0.948964372029462,0.840417793986621,1.0298400593858257,2.0523105697441077,4.94151602364278
1569407418566849.0,2.0763766740478498,1.0830261082429355,0.9577017134299625,0.9495993556864313,0.8486527172066424,1.0319018323025653,2.0381327925098818,4.938975757616991
1569407418566849.0,2.0777631544221995,1.085305332058872,0.963056302671318,0.9520650611439254,0.8606612420051488,1.033436349353732,2.0231079148068263,4.934166490376811
1569407418566849.0,2.0750104878563156,1.0873696103908244,0.9662279379551788,0.9543427782506686,0.8742333482943473,1.0333777454686324,2.0102110866674443,4.931934744164267
1569407418566849.0,2.072176131465452,1.0847519151187017,0.9667285634600029,0.955475148758307,0.8874430375971336,1.0312922917073999,1.998777040934339,4.925599823475871
1569407418587792.0,2.0718828052708322,1.080699143714752,0.964300708447083,0.9573856669854353,0.8975647286092039,1.027011668245138,1.9890212126797526,4.914775573497364
1569407418587792.0,2.0721374724437505,1.0772444505672847,0.9626796417749776,0.9601515348508464,0.9047137896569176,1.020987625352599,1.9777631730342913,4.906271882117747
1569407418587792.0,2.072192977233316,1.078729595806191,0.9606103818285372,0.9637523510763712,0.9083223134398308,1.0142939721893134,1.967291347121341,4.898839487232857
1569407418587792.0,2.071775334332252,1.0829786972830144,0.9565227766110945,0.9702073528569017,0.9130573468207539,1.0078281935609268,1.9584279109684686,4.887883523745854
1569407418601758.0,2.0723120346726596,1.0887776265807967,0.9511716199196575,0.9795265108241894,0.9191000167250362,1.0022994493874724,1.9480415583819561,4.883323403445682
1569407418601758.0,2.0710349452341936,1.093240428541593,0.9483561271984445,0.9887338124208915,0.9240560322359612,0.995785310252537,1.9353513862154041,4.881697446925544
1569407418609734.0,2.0680780635905593,1.0997856682884828,0.9488702145703869,0.9959227805577636,0.9275811556812187,0.9868476461470266,1.9242077528695873,4.875072264975653
1569407418609734.0,2.0656290369445744,1.1073725847175673,0.9528357035439821,1.0030933971597444,0.9320231731638268,0.975446465053748,1.9141149275056337,4.8649821196666805
1569407418624695.0,2.0658078648968603,1.1136493392650766,0.9568372505753595,1.011271643048201,0.9360721014368909,0.9642784594029878,1.9069007936692488,4.8615097662868125
1569407418624695.0,2.0664273230915553,1.11366109529465,0.9591536006758706,1.0165701770013247,0.9370519989153969,0.9558035021269429,1.9014319665774861,4.868306803229717
1569407418625693.0,2.0676178459939263,1.1120442708210418,0.9598696894305939,1.0179952254872116,0.9358628485602329,0.9509183941858894,1.8942755913843738,4.886327060273878
1569407418625693.0,2.069177812301131,1.1126335917881973,0.9605263532527999,1.0194901174051014,0.934447800781827,0.9491445728158902,1.8840011564071744,4.90412338941277
1569407418647633.0,2.06948241233706,1.1172751180996545,0.9615657312658282,1.0230112258334219,0.9328527433747554,0.9488504966535026,1.875049164208966,4.916554893123847
1569407418647633.0,2.0680683827361235,1.123850964057815,0.9638090307229932,1.0276869668691138,0.9309248712260537,0.9487423288836542,1.8673786220298252,4.924267829028551
1569407418648630.0,2.0700119032316446,1.1337251394854921,0.9646952363374,1.0315208248561538,0.9288460474474641,0.9478195941252886,1.8593771443198654,4.926981369746878
1569407418648630.0,2.075819177114963,1.1440026659923344,0.9654109947260378,1.0336313192252733,0.9253697296720316,0.9454558564718345,1.8523318547517549,4.919661923423445
1569407418669573.0,2.083383533802396,1.152752134877567,0.9675886313146588,1.0329172991827489,0.9206910418927299,0.9427592395222957,1.848925755953296,4.911186078753162
1569407418669573.0,2.091972175144509,1.158512570206869,0.9709634538741857,1.030383971488556,0.9174161519920931,0.9386197601254676,1.8490290955362072,4.911578816510006
1569407418670576.0,2.1060802297503014,1.1652843052062123,0.9749822811319259,1.0278832180049586,0.9178862321777393,0.9335461186341935,1.8521790773147777,4.927124713446231
1569407418670576.0,2.1250339501626843,1.1733441877085833,0.9803321347751546,1.0236453289795415,0.9218980932368783,0.9296808940615271,1.854081286761987,4.95289763905636
1569407418684534.0,2.1430644618706887,1.1801096137882237,0.9845810222763971,1.0163076266488276,0.927779190358929,0.9266656715613497,1.8536150567262861,4.986999047735926
1569407418684534.0,2.1543660734895655,1.1829183859669958,0.9879738021030015,1.0088350874906793,0.9313551251470632,0.9232922006521205,1.8555450805672349,5.018377806469721
1569407418685531.0,2.160113576326349,1.1868609115823838,0.9910206485344649,1.004065106173959,0.9328140754378372,0.9195309472484485,1.8633206272459915,5.027239215784994
1569407418685531.0,2.1629579616498322,1.190208256723143,0.9942555719882369,1.0033259607222647,0.9348132273778376,0.9152855656282582,1.8780159195976358,5.011313262310156
1569407418707473.0,2.1622104645906064,1.1910642949740835,0.9971753468194768,1.0055760563636906,0.9377540504791557,0.9096387168882292,1.8977042297131774,4.9844655236560715
1569407418707473.0,2.154777726055078,1.1896877440478097,1.001259070581093,1.0099993192326824,0.9403053853714741,0.9018325862730424,1.9183354201960272,4.949393405162892
1569407418708470.0,2.142479872361098,1.189629151606001,1.0063150052653613,1.015532726367977,0.9428910315200804,0.8946747371284531,1.9408851495073567,4.914588941515235
1569407418708470.0,2.127391244044311,1.1878195404138687,1.0109660577175226,1.0193924118337512,0.9441034756602783,0.8896995041203938,1.9664137168581939,4.881277469955399
1569407418730411.0,2.1119828959668445,1.18333432844798,1.0136210316890226,1.0193511071075876,0.9443706082036628,0.8862418706823193,1.9938010303482931,4.846603886099382
1569407418730411.0,2.0991386847618485,1.176184620253114,1.0146620169288567,1.0173639368870384,0.9451250594923273,0.8842253651716818,2.0222302383658723,4.807449411339671
1569407418730411.0,2.0916925360077236,1.1707985156477432,1.0135563509840806,1.0162478677515017,0.9461692358821017,0.8837681816189326,2.051659211421052,4.769771961340887
1569407418730411.0,2.0860900065979493,1.1670112653266864,1.0096922649118447,1.0163059545112176,0.9438432916460873,0.8859107265304936,2.084264372695255,4.731703524784589
1569407418745380.0,2.081496177548886,1.1665407603694251,1.0030014998168086,1.0154291514304794,0.9386546429424002,0.8903137140763091,2.1186862100902975,4.684154454175394
1569407418745380.0,2.080746969098527,1.1662852393572885,0.9968966978692398,1.0127030946160689,0.9315508202882085,0.8929002130522739,2.151227249846587,4.623226683262179
1569407418745380.0,2.08443596521938,1.1652807211832013,0.9920707644267761,1.0088268213447915,0.9253072961540078,0.8919632071314745,2.1791044965904875,4.5583913317274956
1569407418745380.0,2.0879380720407594,1.1648201877883284,0.9892425869281426,1.0049452656408704,0.9210414700062628,0.8899231290451483,2.205913335284441,4.493896509532711
1569407418767358.0,2.091300867247996,1.1686750021065506,0.9879728125934168,1.0018440676497875,0.9209031438889024,0.8901397418257114,2.2362780724806806,4.432449299630009
1569407418767358.0,2.0968022999464515,1.1740118828407995,0.9889533770584333,1.0007516400794694,0.9223114217835748,0.8920900202410837,2.269023623072664,4.372380500209563
1569407418768310.0,2.102567034142918,1.1792019480765534,0.9907844175890156,1.0015456079151297,0.9222853822759292,0.893718785974252,2.2931497075320015,4.314101265269056
1569407418768310.0,2.1026933217568513,1.1806966758290622,0.9939121624357015,1.0054327038824238,0.9176102126234389,0.8957645470923288,2.3009633121661124,4.25637002721515
1569407418790252.0,2.097359710638141,1.1803713877222093,0.9980281408350966,1.0114465583195429,0.9098931248923553,0.8993542159761821,2.302732791042464,4.2053412204860745
1569407418790252.0,2.0879933435914877,1.1787662209714527,1.0027036078345193,1.0158085511052286,0.9007431761828391,0.9055624613629184,2.309142861249575,4.162517748188908
1569407418790252.0,2.078387389216481,1.179397928898373,1.0076781837346378,1.0172524139404027,0.8942971850220466,0.9147056269320091,2.3218078788270917,4.13115460069501
1569407418790252.0,2.073380193592635,1.1794609738722426,1.0098948948781632,1.0168540223071034,0.8907502301903641,0.9248963600468268,2.3425910658171323,4.108135757061299
1569407418805211.0,2.074496116412074,1.1770402915653697,1.0050955857819681,1.0153985401407888,0.8904437258261744,0.9341382888051581,2.3641573169482815,4.085434798202047
1569407418805211.0,2.0750545309473107,1.171291333902868,0.9959975004470462,1.0131071317596467,0.8904628291565184,0.9413129042176996,2.3781273096806146,4.059626999522268
1569407418806208.0,2.071665059939254,1.1654059665519148,0.983774482673086,1.0086757178139696,0.8898350783679521,0.9453772281343746,2.3847435303204696,4.035391460795686
1569407418806208.0,2.0687285980624974,1.159114610562329,0.9706479361182822,1.0051283303835605,0.8862792221699034,0.9460184705026824,2.385271257507297,4.010288384141115
1569407418827159.0,2.0697742617054558,1.1537953893231598,0.9591327680854268,1.0034780489247301,0.8826684610581401,0.9460817028877481,2.3866458340199634,3.9869428027715177
1569407418827159.0,2.0711105690065263,1.1490701505116934,0.9504695369641261,1.0019405831278716,0.8781189262913088,0.9476977350226456,2.395703661647387,3.964912853898823
1569407418828149.0,2.071681766541172,1.1474780964750577,0.9422135194674204,1.0012763398294713,0.8715569207526381,0.9510581250814617,2.409208441713851,3.9462124054879983
1569407418828149.0,2.075144978524164,1.1471741713242576,0.9346207360978925,1.0007845591158366,0.8644498328098792,0.9562075202164219,2.425433216727123,3.9332934012458503
1569407418850091.0,2.0822690379597826,1.145513264500275,0.9291482444947846,0.9991377523443897,0.8603322050678907,0.9632642066817936,2.4482547147890057,3.922629818689845
1569407418850091.0,2.0864377036467228,1.1395227716291725,0.9268389820400198,0.9994465925909762,0.8553411742247682,0.9712630483251234,2.4775602716098217,3.8994235681844867
1569407418851088.0,2.0865311842857928,1.1341021642541296,0.9253987826518281,1.0017790722520774,0.8483694713514823,0.9801766502991908,2.5073092732416824,3.864682250690112
1569407418851088.0,2.086491296233673,1.1294140278884452,0.9233280625769119,1.0033652219301705,0.838879987377759,0.9920291478522288,2.536964212050823,3.829653402509311
1569407418865050.0,2.0900060825402775,1.125706794573262,0.9178004621342009,1.003921821017941,0.8299252828111943,1.007084902000734,2.5693934268434373,3.7989648393328768
1569407418865050.0,2.096340094142741,1.1218016298124032,0.9096534825197745,1.0036725087594494,0.8214497367622042,1.0205810475687496,2.596866029520869,3.7716002145109937
1569407418866047.0,2.1011994989464946,1.1187432434802362,0.9012570402382155,1.00136894438273,0.8146558404189785,1.0284909138061258,2.607152191406682,3.7476746642565124
1569407418866047.0,2.1010595246647457,1.1164276133567397,0.8942756471796877,0.9981001577461077,0.8085095706445273,1.0316398328435428,2.6045504384127707,3.7166837396704553
1569407418886992.0,2.100069833724926,1.1169791271738896,0.8893528352260932,0.993678259181509,0.8040100171798206,1.0299307963311894,2.5996331173319582,3.6807631369634786
1569407418886992.0,2.100930485172586,1.1196180033046486,0.8881984903841873,0.9881678720885051,0.8012396310554778,1.0249952247880494,2.5922380944111323,3.6479244124502967
1569407418887992.0,2.1034827477192573,1.1253504156532104,0.8897667856027482,0.9833028130813518,0.8012456627139024,1.0198194017221518,2.5812437448730936,3.6220140298911927
1569407418887992.0,2.1083590116249344,1.1315442468211663,0.8914500521453577,0.9793942495903545,0.8012964488249563,1.0143967126606652,2.573413531092973,3.6030178203699044
1569407418909970.0,2.116875117343884,1.1368063347204072,0.8915390154941212,0.9761969660823262,0.8010087893965343,1.010670072752444,2.5707999744903676,3.5943988260237396
1569407418909970.0,2.1269869832742963,1.1412626947075408,0.8931954587482731,0.9749451557269782,0.7996295388971741,1.0108356790555795,2.5704094699443263,3.5955759029489944
1569407418910928.0,2.1401107679150027,1.1467129250556376,0.897439031902107,0.975571856932059,0.797739418731019,1.014132374127251,2.5762387997977885,3.604771526127461
1569407418910928.0,2.154825054254589,1.1506716719378884,0.9026667830324955,0.9764043852531876,0.7956681914517617,1.0196094158430478,2.587348688079597,3.6228041570710268
1569407418924931.0,2.1627923163311262,1.1506238905389612,0.9066025054402393,0.9741424363122138,0.795038487718284,1.0253639147127145,2.5968482052580493,3.6471646707594227
1569407418924931.0,2.162049113370312,1.1474786553966263,0.9083120186070037,0.9706550398528125,0.7943918646786616,1.029288186824905,2.604748735521375,3.668359396416957
1569407418925889.0,2.158752873534612,1.1458760649732427,0.9084330699669325,0.9688155163551279,0.7941134745823205,1.0323067734575653,2.6140612415899214,3.6845438318428743
1569407418925889.0,2.157085209399619,1.1464141638236398,0.9091213005545608,0.9689468007004566,0.795808633193582,1.0344099808524831,2.626821357257546,3.6945941498353596
1569407418947830.0,2.1606596795871313,1.1497878130308046,0.912306483085327,0.9700105246119057,0.7999280642401949,1.0365274378612375,2.644076570666253,3.7047692602424123
1569407418947830.0,2.169594600892285,1.1555779582857102,0.918297810729487,0.9691949075943872,0.8042173225172267,1.0416993079010706,2.6678969202459344,3.7215259556857094
1569407418947830.0,2.182953227688382,1.1633421895784108,0.9260062660520656,0.9660814332993469,0.8069277941549031,1.050092237410686,2.7002713276962713,3.744363441534817
1569407418947830.0,2.1996285431317224,1.1716407155735131,0.9355656651589458,0.9637969703661107,0.8077462102002334,1.0607423272209735,2.74027498768312,3.7678103109724255
1569407418969804.0,2.220705738164364,1.1818642408394595,0.9449490441260161,0.96134853208972,0.8088814512787477,1.0737043039992844,2.7869454543959162,3.7954910857215043
1569407418969804.0,2.2436885812845686,1.1927893029095986,0.9522177037728953,0.9567823452386458,0.8101468746120892,1.0870606609565483,2.827793726399387,3.8311970522367593
1569407418970769.0,2.2607787322368678,1.2027465472349863,0.9582565543308439,0.9517224470832462,0.8117366850429146,1.0988566918093132,2.8486108344131873,3.8688484656567796
1569407418970769.0,2.2686556674484453,1.2123909184201693,0.9641500908341621,0.9493611243891413,0.815465255861767,1.1101224059498112,2.857234710252894,3.8987281990287737
1569407418984764.0,2.27223623673412,1.222153309727378,0.9708433917576625,0.9507279613988349,0.8206051553555852,1.1190251512034812,2.864332878644254,3.9284840633428977
1569407418984764.0,2.2681129343863984,1.2297994100397516,0.979466856533889,0.9550989903824342,0.8230586555922328,1.1225303289701742,2.87474190167847,3.9671285463313413
1569407418985729.0,2.252065335942146,1.2336514004635313,0.9870702527282138,0.9594276273551615,0.8219652743656113,1.1234045343495456,2.8896941703824823,4.006515796664174
1569407418985729.0,2.230834299737478,1.234109769703408,0.9916974966483965,0.9617494647086111,0.8199764724445582,1.1256097592690357,2.905242463353154,4.035797917377903
1569407419006673.0,2.2123336234718627,1.2354782803988158,0.9952243920493867,0.9628660158845554,0.8193928334880997,1.1293265469742433,2.9234248402365393,4.06070676333031
1569407419006673.0,2.1982001856598026,1.2385289931332337,0.998717404166885,0.9638961155401982,0.8180385752920681,1.1326198548347144,2.946338527256184,4.087006105730817
1569407419014650.0,2.188328706075814,1.2417557696794104,1.0041013024075005,0.9647753161431485,0.8142043605996405,1.1344741954694677,2.972412017890673,4.114212249556187
1569407419014650.0,2.1797693546604044,1.2446454891269283,1.0125354856218445,0.964670183253198,0.8074443462707328,1.1347753851429179,2.99875547464323,4.143776391277314
1569407419029656.0,2.1713078017145855,1.250614098523777,1.0220690933544916,0.9624512378736633,0.798996643947595,1.1354284739150446,3.0266446158412443,4.176536998771158
1569407419029656.0,2.162846271833867,1.2585526081103033,1.0298674440544051,0.9572000355887327,0.7903935525755011,1.1384925582213066,3.0556054552417393,4.203835998763895
1569407419030608.0,2.1580704368601555,1.2648742829661082,1.0338450796938572,0.9485612026216163,0.7820726173531943,1.1441234785123224,3.078341297772292,4.224545026541872
1569407419030608.0,2.1572600092296677,1.270043208561208,1.035954468802115,0.93949064459389,0.7735831210146121,1.1514552763745212,3.093661410067035,4.2435000539385905
1569407419052550.0,2.153207175114685,1.2755595899727314,1.0390770213148839,0.9319093878985097,0.7672750958299603,1.15759498648617,3.0972567898824046,4.2634523891349145
1569407419052550.0,2.141302489515867,1.2790712830372892,1.043459068709485,0.9260584824610799,0.7629352168544435,1.1613845758756287,3.082310446541194,4.28302853586386
1569407419053585.0,2.1251945425417897,1.2808888790351856,1.046064427600149,0.9208449086630177,0.7598059131072051,1.1647421173736943,3.0606569231361016,4.303927145660006
1569407419053585.0,2.1066607813203246,1.281550889702716,1.046848389944717,0.9163326085588622,0.7576904345112523,1.1687106634084474,3.045324603143277,4.326121540728155
1569407419066512.0,2.0867501359946896,1.2805016946966818,1.0486329878796683,0.9134383043645699,0.7557062359507907,1.1733707163986333,3.0373252826241957,4.350962005882655
1569407419066512.0,2.0667116501291534,1.2780258784665366,1.0516610248177483,0.9122761109711777,0.7537475022495665,1.1788058853518675,3.030144600298156,4.375281804951818
1569407419075488.0,2.0501308948677903,1.2785395884365014,1.0558100064602727,0.9137921108111815,0.7518341481527494,1.183182892372187,3.0177800264407315,4.393685082486607
1569407419075488.0,2.0392836646610966,1.2838640055208896,1.061336442327869,0.9190550815198255,0.7479618120195904,1.184369656625358,2.9983579169833368,4.405956668920596
1569407419090448.0,2.033699757951656,1.292681118950514,1.0661459600287195,0.925049799158843,0.7411070150421752,1.1831462920893365,2.977168984284196,4.413202489234239
1569407419090448.0,2.032599062345367,1.3026190546801506,1.0713003422481957,0.928786019102488,0.7313139183276539,1.1813209305233243,2.9588547320471084,4.416808502153396
1569407419090448.0,2.034339183994202,1.3131147740904983,1.0778265561261327,0.9312590526845848,0.7205442779189734,1.1819069140328742,2.9463966555521584,4.420021483949794
1569407419090448.0,2.0337911088719793,1.3227615133715966,1.0831209540058186,0.9324749616233369,0.7120271962740723,1.1862177588327298,2.9401017078745304,4.421771212522287
1569407419112389.0,2.031521893103293,1.3329439315755829,1.0849376483264819,0.9334559792119139,0.7065839343441099,1.1915301626785295,2.9389235099389577,4.4279734577447085
1569407419112389.0,2.029635488152202,1.3433606398933386,1.0833204583479783,0.9361692001401203,0.7046378660015602,1.1957101904382181,2.941528945045594,4.437869882277356
1569407419113396.0,2.0273710579525757,1.3544750457701238,1.078794436148624,0.9396379109135976,0.7056538913899318,1.1996467439322993,2.94945752825394,4.445320909825859
1569407419113396.0,2.0273665750148573,1.3670525034441543,1.0734518149467132,0.9428589645497514,0.7102816742658297,1.2044069359124334,2.9659932069836987,4.45217190619634
1569407419126352.0,2.0295263308511133,1.3780583940743367,1.0680620432293833,0.9468871379565418,0.7175253051040599,1.2091664289004826,2.979795098193768,4.460648789278344
1569407419126352.0,2.023573633231763,1.380876979049893,1.0629758397768705,0.9516427681271623,0.7272119551517999,1.2128853226085043,2.9710398601173043,4.466452921371605
1569407419135329.0,2.0092031842384097,1.3773116274874342,1.0569198644594149,0.9552313385456241,0.7373232707232644,1.215586519996406,2.9505475746016625,4.47390345007038
1569407419135329.0,1.995708992155745,1.3723405890154792,1.049881655510522,0.9586679925206922,0.7502569552165472,1.2162834306509616,2.933760848783982,4.480376666362629
1569407419150289.0,1.9869378036241252,1.368917494601659,1.04441301963803,0.9639758174733043,0.765340070367088,1.2137748440991785,2.9149590649497115,4.481319087787343
1569407419150289.0,1.9803144492049478,1.365453362860433,1.0422218821490246,0.9700625446583562,0.782749224570808,1.2096306575726803,2.8861850530092528,4.481271838912263
1569407419150289.0,1.9765937329065537,1.3625742843558641,1.0412908054657102,0.9770599679757888,0.8001146858987709,1.206865097111997,2.8526889984764816,4.4805164956832675
1569407419150289.0,1.9786336941865705,1.361585727819384,1.039924521264557,0.9858470577380182,0.8201548406071095,1.2066790682884292,2.8189523398228826,4.475027249791598
1569407419172232.0,1.9843542677962651,1.3617768660724123,1.0365901369793022,0.9954893202888601,0.8417921288266981,1.2093840779926917,2.7878164104827525,4.469250313642488
1569407419172232.0,1.9890371785334466,1.359065481017533,1.0323064603172438,1.004953039780135,0.8651026584214654,1.2132657612326732,2.7612929249085503,4.466813409807756
1569407419173227.0,1.9913100397111505,1.3558552911652504,1.0286483319240263,1.0133906287003267,0.8845404315325279,1.2153037255498997,2.7399687208504093,4.461209973363459
1569407419173227.0,1.9890281499704106,1.3534174065532718,1.0282094011923575,1.019836209357086,0.9009151090402352,1.2150261927085222,2.7223396661629944,4.443301002198776
1569407419195169.0,1.9833272856959914,1.3519074524853483,1.0293385729800408,1.0234425953234045,0.9150838573057294,1.2152750816727773,2.709291836303435,4.421636833089224
1569407419195169.0,1.9756851040474748,1.349339171122543,1.0274029254945787,1.022277857005866,0.9294480531218615,1.2173676690917978,2.6994173235248753,4.406320624737638
1569407419196165.0,1.9680139046267617,1.3465504158341655,1.0204718579178165,1.0183526293378755,0.9424514318011984,1.2195041198363252,2.6930738338021953,4.401807091750929
1569407419196165.0,1.9633817718530762,1.34245732106785,1.0094095099753202,1.0165064794238579,0.9545435434132958,1.221452044438057,2.691562821371117,4.407555165040306
1569407419210128.0,1.9641289189281708,1.3388701128263818,0.9952497326114124,1.0167101019613676,0.9637460333801922,1.2243181782925865,2.698404925108552,4.422996475356521
1569407419210128.0,1.970136286812382,1.3358445735732638,0.9821518384578296,1.015025609011029,0.9726396795472502,1.2282042192144622,2.714689017664286,4.449461254431062
1569407419211127.0,1.9795917499395719,1.3354730363851375,0.9721732387484721,1.010443014972386,0.9818460347369536,1.233511641130818,2.7401907058679775,4.48806519768908
1569407419211127.0,1.987359404829777,1.3372886498294188,0.9660849753676993,1.0058862730413787,0.9921503665530543,1.236683490361587,2.7610647297505277,4.525069067102594
1569407419232071.0,1.9899953638246775,1.338607831611337,0.9628810371532461,1.0033094574495949,1.0004090612020882,1.23426952536834,2.7629805080182317,4.550308261156245
1569407419232071.0,1.991125552024287,1.3368064406113747,0.9609853320137869,1.0017496090302311,1.0039408342999732,1.2267248645445474,2.749797199488166,4.575068007040012
1569407419233067.0,1.993168207725209,1.3349055966328418,0.9589310551442286,1.0001953192941568,1.0006494469705873,1.2134145837823416,2.7252821116454764,4.607703916320178
1569407419233067.0,1.9925385947933205,1.3300086440981993,0.9569189920662277,0.9976731502556975,0.9945005418098536,1.1982980604984534,2.6869224602985695,4.639763975828515
1569407419256006.0,1.992599674029148,1.3226015703941827,0.9546493402289312,0.9931463915322953,0.9876195480718711,1.1861070456910654,2.641262812902095,4.667603212914179
1569407419256006.0,1.9955402035630656,1.3133906556977601,0.9513966474286635,0.9875819849818783,0.9833721882552344,1.174443862586316,2.5918836735368984,4.688873033079653
1569407419256006.0,1.9979645912868926,1.3034910099999413,0.9465707270088697,0.9829224587090163,0.9828034374727491,1.1617731099799122,2.5410175199445,4.698028837756359
1569407419256006.0,1.99796840503924,1.2924308894955951,0.942336806729279,0.980191075680057,0.9841728573852895,1.1507864254309634,2.487814229195918,4.691427479627809
1569407419270008.0,1.9960556310315065,1.2833587392505288,0.939529963250916,0.9793891189949752,0.9831279866708662,1.1431272232131413,2.4334698263517183,4.675776556060895
1569407419270008.0,1.994957432751118,1.2766250585445054,0.9395698737429379,0.9815082444412059,0.9804344286767547,1.1370720702445096,2.3787628717603284,4.66300558792535
1569407419270966.0,1.994763543554576,1.2709285810102255,0.9415456274959705,0.9855399716241946,0.9785954239697698,1.131439253154487,2.3270277083986453,4.654072304512606
1569407419270966.0,1.9926071029958075,1.262438900731899,0.9426741871076971,0.9884945892596537,0.9788451365987856,1.1269834935487721,2.278075902276314,4.639279333496126
1569407419292907.0,1.992010391878691,1.254835640149243,0.9424323847046756,0.9904323239563395,0.9796976675486568,1.1249490769412969,2.2288269695656906,4.620829424247112
1569407419292907.0,1.9956996109633354,1.2483317823342752,0.941979251457237,0.9923263134719223,0.9785815610922887,1.1245451711084566,2.1770063445937846,4.600104413122204
1569407419292907.0,2.003351713129912,1.2441543083649067,0.9420227834946563,0.9942190490108241,0.9743681411050428,1.124685138816298,2.1278960767195216,4.57577159104104
1569407419292907.0,2.016133833456336,1.2415710135707319,0.9449419940544984,0.9970866256181957,0.9693313401287325,1.126166366169061,2.0834376483944577,4.545398381226976
1569407419315848.0,2.0334450099040726,1.2388140662394962,0.948942699077712,1.001938012413814,0.9651429082525962,1.1302516057807626,2.043282508927437,4.5078066756419535
1569407419315848.0,2.049081337700458,1.2340343711721353,0.9501305025749652,1.007719168568447,0.9629261301260399,1.1361531858110345,2.0063265786414073,4.463944055411948
1569407419316845.0,2.0630759984241673,1.2322710150688694,0.9489363560613899,1.0135052596819036,0.9624110446196276,1.1430366924001056,1.974786973637998,4.419209764292096
1569407419316845.0,2.0769442085405183,1.232447079774841,0.9466183859937293,1.0182892996303037,0.9617663271131611,1.1480048510486287,1.9478261803518806,4.374949934192917
1569407419329848.0,2.085713016170618,1.230519180972687,0.941831001305843,1.021188834825601,0.9579424895210513,1.1483994497146588,1.9242757388187128,4.332672264755738
1569407419329848.0,2.089613242357575,1.2254179798203155,0.9365179210941073,1.0232022273107633,0.953098225423103,1.1485277620390206,1.9028200010261862,4.294407173329698
1569407419330806.0,2.0936357323935733,1.2221412699026435,0.93257231736368,1.0263566609651016,0.9490289415594957,1.152914517181086,1.8853802290753368,4.26162692812625
1569407419330806.0,2.1001627686296254,1.2202077625249854,0.9303164141043877,1.0325692158707869,0.9448156345984378,1.1611388287195916,1.8697843027240357,4.236617796090217
1569407419352786.0,2.1109988778339,1.2197112136937238,0.9306042402564433,1.0418237729647293,0.9413486644420411,1.1714389879640934,1.8547057157817664,4.221169192056625
1569407419352786.0,2.1272097245783166,1.2198032888386718,0.9338917776287163,1.0511251854425994,0.9386761598455001,1.182903092055439,1.8419623578902613,4.210590543845499
1569407419353745.0,2.1437067719020835,1.2197757879958655,0.9371525081086385,1.0566899617859067,0.9367190156161282,1.1938215301821486,1.8348968251382847,4.197822009103059
1569407419353745.0,2.149393061099897,1.215380723413704,0.9383532705181411,1.0576288985684943,0.9365132140660131,1.2011405660080592,1.8329233218191694,4.173677492184901
1569407419375686.0,2.1433852294880396,1.2067911322915732,0.9391126318106561,1.0568906591046356,0.936001444145578,1.203450289904811,1.8337731797419443,4.142489297043415
1569407419375686.0,2.132067542876439,1.195342749539124,0.9407817613670667,1.0554447521429648,0.9332908795759,1.202135087089423,1.8353076303990155,4.108063991719041
1569407419376682.0,2.121882759656565,1.1859638178454406,0.9412512383280563,1.0522497064708385,0.9293337445277968,1.2000939537965176,1.838862400799859,4.071885237564802
1569407419376682.0,2.11506456451675,1.180238952438889,0.9405329915061859,1.0492414548017177,0.9241209697906079,1.198429258144359,1.8429446812038681,4.039222838986312
1569407419389649.0,2.1092130625285277,1.179524608412936,0.9393963589040388,1.048374254961417,0.9176242586937068,1.1982879923420944,1.8495133523625022,4.015082829154509
1569407419389649.0,2.104708291182055,1.1832812202212635,0.939032301390553,1.0487570482928041,0.9117770373650981,1.2000554919015671,1.8608694210717525,3.9996586676238826
1569407419390647.0,2.1032592554666762,1.19165571900299,0.939439183816426,1.0483921683954578,0.9075665723416985,1.2020313006242573,1.8748306988387762,3.994718490915476
1569407419390647.0,2.1040842576740713,1.2020421544999824,0.938848571007186,1.0463062541071422,0.9059849918807731,1.2030576942796076,1.8897101965393064,4.001342609374005
1569407419412587.0,2.106705315843685,1.2132290105148797,0.9369389725494911,1.0433640962276007,0.9079772363089518,1.203177195377647,1.9068193707877508,4.0148491552017225
1569407419412587.0,2.10890627538483,1.2214100732296809,0.933932196460344,1.0406217181166744,0.9115757291568268,1.2014406045607346,1.9271445843854293,4.025342764905995
1569407419413586.0,2.1115463712162352,1.2266846008161334,0.9285217233880008,1.0380162506488089,0.9137802085497808,1.1966863190301282,1.950096306620561,4.03041828794817
1569407419413586.0,2.1143876265353194,1.232174202928389,0.9216528252309897,1.0356684476935376,0.9146804688684069,1.1884861980767536,1.9629764852508225,4.030598263883442
1569407419435527.0,2.111398547507,1.2399706130560253,0.9150495508649257,1.0315748666122404,0.9142639366736577,1.177391384370739,1.957558877605086,4.024890873411664
1569407419435527.0,2.1011079452779637,1.2485977051349972,0.9100387146819319,1.0236630476575286,0.9105732096868033,1.1651691854103268,1.9443322067848738,4.011755969058897
1569407419436523.0,2.0899297908932355,1.2579229217740098,0.9065613626635534,1.014505797275726,0.9045708067879773,1.15213693316405,1.9334709628139795,3.994159286912923
1569407419436523.0,2.0806887974568387,1.265278404119161,0.9040043190538503,1.007240174844846,0.9001102252629531,1.1369938719493,1.9236752730341546,3.9759223649332025
1569407419449532.0,2.0727672814179177,1.2710741692248504,0.899196182558825,1.0018330962921314,0.8982573205506228,1.120219910366962,1.9130221334064492,3.9637742797357083
1569407419449532.0,2.06786805098899,1.276538950868206,0.8909260924433521,0.9994487453986709,0.8969891673013876,1.1034925408221923,1.903882233722222,3.960594674250666
1569407419450486.0,2.0679819277365783,1.2827299525516753,0.8816483946962418,0.9992054577866406,0.8944152757827258,1.0889950649020177,1.9010184228677023,3.9622712654182384
1569407419450486.0,2.072442284562768,1.288011968441434,0.8747073678065589,0.9973118038537313,0.8894357195535093,1.078233574529244,1.9039622348606757,3.963234757143461
1569407419472427.0,2.0822110249407397,1.2924168057863252,0.8692332548258722,0.9914518932988441,0.8821313525511111,1.0708635728113625,1.9100338458957566,3.9629366937347488
1569407419472427.0,2.092336096527952,1.2920973973319592,0.8633196272321447,0.983468428908701,0.8722715847920695,1.064922196115323,1.918910699613743,3.9547998151785317
1569407419473424.0,2.095676192951245,1.2870798691620309,0.8576503139804192,0.9752404356227631,0.8609063595295808,1.0600492131216597,1.9309023206125504,3.9388556556238594
1569407419473424.0,2.094434971232082,1.279975260355671,0.8534331218562943,0.9659391328638459,0.8497629315424606,1.058317858323634,1.944824407758324,3.9256495749275313
1569407419502349.0,2.0911476974998227,1.2730642564481247,0.8505871012029498,0.9552679039207012,0.8400311735312358,1.0594489470616086,1.962857411665824,3.9173092838735935
1569407419502349.0,2.084299247435925,1.2652575495848244,0.8492548583948529,0.9442996775719966,0.8315509373081327,1.0604935054945468,1.983292632280016,3.904238641775576
1569407419511324.0,2.075568810694111,1.2587893708620177,0.849350396749856,0.9328551964541477,0.8254536483711988,1.0592095695741188,1.9981987800285193,3.889647274373619
1569407419511324.0,2.0656241115821254,1.2509228187946355,0.8509686487641395,0.921979447400563,0.8216668884383148,1.053883734159919,2.0078674501887894,3.8798678218253455
1569407419513318.0,2.0573411321194706,1.241182201452529,0.8540617881065139,0.9126035025363671,0.818234422964481,1.0467685103846995,2.0194380996359094,3.874478175831045
1569407419513318.0,2.053454687649334,1.2299848436146847,0.8567109050592521,0.9048755584877902,0.8151244598722288,1.0419925786994915,2.0311677360959304,3.8695352635753015
1569407419513318.0,2.0527722210356463,1.2205389992949094,0.857798105554866,0.8997167263583516,0.8142838729240264,1.041223115440791,2.041009871381676,3.860895850827919
1569407419513318.0,2.055024732205767,1.2122641964153489,0.8593291802059929,0.898288468446977,0.8147336533310154,1.0438937847885923,2.0528602790355133,3.8517925348038236
1569407419532267.0,2.0620834307188396,1.2044927101914162,0.8622995159410125,0.9005925326101261,0.8143908372818216,1.0481831784959197,2.067004603911158,3.849391988925599
1569407419532267.0,2.0699940229751377,1.1948115328048605,0.865767325693933,0.9036896960485512,0.8143851025563251,1.0529170483476542,2.0824031209382845,3.8464536596992054
1569407419533265.0,2.070966761033348,1.183906139212097,0.8677276280937275,0.903482662135494,0.814537633863799,1.058101852576609,2.102141812713243,3.836474543550617
1569407419533265.0,2.065588108376588,1.1721723456547841,0.868186656102902,0.9019058392454854,0.8150146691822282,1.062729464643205,2.129340871648129,3.82853863098114
1569407419555207.0,2.0607174121308347,1.1630715609665494,0.8671276592043609,0.902945131667108,0.815573353374322,1.0665837190096203,2.161219008330716,3.8324962665402094
1569407419555207.0,2.059127298800364,1.1549645805673725,0.8645490599441977,0.9066168816895334,0.8134206135188986,1.071717553034707,2.1918509589312456,3.841744856418061
1569407419556204.0,2.060663211786872,1.1478907012556863,0.8624131910937366,0.9099235488059583,0.8065202467863476,1.076653195123197,2.221301952892812,3.8454294140220937
1569407419556204.0,2.0633225187122157,1.1406516517985947,0.8607391827641273,0.910884698652034,0.7971139571377387,1.0770667135134577,2.2516444044936867,3.839196433532716
1569407419570167.0,2.0668574610502506,1.1342690320160913,0.8595276612731478,0.9105285881950801,0.7889980423946158,1.0742045535474212,2.283033948209977,3.827902063225953
1569407419570167.0,2.073082296039583,1.1275764321835458,0.8597623871600835,0.9098273518426269,0.7843067844554416,1.0719916630155415,2.3165797015100487,3.8188562598313474
1569407419571203.0,2.0835606890660983,1.1223898979163236,0.86045722219256,0.9088065041695503,0.7826966879252298,1.07172777140774,2.3525199795137897,3.819820729458891
1569407419571203.0,2.098564006780635,1.1199454937300228,0.8615930333998051,0.9074532721341683,0.7833491122608889,1.0745127268715502,2.390091356065645,3.8306020425144123
1569407419592108.0,2.1187709729296564,1.1209474645194715,0.8631781284530822,0.90683199463185,0.7838679855625615,1.0817741257098394,2.4277640962490303,3.845391643752382
1569407419592108.0,2.1429015045582136,1.1214552509954527,0.8641878232256747,0.9088617674321435,0.7837817450760434,1.0909564206156874,2.4609313318055155,3.8619841474885956
1569407419593106.0,2.1669709336388427,1.1220124551144341,0.8646556401348469,0.9125041965775167,0.7837879095592807,1.0979496884888955,2.490994777315441,3.8883100804790245
1569407419593106.0,2.1819063810156427,1.1217747701858374,0.8625639618962905,0.9157493063314416,0.786318446157578,1.1023615326562501,2.5138495356379256,3.916705525171637
1569407419616043.0,2.1822560004320777,1.1204051197052645,0.8580515148166415,0.9197032784880435,0.7905867802831097,1.1050774653206235,2.5185801659046803,3.9278609853485706
1569407419616043.0,2.1764217650430755,1.1185971348228936,0.8540502075303864,0.9242293330320218,0.7951513339096152,1.1069723942676597,2.5114066695986508,3.9255567283518435
1569407419616043.0,2.174551200561454,1.1196551846854883,0.8505814973816805,0.9284200666325756,0.7995904786837915,1.1091056740288259,2.501547255993136,3.9235741867004434
1569407419616043.0,2.1763459757262704,1.121297527403309,0.8476521225227915,0.9312456113976837,0.8054963925532438,1.1114803833405418,2.484293099684855,3.9254330432111995
1569407419630046.0,2.178232910349366,1.1212767391561702,0.8473484546241417,0.9329314655827848,0.812158008817755,1.1150349472921037,2.455485794027792,3.9339700700472124
1569407419630046.0,2.178843382578755,1.1180406357011667,0.8494735188567064,0.9354119074295589,0.821141150938388,1.1218833535004227,2.420916839743781,3.9477274032548437
1569407419631049.0,2.177175522848141,1.1151809471943661,0.853163196549302,0.939701904915889,0.8303403286344989,1.1324181619764233,2.3897476621101785,3.9629518261357726
1569407419631049.0,2.1724335216703587,1.113321013279169,0.8593166827042543,0.9456170277198859,0.8366397187217323,1.144855499186182,2.364731539414719,3.9813983086257245
1569407419652945.0,2.1672507156783682,1.111626287534275,0.8688549188577487,0.9522124669228911,0.8389462158023847,1.1572792202778184,2.3440859149800986,3.9995668212564657
1569407419652945.0,2.164198097102407,1.1079998985760777,0.8793375782412681,0.9584659685193214,0.8400776537410555,1.1685826685013652,2.3233369658855945,4.008755071785417
1569407419652945.0,2.1611125249079715,1.1030931357428306,0.8880635341135378,0.9655299932584172,0.8402446153458003,1.1797140338593568,2.3041573873408425,4.014214210483818
1569407419652945.0,2.1562190367831398,1.0967525622992886,0.8941788077154617,0.9731430496433047,0.8389599563416884,1.1918962750318347,2.287879238250671,4.019327283913066
1569407419675884.0,2.150642353726202,1.09102645624711,0.8991680513798576,0.9784618538999578,0.8338510582441502,1.2036845797241835,2.270968227010256,4.019466130027376
1569407419675884.0,2.1431015281816337,1.0842059376231843,0.9058461111093221,0.9796718475498896,0.8268387624201458,1.2102170863549535,2.2523287937287355,4.008622675599212
1569407419676881.0,2.134277853375749,1.0759483747411485,0.914993383515825,0.9780752459694131,0.8212833655923236,1.2096708033456787,2.2341342649140667,3.992626470857872
1569407419676881.0,2.124862333283207,1.0658937182237112,0.9233107033468166,0.976571727773181,0.8183694242770798,1.206282743281429,2.2160650125955295,3.9766871559656685
1569407419689850.0,2.1169101645780946,1.0568797160837362,0.9304383166055462,0.9770745604391528,0.8164373161793219,1.2033645195896554,2.1992801834081495,3.9588547870055475
1569407419689850.0,2.112125524297469,1.049401255462675,0.9391436966805766,0.9783882411957034,0.8160478257670751,1.2002682758072656,2.184555483061676,3.9378074861448518
1569407419690844.0,2.108599035629079,1.0428068204180703,0.9482252165709094,0.9796698797783311,0.8165203218647603,1.195963049793407,2.1736129559684643,3.9149228510975127
1569407419690844.0,2.1018993391653926,1.0337837591294148,0.9547865451125632,0.9818700081874414,0.8183607976364858,1.190354598401274,2.1629473769007657,3.8944662894899116
1569407419712786.0,2.0907418458147844,1.024654049279534,0.9602606360638194,0.9859831133101226,0.8197850391648552,1.1823292664762184,2.1468107678168113,3.880837716035822
1569407419712786.0,2.078208455480972,1.0168149436474405,0.9644312610624665,0.9908648291280251,0.8194722170318598,1.1721640385758691,2.1293985820608214,3.8712553792493725
1569407419712786.0,2.0670387002590815,1.0104805843934526,0.9676192656073831,0.9966501319469456,0.8151145695671774,1.162740779566672,2.1178365229547405,3.8625728834818664
1569407419712786.0,2.0566147849364893,1.0036738031178696,0.9706261063025129,1.0031458355116725,0.8087692282275809,1.1554200490705728,2.110005099365379,3.8554612034597864
1569407419735723.0,2.046117015727336,0.9980618279032548,0.9735374097634527,1.007499976262146,0.8027727945936621,1.1507017623591587,2.102080340037625,3.853537215434879
1569407419735723.0,2.034263177172135,0.9930975426487885,0.9752103368874727,1.007870548183795,0.798595861255262,1.1472180395366613,2.092277858836075,3.8520076228236
1569407419736721.0,2.0204396512886675,0.988491305346109,0.9759551664120436,1.0044749697671385,0.7964502929173513,1.1409201572609105,2.0812751781071035,3.8448496526153124
1569407419736721.0,2.007060294079627,0.9834218331350865,0.9765507857177205,0.9992578831065676,0.7966902224889012,1.1305259126041358,2.0725238599073377,3.8364305850167137
1569407419749686.0,1.9958489799847374,0.9784193764433629,0.9761329179030855,0.9941427675824273,0.7965393674017224,1.1195439923931876,2.0699328896282663,3.833190464715302
1569407419749686.0,1.986858017305828,0.9747588497100765,0.9746887819066068,0.9880293489152169,0.7969933308256377,1.1095683047416587,2.072020410039504,3.8375367154940303
1569407419750683.0,1.9807370230634764,0.9734687042095755,0.9733826558784812,0.980977910454345,0.7980462792388553,1.0988149238178475,2.0760929011689395,3.8479646406102983
1569407419750683.0,1.9755034786649703,0.9719101997213871,0.9730223262770508,0.9749003150809668,0.7983757516596939,1.0865227962057797,2.0807500237040193,3.858667461385503
1569407419780607.0,1.9716450394018263,0.9714397235571899,0.9736372650853539,0.970754773834047,0.7966395155443413,1.0753477253986388,2.0871044125271405,3.8724732325550693
1569407419780607.0,1.9729016164765734,0.9726582378826516,0.9741860321583588,0.9674487414147145,0.7958399537615085,1.067873073116675,2.0966841172878463,3.8891716104163883
1569407419781601.0,1.9754235809262326,0.9762263771853387,0.9769528992606732,0.9640539150155243,0.7958827325842035,1.0640336726071555,2.100773852962326,3.8945747315891746
1569407419781601.0,1.9695046709080553,0.9798822113172173,0.9834594062080577,0.9615184064592982,0.7974616556156737,1.06118495810856,2.0882625755590087,3.879879935746101
1569407419795594.0,1.9582147815304887,0.9808873947188852,0.991602543707429,0.9598181474268446,0.7985301345833691,1.056899263440277,2.0687910935515177,3.8574427749758877
1569407419795594.0,1.9502220837660167,0.979431278541186,0.999412449427963,0.9569342129942948,0.7993120902065751,1.0515930106837068,2.0540156465535935,3.837656556829241
1569407419796561.0,1.9448010985721353,0.9789060229884827,1.00817626241445,0.9540188289578346,0.8001347319695291,1.046423896193587,2.0425559153294808,3.8183764416365973
1569407419796561.0,1.936688713146175,0.9791379721356226,1.017591713061723,0.9529383178045582,0.8037853541306655,1.0406652040503717,2.0301837039053727,3.795123937293982
1569407419809528.0,1.9239627390119107,0.9794820420540449,1.0268990282334738,0.9536715469971062,0.8086309634627095,1.0320715379489405,2.0157284149872408,3.7701793968866584
1569407419809528.0,1.907269314635657,0.980528605167747,1.0360132547138323,0.9550416400108316,0.8135365411553751,1.0205555836649105,1.9995572496292653,3.745654532175314
1569407419817538.0,1.8906757613633662,0.9837679535272416,1.0450616432071638,0.9541934804703773,0.8157620030518841,1.0098099542889574,1.9837249305955358,3.7216932089391803
1569407419817538.0,1.8739090283152553,0.9860683667893301,1.0519183837984765,0.9512937138931887,0.8169757465904871,1.002740675828635,1.9701795321866122,3.6956769647050995
1569407419832500.0,1.8553099959329633,0.9855389998608433,1.0550842474045805,0.9494455140929435,0.817145153464963,0.9975032468152043,1.9585980509281669,3.667952979663957
1569407419832500.0,1.838345762849339,0.9827892657525882,1.0556564753780815,0.9494778628875488,0.8176496184662534,0.9896653809544929,1.945518536923512,3.6401655131922235
1569407419833501.0,1.8252337787776831,0.9770267509946122,1.0557541553087533,0.9524294509181654,0.8195773578238539,0.979211088715649,1.9335067930962007,3.611909074741235
1569407419833501.0,1.8145613266114704,0.969698897284459,1.0570950691902412,0.9579721871617969,0.8255814836910041,0.9679957395597726,1.9277211988953789,3.5826031863455587
1569407419855436.0,1.8035350941948096,0.965136820944217,1.0586255944412843,0.9641794989883863,0.8338150502241918,0.9561784583519355,1.9290596913515485,3.557576798623095
1569407419855436.0,1.7900523959557717,0.9643394288969425,1.0583779280331755,0.9709723853824666,0.8439866550536916,0.9435344388560877,1.9346266137035117,3.5381128411161
1569407419856401.0,1.77653453582541,0.9666348262050594,1.0574991905223736,0.9773015202873839,0.851874247765122,0.9308981187166158,1.9425150463482193,3.5234479484078234
1569407419856401.0,1.7662433505247288,0.9698727766632511,1.055850400094993,0.9792670457554485,0.8589056882324498,0.9193851375739952,1.9515268807882264,3.5177339471984994
1569407419869556.0,1.7605587792871016,0.973144298447042,1.0525527538553618,0.9774792825166978,0.8669189301896174,0.9092363141218139,1.9618775332177691,3.5221527214997335
1569407419869556.0,1.754243663519115,0.9753370971437493,1.0485668276150824,0.9749025271222905,0.8773181261344208,0.9005827559026931,1.9687969449308746,3.5271442507419026
1569407419877386.0,1.7408956003017346,0.975504167406581,1.0458790114147785,0.9736194910044346,0.88644329829553,0.8925738324575005,1.9648161718017512,3.5275909994979147
1569407419877386.0,1.7234273100771749,0.9755502189951706,1.045334439854065,0.9753714846055601,0.8940304404773924,0.8848985255870547,1.9557708347510219,3.5251320577147793
1569407419892306.0,1.7083372104553987,0.9775470325396395,1.045939677298344,0.980045871444933,0.8986000693959922,0.8786903429256426,1.9500471388083,3.5203145505332336
1569407419892306.0,1.6964728226597428,0.9805097287538415,1.0466795231268184,0.9864923537789542,0.9040602880024855,0.8730746983892194,1.9469737890461194,3.51858253705512
1569407419893302.0,1.6870907670006066,0.983446356780077,1.0476090835284375,0.9957762373813994,0.9105930060124778,0.8677902885334509,1.9456585839650862,3.521397864055816
1569407419893302.0,1.681011389991783,0.9874377613296607,1.0477142161465827,1.0063760808926412,0.9192141269481088,0.8648424553626368,1.947978704284499,3.5219668851846913
1569407419915244.0,1.680670535008891,0.9944130411017977,1.046083897052298,1.014590325114082,0.9284310130545441,0.8646814665228677,1.9563048775737728,3.5230733714656703
1569407419915244.0,1.686675862765916,1.0044230013748272,1.0446775527216607,1.0198018157988777,0.9394843611356295,0.8653364330674723,1.9668639005161974,3.5293082047248983
1569407419916241.0,1.6965149191306514,1.0163050979270631,1.0454488369841592,1.0243846506953198,0.9507688462435282,0.8665982338435473,1.9746517054485009,3.5400347390234734
1569407419916241.0,1.7068857942552804,1.030156912309771,1.0464323511707467,1.0301255468108954,0.9624942455509696,0.8695462465515751,1.9803619324624981,3.5518403893846706
1569407419929207.0,1.7175793695930117,1.0427642411406004,1.0447318869789821,1.0379922578165361,0.9726072720756941,0.8723542754316235,1.9872521608595346,3.566146086542301
1569407419929207.0,1.7276679359916327,1.0505653978573728,1.0403622491032392,1.047668826661182,0.9825664722006577,0.8727328208512694,1.9877351320244374,3.5884358647866956
1569407419937215.0,1.733900132946546,1.0546234431754458,1.0342552907738345,1.0581321138825799,0.9901843023932752,0.8724159256315631,1.9723121117151312,3.6168737533369715
1569407419937215.0,1.738538796487769,1.058091423084924,1.0263936164434375,1.0663971975940005,0.9973565943628027,0.8745008316028223,1.9497342931313162,3.64263527326049
1569407419952145.0,1.7469749824325274,1.0627685707112215,1.0176460577715551,1.0730260051774063,1.0044906005940193,0.8802408089925137,1.9311995931713637,3.668567182973996
1569407419952145.0,1.7577804646387705,1.069733891974661,1.0080508717565244,1.079809860973337,1.0103411457390359,0.8887737141146875,1.9180784879339023,3.6973754174292495
1569407419953143.0,1.767939438347674,1.0787736678545436,0.9974619830378382,1.0857705854280182,1.0127757733034077,0.8971192141052982,1.9106570396470908,3.726247123423645
1569407419953143.0,1.7772655363986007,1.0870185256526055,0.9859471079800864,1.088937240040594,1.016150649702942,0.9031509486664469,1.9080291386406079,3.756769555470163
1569407419976081.0,1.7857516003375127,1.0896001354209528,0.9722902697142415,1.088697937742271,1.0186877431140537,0.9087908171014849,1.9082673293113304,3.7894473203396197
1569407419976081.0,1.794305946732944,1.0887595503713448,0.9584321128469704,1.0870634587236774,1.020910227911691,0.9160944447150327,1.9103042281733544,3.8250468174804575
1569407419976081.0,1.8040182726654281,1.0882945389725798,0.9433867052384001,1.0859746987507939,1.0235743357192117,0.9251169521875687,1.9131465400162901,3.8669593606367574
1569407419976081.0,1.817064239089252,1.087230724867509,0.9249533146104763,1.0852505335795875,1.0261228993100318,0.9368765277966219,1.9167546502198987,3.9205470895787577
1569407419989071.0,1.8310760813055713,1.084538406141729,0.9066472346919503,1.0849663073494324,1.024969473770444,0.9494129802689176,1.9191468955424165,3.977805606133696
1569407419989071.0,1.839981641646044,1.0812303998757695,0.8917675089645354,1.086007687562352,1.0218536719554607,0.958789721882447,1.918349927623985,4.0235441600909745
1569407419997025.0,1.8425180310892744,1.0782384427022924,0.8794302611987154,1.0883359861080646,1.0179775084811624,0.9660248707950264,1.9193879584075384,4.060532626920513
1569407419997025.0,1.8372152377700823,1.0735900148342572,0.8677648521988447,1.0899274676268929,1.016058750644104,0.9731242765947371,1.9242630808439818,4.085886661009867
1569407420011986.0,1.8283299235893624,1.067261033080305,0.8545808054730002,1.0909437526149672,1.0156684968207041,0.9801179229496171,1.9299862377312278,4.099302204967803
1569407420011986.0,1.8231101359867758,1.0622231318205764,0.8397451519562051,1.0923105568041613,1.0164178313386907,0.9870331612952764,1.937733353989808,4.113762327277931
1569407420012981.0,1.81934160018969,1.0594332221297564,0.8261113368623858,1.0940538758782277,1.0165052350742543,0.993897156238938,1.9513913734093264,4.125596193448772
1569407420012981.0,1.8126921307337722,1.0589250721370778,0.8158782532994553,1.0951538463290267,1.016894321772765,1.0017255239849636,1.968749944245734,4.122459196567708
1569407420034967.0,1.8058568927566196,1.0606173703810744,0.808081909727717,1.0937371674389111,1.0166278087398533,1.0105527861957648,1.9848880451319022,4.112489382518594
1569407420034967.0,1.8000194332345958,1.0635558671775365,0.800714260630193,1.0888595389689864,1.0155183615570806,1.0184447154835463,2.002198198527533,4.102867068244924
1569407420035920.0,1.7941307333691292,1.065675826752639,0.7937592310661972,1.0814913323648503,1.01205301662541,1.0254330687223776,2.0244584953914617,4.090855020774573
1569407420035920.0,1.791058758617843,1.0671398112694646,0.7892318775745352,1.072547525193182,1.0081836693180857,1.033525699400523,2.051356625477283,4.080422737861762
1569407420057863.0,1.7931458314242081,1.068845991890016,0.7881352651676726,1.0619291338351926,1.0029992355569286,1.0428159490481734,2.077623229474625,4.075192808484323
1569407420057863.0,1.7996655011284537,1.071893364586666,0.7902118262344633,1.0515288859034142,0.9974391311132574,1.0494957487248444,2.099754836277015,4.073777301007078
1569407420058861.0,1.8067808305565018,1.0750943990253827,0.7912937807673482,1.042287611865236,0.9916505212188863,1.0506592774758,2.1168911643839556,4.0751637147939075
1569407420058861.0,1.811265703879198,1.0767025777563464,0.7876380296796216,1.033202905853186,0.9863297543111321,1.046208336135681,2.1255272221952017,4.075430631050836
1569407420072865.0,1.8139510823289142,1.0786391542726474,0.7837786893539062,1.0251882945164505,0.9815986173453596,1.0368814375045488,2.1272587297125556,4.070947503528855
1569407420072865.0,1.8167494985483013,1.0820143531567983,0.7834475614367092,1.0182786579187357,0.9768048299355073,1.026351765642763,2.1302423381278417,4.062651205374546
1569407420072865.0,1.8227396069479134,1.0866948779725647,0.7865181333972457,1.0114296136195233,0.9685724829871374,1.0176637860534652,2.1379740341700852,4.05735510391443
1569407420072865.0,1.8330967676966952,1.094838088537437,0.7916248899834564,1.0046337692023501,0.9592906378809517,1.0099104939753165,2.149364700517341,4.052621470136864
1569407420095792.0,1.845941330975875,1.1060389560838997,0.797868433067755,0.9978360095027037,0.9511590468975212,1.0030243768302114,2.164320022795299,4.0446203256140505
1569407420095792.0,1.8602664340582744,1.1174841065792802,0.8040005481039271,0.9910382256821973,0.945712021138482,0.999015921317589,2.18273608571391,4.0356011230717534
1569407420096759.0,1.8761170549283388,1.1271545962590979,0.8095260151544595,0.9841936577773895,0.943076509616205,0.9980538757657127,2.2005772352390416,4.026268597777754
1569407420096759.0,1.8925490426300884,1.1364206363614318,0.8164141115710001,0.9763238659686784,0.9447390282654075,0.9971851811157644,2.2185740596923114,4.0169935034861
1569407420109723.0,1.9076221191793175,1.1460498924896823,0.8253407347766781,0.966338758283633,0.9494798197384094,0.9952848656932087,2.2426701951715007,4.003246272222475
1569407420109723.0,1.9213411424669942,1.1562435537970752,0.8329238473737068,0.9551699551782469,0.9578094022938848,0.9952877698440886,2.2753389381879385,3.9762129032191145
1569407420117704.0,1.9347393915993614,1.1658086943819237,0.8391990969372525,0.9447447856609145,0.9671737391440428,0.9992903359372752,2.3119925453703303,3.9387823647545988
1569407420117704.0,1.9498282141666747,1.172082201106962,0.8470886402588965,0.9371009739320341,0.9744886859504535,1.0063651211579454,2.3492306849488194,3.9018773623881993
1569407420132662.0,1.9706640828770599,1.1741601345865098,0.8573050087573844,0.9332567888723386,0.9777792430768052,1.0135398690614095,2.3901567055329305,3.8723402723065967
1569407420132662.0,1.9973713423854238,1.176172133773527,0.8685225627691253,0.9321981109241705,0.979305286025151,1.0197969573052947,2.434511025498868,3.8497974041855625
1569407420133660.0,2.0271230344601547,1.180840489843703,0.8819117318689863,0.9318927697876355,0.9783393837278747,1.0271320866328029,2.478427309857903,3.8339978763708884
1569407420133660.0,2.056211339743508,1.1862256903187554,0.895627356646794,0.9303244660119702,0.976887477965441,1.035618165028094,2.519299857432906,3.819046154819648
1569407420155639.0,2.077031203131003,1.1884074226914432,0.9083621201084682,0.9275640743178142,0.9738839074441755,1.0404129951321457,2.543120970955018,3.7983710857046917
1569407420155639.0,2.0895141265042056,1.1865256027255013,0.9208428205732214,0.9265855637625638,0.9694802130986011,1.0384855451859594,2.540972129323327,3.7816184215972464
1569407420156604.0,2.1005692417642114,1.1844608480929975,0.9310320264547003,0.928324905747114,0.96420101387412,1.0346139634942606,2.5257551594432153,3.767948302289522
1569407420156604.0,2.11043872336345,1.184146315509979,0.936593006992611,0.9306908484745947,0.9608840889174318,1.0318005419992553,2.5084850155974574,3.736188914355486
1569407420178540.0,2.1173294361829007,1.1836476118290007,0.9405697435470429,0.9327842389604362,0.9594330666464859,1.0290856721566937,2.492609215587183,3.688715211700115
1569407420178540.0,2.11946099585078,1.1829127195315057,0.9444043698606025,0.9355630873075182,0.9616292519410817,1.0264479874224435,2.480918135689353,3.638349222277678
1569407420178540.0,2.111840255074282,1.1820257520988484,0.9483322574927658,0.9389937348456439,0.967087110351675,1.0238773887205022,2.4646584502663136,3.592761857326797
1569407420178540.0,2.0943543477990416,1.1809018885432854,0.9531817451311512,0.9410514149015851,0.9762540617745611,1.0223521694524358,2.436547544166315,3.556136959812852
1569407420192541.0,2.076241912955467,1.1797335439238203,0.9608881470584154,0.9418866879871669,0.9864598760648101,1.0219176611323397,2.4048717844205743,3.5280883876513798
1569407420192541.0,2.0622351875830778,1.1755022322992414,0.9703033889749123,0.9414432252567103,0.9947062947761229,1.0215693743018885,2.375391186629292,3.5117437552190096
1569407420193500.0,2.0461164385112243,1.1662404752448432,0.9775215642974867,0.9398402690131269,0.9992907757233053,1.022291759836084,2.348116270774914,3.5027986253041545
1569407420193500.0,2.0220326781382743,1.1533658697148357,0.9803165456015699,0.9379809091875843,1.0045419399197033,1.0241138930640281,2.322930279041414,3.488594035285053
1569407420215480.0,1.9928369148004348,1.1408996810035281,0.9816306570394581,0.9349100556016146,1.0089359774977598,1.0260497695067063,2.299805820039533,3.4744510919998777
1569407420215480.0,1.963181458195786,1.1297001598564982,0.9829273227094871,0.9306618680417362,1.0130695158705887,1.0280953453841712,2.2796371987570128,3.4637009951096345
1569407420216439.0,1.9351889771014648,1.1190150999817627,0.9842906278984972,0.9272877619400207,1.018992988247768,1.0302557382628834,2.263457294334472,3.4479800638092826
1569407420216439.0,1.9108970263471068,1.1094752714936502,0.985442199184474,0.9256052473487799,1.0276727172647109,1.03352720174401,2.2532665679229797,3.429023460144415
1569407420238388.0,1.891819517390537,1.1024412945874775,0.9865491051527159,0.9245794088668083,1.0348268856755332,1.0379359310278602,2.2491866518676398,3.4151513116153676
1569407420238388.0,1.8762565188332594,1.096819355020751,0.986405218602067,0.9221888761568734,1.0401188104451542,1.0415133044722773,2.2512022724977796,3.404342137374376
1569407420239376.0,1.863115580347821,1.0899357109700518,0.9856697105424242,0.9187042161152873,1.0430879280571397,1.0452503848566979,2.260332467709847,3.3906546021124693
1569407420239376.0,1.853483315707447,1.0801902542127033,0.9860980503450513,0.9170945960087019,1.0460894633649922,1.0511469877114856,2.274561601719996,3.37834153148948
1569407420252342.0,1.8446855885107154,1.0706829028540983,0.9886105856079805,0.9192182457675652,1.0500478754254272,1.0582460485273169,2.2889110040063394,3.370797844596104
1569407420252342.0,1.8342409687861247,1.061279737301874,0.9926457442826908,0.9237263562389293,1.0565865296748793,1.0646149949723993,2.301435430294181,3.3605613558619685
1569407420253339.0,1.8239370065878815,1.051129493715228,0.9972832106975342,0.9286324544995885,1.0652066746018614,1.0683214232574094,2.3171222480942,3.3495840286195238
1569407420253339.0,1.8147908098897305,1.041815290141726,1.0013996093043602,0.9318723869631537,1.0741451852923132,1.0703571709498159,2.3360300741356275,3.345329366652268
1569407420275281.0,1.8069913831458004,1.0347374099097197,1.0053651824305982,0.93178855747569,1.0791837869624494,1.070765661295477,2.346518074131587,3.350030025739878
1569407420275281.0,1.798529192384511,1.029812265555673,1.0088540762936147,0.9295420110681597,1.083132960540374,1.067519177117938,2.3427637059285713,3.36076110908879
1569407420276279.0,1.7892037100564806,1.0235694577591194,1.0111029156944382,0.9271233579517122,1.086773595549359,1.0634518288586117,2.3324695709851384,3.3733404714261273
1569407420276279.0,1.7790642377622676,1.0113499783547184,1.0111466911497806,0.9233362147584734,1.089757275798452,1.0615665444177922,2.3214685279725256,3.380488374107876
1569407420298254.0,1.7648910893598884,0.995852923696786,1.0094665653182502,0.9174248542033429,1.090501681961617,1.0610049959392949,2.307824070473954,3.376098416193661
1569407420298254.0,1.750071344774488,0.9806894705001806,1.006109745195942,0.910438654596316,1.0900857462293354,1.0578593643709069,2.2883878483125972,3.365600029299
1569407420299217.0,1.7409320718029562,0.9683023634957609,1.003605198458234,0.9044749898995013,1.08883463623439,1.0499462197656535,2.2638728052728743,3.356513455336554
1569407420299217.0,1.7379180065270374,0.9586564041276646,1.0042980712360337,0.9003061274585279,1.0881730496972646,1.040967433259157,2.2399758432143595,3.343843601242639
1569407420312184.0,1.7392042629499307,0.9500405147634139,1.0076665971347119,0.8979727194543541,1.085278026102864,1.0349549220567433,2.222802452512143,3.3228529180777917
1569407420312184.0,1.7427503377239553,0.9421046652552529,1.0102937822437035,0.897311743862651,1.0814126814184686,1.0320911215472688,2.2145275084113027,3.2985989506099376
1569407420313181.0,1.747510305140529,0.9370484041461632,1.0110981831246686,0.8984175957877418,1.077565086079076,1.0294982959807566,2.2152753161732983,3.277739355406909
1569407420313181.0,1.7524413906978955,0.9348182498881329,1.0123706700100714,0.9011106608762789,1.0722992010104846,1.024120159194643,2.2240367482940573,3.263890895564745
1569407420336118.0,1.7564938231622036,0.9345184017581633,1.0169898884821151,0.9054991102168726,1.0655060891063346,1.0157650166178065,2.238746091101775,3.2605008166955742
1569407420336118.0,1.7626094225749562,0.9360359944935331,1.0240919645292996,0.9114197014902115,1.060682220566037,1.007296896654086,2.2573283831948836,3.266722556927267
1569407420337162.0,1.7738664157529358,0.9364458809575417,1.0328301889192093,0.919946100922696,1.0567086045343697,0.9998084315457887,2.272810790690515,3.2790710598526718
1569407420337162.0,1.7873130694173993,0.9316597396058434,1.0427841493522174,0.9303882300996519,1.0532100557927198,0.9912960018244725,2.2794586247615674,3.296933960861566
1569407420358060.0,1.798970571290499,0.9236131393723317,1.0529604451263657,0.9397749210934933,1.0486184189524634,0.9826439090045022,2.282326858698617,3.324199614266095
1569407420358060.0,1.8078637581732753,0.9172625976921663,1.0610962469633616,0.9463841492877139,1.044046395528904,0.9768830678876385,2.287338390574146,3.3564333763389658
1569407420359058.0,1.814022160795826,0.914658613956109,1.0648691802907928,0.950744218833655,1.0419086598242304,0.9741180719626084,2.2944471408408567,3.382345994496075
1569407420359058.0,1.8194512275980892,0.9148048156180159,1.0639149934433556,0.9529211495826192,1.0443697334933988,0.9723570809034642,2.3017040564057405,3.4011563858834997
1569407420372053.0,1.8261485652549112,0.9156121771748695,1.0606591724570353,0.9543310978069205,1.0502193897727907,0.9715875296990955,2.3081466160547444,3.4142877396851934
1569407420372053.0,1.8331422474615455,0.9161830638099352,1.0547713216007428,0.9557259778960501,1.0587619876130183,0.972808950750417,2.3138264473853334,3.4165185386501546
1569407420373020.0,1.8394637711213073,0.9174489765119166,1.046731976092782,0.9573708168379026,1.0671437990188901,0.9750227147698762,2.3187592305623936,3.4152764894710654
1569407420373020.0,1.8431636742216186,0.9214691395641859,1.038345261432371,0.9602746932792529,1.074308530099715,0.9782833579817652,2.315128251842264,3.4186072901603066
1569407420396006.0,1.8413069020362276,0.9268916973315489,1.0305533442919843,0.9665388828693479,1.0790162194807773,0.9846047508527769,2.2979796366497585,3.4258479279926517
1569407420396006.0,1.835867254876925,0.9299219583973904,1.0231077116348846,0.9765291882636906,1.0831614298944436,0.9948921680607942,2.279944050682444,3.4347203738918637
1569407420396006.0,1.832769116289084,0.9296187539714215,1.017200194219911,0.9901075398414193,1.0859672558446851,1.0079836436249527,2.2699285226383665,3.438513037809322
1569407420396006.0,1.8349680810692495,0.9282568585720565,1.0133413037697292,1.006568018693297,1.0881873932465995,1.0218210226214048,2.263987059411826,3.4349113770399535
1569407420417900.0,1.837470048628054,0.9275858091270203,1.0105053505641384,1.023590832280607,1.0889072780826272,1.0344461587788105,2.2601280692478007,3.4237732062435016
1569407420417900.0,1.8353767981628062,0.9276588352863204,1.0076739453917534,1.0373275881178514,1.084854968014358,1.0440736131629877,2.2623050845135753,3.402366755336096
1569407420418896.0,1.8326849030012788,0.9262906919338714,1.0062573149356933,1.0479526762017466,1.0743598682546636,1.0519430199939783,2.2684265309353107,3.3791370097598015
1569407420418896.0,1.8313413886697898,0.9238262349432719,1.007799691674449,1.0565061400901987,1.06126181390776,1.060965849967021,2.2686127124022843,3.36414618955332
1569407420432861.0,1.8293733957097433,0.9210648702055735,1.011877498017866,1.063409405624719,1.0478424463601979,1.0690078176267797,2.2620063584780357,3.358585945114985
1569407420432861.0,1.8287916445634098,0.9192202729274015,1.0150834669122928,1.0696389521030771,1.0362383573119964,1.0733217573738167,2.2575554375070026,3.357423007552156
1569407420432861.0,1.8285478135825284,0.9179346885663795,1.0161935158864948,1.0763295258866772,1.0255901414900872,1.0750533191248914,2.2580921294939977,3.353469265092289
1569407420432861.0,1.8267973237028206,0.9165718929593969,1.0163570179289962,1.0841832697851672,1.0143394072607155,1.0752103882066708,2.2576244084266914,3.3459671126356305
1569407420455799.0,1.8286204188614892,0.9169185311441436,1.016710220348895,1.0939449937598025,1.0022852147440129,1.0747983403974657,2.2532790804404472,3.342061848151601
1569407420455799.0,1.8368943402507374,0.9199816291905099,1.017034862521666,1.1029633173133893,0.9918940558291638,1.0757936194439284,2.2491548668479244,3.3420289851992773
1569407420456830.0,1.8504523580898529,0.9232980357071777,1.0185240373757267,1.1077954995515484,0.9834720722632105,1.080075373655324,2.249131010407905,3.340393122553173
1569407420456830.0,1.8672008004753489,0.926317309278616,1.0205425687313976,1.1071871247630216,0.9773769566516374,1.0865098870483847,2.2511435174875367,3.3323235650610163
1569407420477742.0,1.8851615913173596,0.9286937580811343,1.0214061020997398,1.1039077388755243,0.9729840298610697,1.092163675409941,2.252323700376744,3.317695045818816
1569407420477742.0,1.9043699846392355,0.9297917505182302,1.0212029931078932,1.1007152194792709,0.9706940896190129,1.0971511041491473,2.256910627487082,3.3009122381021925
1569407420478737.0,1.922779395973352,0.9284721491203355,1.0201711906437447,1.0995253137353347,0.9687890961071733,1.1014631466602685,2.2686573961411702,3.2835460443274784
1569407420478737.0,1.9376408464012913,0.9263448158233549,1.0184027282619401,1.1008446702489643,0.967142659948935,1.1031860531128173,2.285437576283056,3.2643444773060275
1569407420492700.0,1.9482827731700403,0.9250649437765187,1.0180681791814559,1.1046359941396882,0.9672495820491237,1.1014178911932335,2.306210811766925,3.2440600275496037
1569407420492700.0,1.9579326253410039,0.9267775357422415,1.0185299684979183,1.110541117386012,0.9701887400889103,1.096188229475433,2.330915073564309,3.2244526494235957
1569407420493697.0,1.9694428364006522,0.9296280480957241,1.01909590805715,1.1176009104759876,0.9729290700603263,1.0884543350542344,2.3565156649117034,3.206605497112625
1569407420493697.0,1.9827867919833218,0.9312346743890996,1.0196437359815527,1.124840109926087,0.9733724324939831,1.0801364565762643,2.3844423078224604,3.194235892226972
1569407420515639.0,1.9989541573213812,0.9326007327005971,1.020554449340788,1.1336312331268672,0.9707583162859117,1.0731694259181352,2.4183473727084865,3.1923479606179797
1569407420515639.0,2.0198639175063935,0.9369594772557427,1.0227701519742503,1.1454818096627886,0.9701179490589187,1.0695133007121995,2.4569694854148847,3.2006872302601863
1569407420516673.0,2.045183744203587,0.9431846034632553,1.0282408658463684,1.158972054228196,0.9719204073806582,1.070097338372576,2.4978679532771086,3.219011422553237
1569407420516673.0,2.0651087728945745,0.9475091736753847,1.035929202977921,1.1700279304858983,0.9746217210797555,1.0718678005706006,2.5254230547698593,3.240891635634711
1569407420538580.0,2.0716091294154952,0.946154890133227,1.0429157591681268,1.1764947209090235,0.9768081971731298,1.0709109965956274,2.524911494285842,3.2597690953635943
1569407420538580.0,2.0680555158788385,0.9414267056098372,1.0477650931567684,1.1789665867079042,0.980545079678249,1.0682998814514386,2.5101383333353255,3.2774532329734143
1569407420538580.0,2.0563169140946878,0.9369945740423677,1.0532890168384645,1.181712306835195,0.9867486484802853,1.0659958461977597,2.494158551507344,3.286426897641323
1569407420538580.0,2.0391504183831604,0.9359133962447844,1.0608007613457682,1.185996353285086,0.9955284596561319,1.0639921433016455,2.479572264587277,3.282027847210281
1569407420552540.0,2.0212286261838,0.9371115602811746,1.0702238593855948,1.1888382330085283,1.0038063301585136,1.0632884115207863,2.4700765071245327,3.2735324604268254
1569407420552540.0,2.0053458020707047,0.9388124419266414,1.0809989791284358,1.1895267846323194,1.0105985504098325,1.0648205932759096,2.4655123057570503,3.2642913391057986
1569407420553539.0,1.9934142595577127,0.9376609138419832,1.0920720533756265,1.1901528812561564,1.0137114855290388,1.0665511159001178,2.4647986764705556,3.254352908269726
1569407420553539.0,1.9834308486460477,0.9340360921707302,1.1012255790071517,1.1894320722056062,1.0159547634480437,1.0675832812096182,2.467908184967131,3.246489867590649
1569407420575480.0,1.9733675993606086,0.9317187500236546,1.1071684137263773,1.1857336187069023,1.020233271984419,1.0699111067183429,2.4727482564694325,3.2451108660379897
1569407420575480.0,1.9651491133834937,0.9325915830995843,1.1093554084943593,1.181148674337582,1.0264562655268237,1.073466606032272,2.4764835047095266,3.2507010936821086
1569407420577473.0,1.960751395541247,0.9339161799887669,1.1095185244185226,1.1786073505554238,1.032010587908171,1.0772448059752473,2.48119435790923,3.26251919880707
1569407420577473.0,1.9591792594348696,0.9367548920412577,1.1084848449935425,1.1797447409717194,1.038914448855923,1.0802896820355783,2.4888145639245347,3.280769880565489
1569407420598421.0,1.9604232188417543,0.9424504063952139,1.1077633014751487,1.1833310948373346,1.0460251080601677,1.0826977231953625,2.497330020169579,3.3017447076702546
1569407420598421.0,1.9664604229081257,0.9522611732087534,1.1100147332588712,1.185385084096374,1.05422783476968,1.0864586034358024,2.5078867168050407,3.32218489606321
1569407420599425.0,1.9753291974599818,0.9651098980099992,1.1165720571576185,1.1852886745628566,1.0621865087539482,1.0914710251496211,2.522402969327774,3.34395666968836
1569407420599425.0,1.9801949727570838,0.981321695828951,1.1244633250107892,1.185016862339249,1.0677679941026765,1.0967435260152394,2.5418316964272254,3.3701386747299895
1569407420613411.0,1.9791339247719055,0.998651791384053,1.1313166537364108,1.1855213942304228,1.0690522753848903,1.1012919788219282,2.565034561389501,3.4020173476470053
1569407420613411.0,1.9770753037309918,1.0158729340199484,1.1375533992027198,1.18570903386913,1.0686333792779066,1.104231400358635,2.590037326770026,3.4409194619987353
1569407420613411.0,1.9721717754203805,1.0314776740694092,1.1455385669152316,1.183732487966989,1.068772139004735,1.106598469379766,2.608976313745742,3.4795908939019826
1569407420613411.0,1.9574482127242123,1.045305802624455,1.1565611610551958,1.1806297061174993,1.0715807335181153,1.1083776216529355,2.613681704970334,3.505893565435508
1569407420635318.0,1.935468436905663,1.0550166931164908,1.1700654953632326,1.178327291956144,1.0747149901338673,1.109577263152625,2.61331936648787,3.5263539736648846
1569407420635318.0,1.912897826644571,1.061100849859368,1.1824747615913875,1.1738338615294424,1.077154334116523,1.1091831053654708,2.6145423695852332,3.5406566090630274
1569407420636317.0,1.8927222845829628,1.0643766743927512,1.190629115507432,1.1642719986628505,1.0786436988105936,1.1053169621638272,2.613313252508114,3.5372910960317636
1569407420636317.0,1.8749626142235847,1.0675044779272338,1.1944031965505757,1.1515230938451098,1.081858637754314,1.1000397951686403,2.6096687175206617,3.5287654826887005
1569407420658258.0,1.859609022838454,1.0703318227117071,1.1970508935844257,1.1383969470410444,1.0855183251321305,1.095299048831239,2.6045494222869445,3.5248342476723407
1569407420658258.0,1.846678541710543,1.0712825991309343,1.1958219712617186,1.1257962249623947,1.0893532373489883,1.09308237014957,2.6008905366064297,3.519759477400721
1569407420659297.0,1.8331674632349213,1.068400098667496,1.1869571868497635,1.1146223906863033,1.09145408942592,1.0952827230182902,2.6006130607292923,3.5142347447730744
1569407420659297.0,1.8199091429786038,1.064802863100411,1.1752483268326055,1.1058562299266184,1.0900158782847664,1.1017518562253446,2.6027283591540895,3.5110968266526394
1569407420672221.0,1.8118985394993483,1.0624456414061976,1.1671592169898823,1.0994721112966654,1.0854410182766374,1.1103281703790986,2.608230842972907,3.51554327517403
1569407420672221.0,1.8092107767063352,1.0602659167958224,1.1624592045217679,1.0954923768864333,1.0826364042000198,1.1171055700981503,2.618126353923147,3.528284795862732
1569407420681197.0,1.806852194859312,1.0551415893628016,1.1569293513729593,1.0919510934192032,1.082343494649018,1.1213333389501074,2.6324213748577354,3.5416598424309536
1569407420681197.0,1.8027777484807583,1.0502604930274488,1.146954813937463,1.085880582879586,1.0860374578925391,1.1250947159363125,2.6511556917631265,3.5541777396795076
1569407420695160.0,1.7999480043582217,1.0475407136077632,1.134218598861403,1.0771699494019404,1.0933620331196487,1.130296366776747,2.6733763257832135,3.56991694709723
1569407420695160.0,1.8013310554739854,1.0461865136418207,1.1215312251217235,1.06675242772244,1.1035096508625564,1.135817582246233,2.6962398333255617,3.589160042335412
1569407420697153.0,1.8078400930796035,1.045710574971532,1.110745392592231,1.0554834303353349,1.113655813806108,1.1368109575847498,2.7140203045391234,3.611283125913216
1569407420697153.0,1.8124690831297485,1.046434738915636,1.1013710488479065,1.0463161601589623,1.1239041804305128,1.1315603966860108,2.7248993476106182,3.632773170926332
1569407420718098.0,1.8064508466588112,1.0469248865863938,1.0915898734260436,1.040292103115522,1.1336276996543155,1.1230541931183369,2.7367805421279603,3.6458571152780825
1569407420718098.0,1.7947997996751652,1.048804028218638,1.0825827813673632,1.0354839960866815,1.1435871245966494,1.1141595946359157,2.7517708262581038,3.647850687127166
1569407420720093.0,1.7853457339434053,1.0512026133231422,1.0772770368303817,1.029845893754517,1.152019579775119,1.1067644134985277,2.7661931637982637,3.6422564793905035
1569407420720093.0,1.7770379717974671,1.053735075675823,1.0750438941036535,1.0233197945445596,1.1592070561795573,1.100788924772373,2.7734530941896574,3.631723137741855
1569407420732087.0,1.7688731463440481,1.055993319052394,1.0739076208405889,1.0178440908023574,1.1667108810094717,1.0942329949189444,2.766449645463038,3.619956280807599
1569407420732087.0,1.762804525307324,1.0594146328498246,1.0729146270836727,1.012467854913808,1.1765839704526284,1.088104433957747,2.7542873350340575,3.6134143415193622
1569407420741037.0,1.7577560956166989,1.0620780780915424,1.0733516282049411,1.0061187987303484,1.1855357457321452,1.0833261031370471,2.744182240338668,3.6047249095541876
1569407420741037.0,1.7507668722506395,1.0629099735995684,1.07579563041525,1.001757112753493,1.1906517521578013,1.0778957391135724,2.730275829263575,3.5785851121380516
1569407420755996.0,1.7438645887012947,1.0625799079729996,1.0792517927433536,1.0003998988364444,1.1902849880752082,1.0718529500226606,2.7121158539845176,3.542286301813149
1569407420755996.0,1.7399029175313434,1.0613614948504375,1.0836045183065461,1.0000669097364427,1.1876321214508225,1.0662041069189978,2.6924044290631803,3.5106533167511498
1569407420756994.0,1.733779902646692,1.0567741378274726,1.0886880384253377,1.0007343511076046,1.1848083490007117,1.0619518817792424,2.671014014920881,3.4878843597959985
1569407420756994.0,1.7217216943777383,1.047884979160426,1.091310570769961,1.0024009754066003,1.1818888220821449,1.0600428971531686,2.650487343051064,3.474487533010579
1569407420777939.0,1.7078275309107942,1.0368087545754971,1.0902377418254114,1.0030910758912444,1.1763623444093756,1.0594055741140356,2.633984602915279,3.471381944840132
1569407420777939.0,1.6960836890487259,1.0276561791782748,1.08681833001522,1.0028100409601142,1.1680787792613696,1.0591139571858905,2.6225166265710316,3.4713885962233144
1569407420779932.0,1.6894133977164536,1.0193413555123094,1.0841539904920585,1.0025487986334696,1.1586400473378722,1.0602319014322736,2.6185161919744586,3.4648800153206003
1569407420779932.0,1.68859855276374,1.0103414576248693,1.0816016563651485,1.0013442269422266,1.1480775703373607,1.0636796653619909,2.6175387539987454,3.45457501151354
1569407420791902.0,1.6913953388320901,1.0005249679584947,1.0776590684385985,0.9972273156939336,1.1332364801035948,1.068357980613176,2.6122936765209817,3.4456976561087944
1569407420791902.0,1.6956298093069218,0.9922988631427478,1.0754240929276317,0.9891715339594461,1.1168944929356264,1.073401301146134,2.6058645854229905,3.4374072843725165
1569407420800878.0,1.6962431099893542,0.9848282036680858,1.076330299548791,0.9790149439025849,1.1024118425571203,1.0799629019266226,2.6044393068632856,3.4296590770104762
1569407420800878.0,1.690889686534461,0.9777242657169596,1.0768896876190484,0.9696967469755661,1.0907402814558738,1.0900118221177675,2.609317645694934,3.4233649910653514
1569407420815876.0,1.6858895113161365,0.9716073110737324,1.075728481004109,0.9612057357997538,1.0803451681363971,1.1042230079707658,2.6209456711041197,3.4196958304350353
1569407420815876.0,1.6848719220320156,0.9677119805458209,1.074027873621245,0.9535282354509615,1.0716635728915418,1.1212740851638296,2.6386223473382397,3.418993712839621
1569407420816872.0,1.6864992106840708,0.9642460942481169,1.0738947442566609,0.9476343807297399,1.0651299356479418,1.1389838986670626,2.6623147441329085,3.415729129090143
1569407420816872.0,1.6886222601691152,0.9610363155041175,1.0757071925173514,0.9435361630938444,1.0600049317989773,1.1544868547927487,2.6785043035037694,3.404013803552779
1569407420837807.0,1.6884272098492783,0.9587013705592796,1.0772796815466508,0.9422075952361194,1.0559347497750624,1.1663058466428058,2.6699007009561218,3.3888971235539302
1569407420837807.0,1.6873552644288272,0.9586431326315393,1.0758833814676079,0.9426573363951458,1.0531364684414546,1.1758280746440692,2.649176034233039,3.3765637297058033
1569407420839773.0,1.6873718269414655,0.9600379194763179,1.073365119440309,0.9418996630317445,1.0492926150377813,1.1841166639562946,2.631307665394707,3.366397355506176
1569407420839773.0,1.6894992763975858,0.9634185856542485,1.0724569165209619,0.9399337041539522,1.0462313071951916,1.192275478365502,2.6091903612280305,3.360201263528874
1569407420851769.0,1.6945579659580343,0.9679703258725003,1.0739605517524682,0.9357762936212123,1.0452954023477052,1.202167909349926,2.580441156221195,3.3605699901882953
1569407420851769.0,1.7023933080932356,0.9741394941908911,1.0773898166041882,0.9274303568782217,1.046778179256492,1.2133790720776905,2.552320426344011,3.3629377862132603
1569407420860716.0,1.7118810476027755,0.9800104689712471,1.0816663077048372,0.9167773921850939,1.0500067460294682,1.2209196231213868,2.526929925244471,3.3619760245508274
1569407420860716.0,1.7232994924491654,0.985516974081354,1.084684093942249,0.9057621905314587,1.0544374011926443,1.2226602635245312,2.5001546260184377,3.360932123227118
1569407420876110.0,1.7383801437086208,0.990082375959983,1.0861451988307598,0.8943430514043571,1.0597131715496346,1.223996104010714,2.4723814246794027,3.3662290045889067
1569407420876110.0,1.7557148422606645,0.9943653897630329,1.0881771823158246,0.8834962549257039,1.067204500113117,1.2295047487295963,2.4464061835481132,3.3754410571042675
1569407420877046.0,1.7744069125278075,0.9966182471804577,1.0924666610756977,0.8752137568738376,1.0751246009784898,1.2387445762296807,2.4227653462560745,3.3866051589265043
1569407420877046.0,1.7950336782179688,0.9970103495707113,1.0964507163642148,0.8694871234181681,1.0832914889770247,1.2506048566369048,2.400322836876085,3.4001760017478215
1569407420897991.0,1.8122091074058824,0.9952695718890914,1.098893179524904,0.8643109560545652,1.092271671090674,1.263905659190815,2.3792105712689793,3.406829571190776
1569407420897991.0,1.8234195302515734,0.9936441545400362,1.1020782035543042,0.8596939645406179,1.103276069048345,1.2747660112630064,2.358336418219876,3.3986735920660194
1569407420900045.0,1.8334573886530519,0.9943160653135344,1.1088034666794786,0.8576393046177704,1.113456995152181,1.2817153543217026,2.336546313968786,3.37859780633993
1569407420900045.0,1.8458476766969871,0.9987921795225504,1.118094193282233,0.8579960448509127,1.121893227946166,1.2868961571356425,2.314309195847784,3.351754956220811
1569407420912294.0,1.8588657838239617,1.002337973803764,1.127041217922328,0.8587421762553671,1.1293499854692042,1.2892732468163244,2.2926117761581986,3.324818564243894
1569407420912294.0,1.8700124801795959,1.0027847272994976,1.1350595314992433,0.8588694499123318,1.1372019184530693,1.288093740308662,2.273111471093093,3.3041075509896958
1569407420920930.0,1.8818549000300244,1.001611551729917,1.144276763225669,0.8584833659512826,1.143696064328144,1.2863632919363746,2.2582783624297953,3.289576383317913
1569407420920930.0,1.8980193558684002,1.0026182828564425,1.1530280332578031,0.8585370991351414,1.1466607354181095,1.285903084988646,2.2482603659386813,3.278139325701578
1569407420936228.0,1.9182844284452234,1.006206926147306,1.1588721503088386,0.8589690688989063,1.1463743613475648,1.2866167690879369,2.244582496925247,3.2742360710231537
1569407420936228.0,1.9361109450891902,1.0113218979572969,1.1622623873386497,0.8577866084140635,1.1471753926106132,1.2884754629658204,2.244766382376027,3.270330189007206
1569407420937303.0,1.9467277965739098,1.0156742329757107,1.1653081369356761,0.8562835032346782,1.1480803622492908,1.2914437528762872,2.245791725180001,3.2508477302588887
1569407420937303.0,1.9519778200223625,1.022134173576362,1.1665607472342272,0.8573093169454751,1.147573828573718,1.294513925902946,2.246886812046245,3.2158909466209424
1569407420958262.0,1.951162473130909,1.0277030198265131,1.164619395465785,0.8615769977089983,1.1443626015142032,1.2947864300092162,2.240358191955641,3.169510313387644
1569407420958262.0,1.9478601177573243,1.0302201467358276,1.1615710036096683,0.8656562876386574,1.137041180237475,1.2904136466100258,2.2224691561801775,3.1167378492977447
1569407420960227.0,1.9441136289790795,1.0312510506420915,1.1581731718649668,0.8649354781899284,1.1256017936409561,1.2823859152497397,2.1984963908801065,3.0625465309797355
1569407420960227.0,1.9329845698430466,1.0346261847823761,1.1522657972664319,0.8598848032778907,1.112397295922263,1.2725913299182823,2.1691314987603127,3.0098009565998094
1569407420972626.0,1.914764580753298,1.0407113025257908,1.143209469688486,0.8536900791491775,1.1000347779069382,1.2639036838578603,2.136670414993723,2.9628977168875377
1569407420972626.0,1.8985010782397242,1.0493695574286281,1.1310347136147652,0.8481770322636328,1.0914729839785988,1.2592380770185356,2.107046738234044,2.923371911257737
1569407420981171.0,1.8869594455483663,1.0575049903514913,1.116940049888084,0.84428875702387,1.0870718738365575,1.2585625654049084,2.082178112117546,2.8906691198467462
1569407420981171.0,1.8747516255729875,1.065484370537604,1.1027211346262968,0.8417843808690679,1.085745158622751,1.2588947529402932,2.061172610386324,2.8638642451894167
1569407420996552.0,1.8605528816769532,1.0726054545790482,1.0892741720997694,0.8396664672438363,1.0831320039638836,1.258271796448264,2.045311072131367,2.8430634008391946
1569407420996552.0,1.8504546402451314,1.079888157051149,1.0764394131803312,0.8370347551383948,1.075857410124171,1.2586795513472597,2.0338966374356815,2.830332798046728
1569407420997128.0,1.845374447330163,1.0864731751509586,1.0653570689288783,0.836139694853283,1.0640281020120794,1.2620827711512015,2.0239503289756073,2.8279433850397275
1569407420997128.0,1.8390862500217309,1.0934574494178815,1.0578104201290643,0.8374684396789571,1.0499042096909317,1.2665077090319512,2.0160603232013115,2.83394361095266
1569407421018482.0,1.8303767224959293,1.100848265634498,1.054580719953044,0.8390595520284749,1.036181332364852,1.2700155632915369,2.012435841255088,2.84622778124176
1569407421018482.0,1.824344280055087,1.1088833187296034,1.0542647353820125,0.84097068513744,1.0247854744237235,1.2726413169120465,2.0131291641356617,2.865675030479508
1569407421020066.0,1.821089866355258,1.1148604130136215,1.055927008974691,0.8432123243686076,1.0143351927238824,1.273426173570739,2.01925513262437,2.891048220547121
1569407421020066.0,1.81543220951122,1.120374545119748,1.0593110988785088,0.8449088349668281,1.0029977993770838,1.272361248522215,2.031873168239503,2.918199833937562
1569407421032409.0,1.8041198290889466,1.1252768489642844,1.0632939912776507,0.8484017520109107,0.9896860908530644,1.2714126910343602,2.0511298155700755,2.945150211281347
1569407421032409.0,1.7911199479795799,1.1292727119288348,1.0647361790593464,0.8540771535022191,0.975673481983773,1.2696383694699425,2.0720521320695124,2.9730081566168156
1569407421041010.0,1.7831244596795206,1.1311803072899764,1.0613024535308884,0.8609626197690825,0.9627658422445758,1.2640333964480759,2.088513766606456,3.0016776537901113
1569407421041010.0,1.7811995158950067,1.1342477306938887,1.0544374351245451,0.8687957649750421,0.9530909286355975,1.256389355385124,2.1053167093135667,3.030375460435252
1569407421056389.0,1.782556051369417,1.1382651061115538,1.0472334669282735,0.8765292607849423,0.9471965463987144,1.2506302838276204,2.129588257248171,3.0619851834349534
1569407421056389.0,1.7820584895232117,1.1393510274318062,1.0403434574606107,0.8822560177283147,0.9440720795436687,1.2468249107410174,2.1536108801101546,3.0921864834018513
1569407421058092.0,1.7776870369272462,1.134669403920694,1.033836914625029,0.8868490585046446,0.9413479034323203,1.243973568038139,2.1636086001938297,3.1157656785983576
1569407421058092.0,1.774752006169153,1.129344189396708,1.0285760191790636,0.8931764575060592,0.9383618628266839,1.243039713473915,2.1622668765697335,3.141351286334597
1569407421078811.0,1.7721255977670243,1.1248025733600202,1.0253692236116716,0.9015540178155117,0.9338230895127246,1.2450863294604426,2.16038264793587,3.1720422439005116
1569407421078811.0,1.7643165671937913,1.1214364019089438,1.02184659028511,0.9086222385027773,0.9272829367793323,1.2482451063005504,2.160026048501743,3.200785829068671
1569407421079351.0,1.7534889748552396,1.118384266820517,1.0164385886667968,0.9142328367580939,0.9196638812164563,1.2485659152845774,2.1612559621631684,3.2263091317836428
1569407421079351.0,1.744726109146621,1.1165906818646716,1.0102630622194042,0.9192141533239993,0.9134048851221198,1.245860024455386,2.1640986914408717,3.252911826196113
1569407421101617.0,1.7394822921204813,1.116434592501328,1.004429915581188,0.9228066509977668,0.910017658248844,1.2440185067642444,2.1685842987360027,3.2814042764419757
1569407421101617.0,1.7384618075144915,1.1202384107823566,0.9998511704334944,0.9253536987707556,0.9105352189795479,1.2441474580884613,2.176718825319353,3.313021248651331
1569407421103286.0,1.7408959529269374,1.1261032143339185,0.998440087797892,0.9292068963496916,0.9131124590341353,1.245355335109595,2.1885797211787374,3.350483703716352
1569407421103286.0,1.7436567297620507,1.1328582072466,0.9994929393509038,0.9357650115364983,0.9160679177888368,1.2457437400834586,2.20122828883373,3.394376184491103
1569407421116579.0,1.746186023765927,1.1401008529447303,0.9999570789190174,0.9445246988879529,0.917149201332901,1.243285209503515,2.2137124146659795,3.4418991709587425
1569407421116579.0,1.7495928944394492,1.1491299625253306,0.9981240235470765,0.9531510506850781,0.9173698506621547,1.2378574036960113,2.225104157786189,3.4820884279137316
1569407421118264.0,1.7536285719808216,1.1566448058883827,0.9953739278011433,0.9611714288223161,0.9183207067365767,1.2292728896629903,2.231500881088585,3.505638210235856
1569407421118264.0,1.7573228550791116,1.1626476356642945,0.9914971490214173,0.9685610174044824,0.9213100704167825,1.2202061153490622,2.234824497977179,3.517201166003296
1569407421138639.0,1.7601265121517067,1.168910393312203,0.9869000471921906,0.975589400659755,0.9256036604996619,1.214751385696503,2.2400530226335715,3.5266623814660676
1569407421138639.0,1.764524232857745,1.1773821850370956,0.9833562212311882,0.982123777500638,0.9317592430618471,1.2122489742231741,2.2452876286535126,3.535419717233025
1569407421140189.0,1.7719689891305528,1.185449840018364,0.980664376451924,0.9883179298126091,0.9399192179274375,1.2097740856049413,2.247546955945702,3.5406755496795244
1569407421140189.0,1.7820220608824757,1.192009146474087,0.9776219879300307,0.9930841891592743,0.9490837941688569,1.2062206740653938,2.2507107695872124,3.548614873387478
1569407421161544.0,1.7933384233750622,1.1950227407786267,0.9734208742118755,0.9971277043572119,0.9558937296625297,1.2014595365695282,2.258831438459569,3.561542787002738
1569407421161544.0,1.8051351752261287,1.1970968546872374,0.967299911608589,1.0022682788115493,0.961568015418088,1.1973895952802334,2.272113250476344,3.5763855316246285
1569407421161994.0,1.817529210789883,1.1976755431766013,0.961833482460898,1.0092737013797675,0.9663793683807131,1.1942986668880964,2.2800436830898962,3.593036365291048
1569407421161994.0,1.8314297648371518,1.1948740710600283,0.9594996425943767,1.0175801371007704,0.9697737085677258,1.1882200064098996,2.27249909928839,3.607313420337412
1569407421176398.0,1.8450102152254033,1.189391021809097,0.9597239396377514,1.0259917353447554,0.9696014054905836,1.1787005500675019,2.2597715970144163,3.6076909570439115
1569407421176398.0,1.8550962635446842,1.1858696780393798,0.9591231402719174,1.0313623541451746,0.9681512531027413,1.168495359675794,2.249925264603847,3.5893767787085604
1569407421176957.0,1.864086238084506,1.1831332032699977,0.9566037906853647,1.0318104718529701,0.9666331694377825,1.1595916297570068,2.2382703525230707,3.5636431439328695
1569407421176957.0,1.8758800633652077,1.1789846817541298,0.9545946737100547,1.0292177793436372,0.9656901539336192,1.1541671609483768,2.2215476643525216,3.543899360418047
1569407421199063.0,1.8912535422366907,1.1736643561385125,0.9560375422139226,1.0278711632782551,0.9667222829737875,1.1506556276298991,2.2015093234602094,3.532402173828625
1569407421199063.0,1.9071174714573085,1.1696651145523476,0.9609452945063509,1.0300119638307437,0.9706085620591933,1.1449084364466453,2.178974279423184,3.5230197306799713
1569407421199897.0,1.9192416482149344,1.1661070497893968,0.9669871253339122,1.036068893501465,0.9744501941763768,1.138521915848273,2.1547517392018682,3.5149011642383785
1569407421199897.0,1.930482263369335,1.1653980119656324,0.9725035461333545,1.0442138188736136,0.9782091600667858,1.1337106387483764,2.1316839040334865,3.5100158462221787
1569407421221293.0,1.945063144428645,1.1643640688691623,0.9799110695944887,1.051465436174208,0.9813845173798906,1.127663009359754,2.110858348831308,3.5083404376680845
1569407421221293.0,1.9605276927907809,1.1596789215214194,0.9882116824288381,1.0552833749175659,0.9848354254920467,1.1190092007199364,2.0942205322049547,3.511902994034063
1569407421223221.0,1.9734814124830677,1.1533536441769359,0.995940738659873,1.0566785528924574,0.989089438660694,1.1105398605279415,2.0849815759106796,3.521599969587881
1569407421223221.0,1.9858630168422373,1.1497560198392036,1.003962725864906,1.0586590234450441,0.9964744694497644,1.1035805428080223,2.081325759016854,3.539395795757996
1569407421235246.0,1.9982672578275689,1.148217803560267,1.0110994922601293,1.062802276997283,1.0054124369041115,1.094339286960529,2.078226143839007,3.5659633814640284
1569407421235246.0,2.0108215784542867,1.1487841040393085,1.0157350472538629,1.0675828369127929,1.013404142419483,1.0802847740586623,2.07652756564764,3.6001318778992464
1569407421241785.0,2.024137966392402,1.1482304175058375,1.0197285509621148,1.0721836894715875,1.0184451974473747,1.0639247598659425,2.077257515875218,3.640700539333589
1569407421241785.0,2.0374696486217747,1.145986956507854,1.024605576762291,1.0754279233041193,1.0216629458971356,1.0481916667444653,2.0774028721509645,3.6864476817078264
1569407421258066.0,2.046155744655961,1.141761899613804,1.0299547717348148,1.0757438187195845,1.0227879680090284,1.0352389402587496,2.0759384470217572,3.7272572995416464
1569407421258066.0,2.0457377810485315,1.1365751672583317,1.0336423734094513,1.0734223156516136,1.0246697995679885,1.0263042734289323,2.071859107040056,3.7497213462496664
1569407421259892.0,2.0370913641528787,1.130028702529059,1.0363385148618758,1.0695450996994254,1.0269759159734477,1.0216019245804335,2.066170894543178,3.7599725374716257
1569407421259892.0,2.0244232632334067,1.1243625107010278,1.0375830463120452,1.0629502661214743,1.0283735094480653,1.0202539070921162,2.0609078825017084,3.764807112353556
1569407421281102.0,2.0131105777701257,1.1206179359494253,1.0360675316727799,1.0530623753803428,1.0286763833969448,1.0202751300559991,2.0581274175538717,3.76222659398413
1569407421281102.0,2.0016262748597775,1.1200023184809753,1.0334692553594091,1.042001761000676,1.0294887773048185,1.0195811153647196,2.060862887469334,3.750333926797469
1569407421282676.0,1.9864844306000355,1.1212853739392346,1.0327383375836006,1.032566160569422,1.030058824138576,1.0170452891429238,2.069032835378419,3.723262953476835
1569407421282676.0,1.9696432841777185,1.1249458862885142,1.0331233045265202,1.0243278868755445,1.0311602697441846,1.0135637395164478,2.0825968448877594,3.687670069710471
1569407421295108.0,1.953504019703632,1.1288327746554925,1.035120005124145,1.0173664371132274,1.0330826338415446,1.0101349367033605,2.1002743852725243,3.6539836189395016
1569407421295108.0,1.9431047877416856,1.1333791152718362,1.040150647003757,1.0123643267687674,1.0361218995787635,1.0077582591657972,2.1170557498198788,3.6190375959435688
1569407421302755.0,1.9397379737656137,1.138860621014759,1.0474723862750706,1.0081545243651655,1.0387019263886865,1.0084787590415842,2.130244314765467,3.578640315682044
1569407421302755.0,1.9406460684059104,1.145891905548372,1.0536429595848067,1.002670080422152,1.0416231738431172,1.0123377796357342,2.1422799388014164,3.536395280782015
1569407421319043.0,1.9446052247500563,1.153995938471438,1.057991610693125,0.9951992577327399,1.0443616525907855,1.01731938286043,2.158185897447831,3.499075579928168
1569407421319043.0,1.9505746100560175,1.1656962073654924,1.0629270544087728,0.9857622052745809,1.0485779876719505,1.0214105295765386,2.1806941354209277,3.46470576395728
1569407421320691.0,1.9585707464827398,1.1788274514119848,1.0701939853139903,0.9745529400856758,1.0532605573913176,1.0236368161366012,2.20844086406202,3.426171764088293
1569407421320691.0,1.9680691701441966,1.1924209978062557,1.0791142682866113,0.9626031234478142,1.0582055939451518,1.0260271761935156,2.240250574417579,3.389155748131991
1569407421340982.0,1.9762444487136066,1.206072319068833,1.0897679665013353,0.9519934512424654,1.0630178959131154,1.0305554878615275,2.2709147753968573,3.3606419480074385
1569407421340982.0,1.9852856337498432,1.2211798633920046,1.101546030749992,0.9443914148480104,1.0695906772585408,1.0362101754829443,2.2972529570093294,3.3396443871042742
1569407421342553.0,1.9969004230534635,1.23510378098279,1.1134608816913194,0.9394813200239747,1.0788910482873775,1.0430197595811,2.3242433733725765,3.325097257205275
1569407421342553.0,2.0065418486022586,1.2469645012009725,1.1243820724942644,0.9349166946041121,1.0909224113904454,1.0519410585875046,2.344617132767067,3.311941402681066
1569407421355917.0,2.0136525487196577,1.2544261298394779,1.133461400962058,0.9279315720331519,1.1038047026414688,1.061912675352479,2.3486696296245047,3.2991296854680607
1569407421355917.0,2.0205144796588925,1.257666911309907,1.1380762828052409,0.9181018515193147,1.1170258188741873,1.0709551932434824,2.345105371180455,3.2865977579885732
1569407421362718.0,2.0269335083031286,1.2575603174165222,1.1398615040766207,0.9099025864286482,1.1281213828242516,1.076213072424266,2.340378087221624,3.2723949529401515
1569407421362718.0,2.0330009064152046,1.259497776437353,1.141516904610569,0.9057286866034111,1.1371647310939073,1.0779005410696467,2.33437669134692,3.2625346796790926
1569407421378325.0,2.038184710612247,1.26376140302992,1.142853130186081,0.9042858658019257,1.1428168323962788,1.0799888393501558,2.3299797228538246,3.258749794849374
1569407421378325.0,2.046076098965823,1.2684780906314073,1.144130952954118,0.9045418317284125,1.1452239329534244,1.0833687189113965,2.3290035597179326,3.255957762100059
1569407421379911.0,2.056875313396429,1.2726026709427145,1.148286842314646,0.9076144300474389,1.1452509987801744,1.087029259063063,2.330311087074508,3.251247366358332
1569407421379911.0,2.0665212930519976,1.278034654442085,1.1539127884962928,0.9129621786847746,1.1451857224105328,1.0899841563793669,2.3339317377849267,3.245857046654558
1569407421401602.0,2.0752476419226706,1.2840177989951043,1.1584225473112775,0.919688739173329,1.1430655951679913,1.0903153568632238,2.339719393564275,3.2447792197533754
1569407421401602.0,2.0856599340214657,1.2933476426903754,1.1622170973997237,0.9275423643016798,1.1367710820964567,1.0890742853308832,2.3447301497748887,3.2507793964224305
1569407421403304.0,2.10020974269039,1.3046537025332716,1.1663137078771055,0.935558490020931,1.126454370372965,1.0872048333574746,2.348097340227139,3.263362083442439
1569407421403304.0,2.1184801561871804,1.3162871813647328,1.169304863992142,0.9429075637993891,1.114649233498995,1.0827292499708092,2.350859269490855,3.2751101033397965
1569407421415611.0,2.1369912354043983,1.3257719679381461,1.1708710551993378,0.9510304049145157,1.102810353695112,1.0756598149861376,2.3510364665546426,3.2756545077183277
1569407421415611.0,2.155763773633079,1.3338483598054875,1.171967174801602,0.9603902504705338,1.0930520289922847,1.0679491883420367,2.349879745002227,3.270123706212816
1569407421422679.0,2.176449819654156,1.3410469160400622,1.1726314290777184,0.9700072545929553,1.0855471818536766,1.0615398181496445,2.354262075368179,3.2692605668983936
1569407421422679.0,2.198016994784985,1.3483715405649161,1.172877585239462,0.9798611132448203,1.0793373482025592,1.056403898923163,2.366752874596228,3.2735574029135144
1569407421446566.0,2.2167867481588854,1.351709060703674,1.1736649796532885,0.9897910278353961,1.0720612156547447,1.0525450178614462,2.3790678927281044,3.28180703003439
1569407421446566.0,2.2286624850447727,1.3516443216675884,1.173649036522868,0.997785758712169,1.0633693648980245,1.0509422465013847,2.3798056233672535,3.2928025186033536
1569407421448173.0,2.232640457705845,1.3495927474712943,1.173247835956691,1.004486728298465,1.0541168256446847,1.051559337514987,2.3705217614865326,3.303429744170461
1569407421448173.0,2.231282659944891,1.3452718628862537,1.1719889922537372,1.0096422893111723,1.046581150520993,1.054335975284712,2.361091854797273,3.310879120695093
1569407421461553.0,2.2271586477762786,1.3390648947820991,1.1682919377147232,1.0127960482822451,1.041117038296699,1.0572114672662967,2.3542207280808207,3.3126547738443084
