timestamp,emg1,emg2,emg3,emg4,emg5,emg6,emg7,emg8
1570180356884126,4,-1,-1,-3,-1,0,2,0
1570180356884126,-1,0,0,-2,-1,-2,-2,-2
1570180356884773,2,-3,-4,-3,0,-2,-3,-1
1570180356884773,2,2,-3,-1,2,-1,-1,-2
1570180356885766,-4,5,4,2,2,-1,-1,-1
1570180356885766,4,10,11,6,3,-1,-1,1
1570180356889924,29,2,7,4,-1,-1,-2,-4
1570180356889924,20,-6,18,4,0,-1,1,0
1570180356890755,3,-3,27,5,0,0,0,2
1570180356890755,-22,5,77,6,4,0,-1,-4
1570180356895737,-28,-8,53,-9,-4,-2,0,3
1570180356895737,-13,1,16,-2,-3,-1,-1,0
1570180356910909,-10,11,-21,1,-2,0,1,-1
1570180356910909,-7,10,-37,-4,-5,-1,2,0
1570180356918676,-30,16,-47,-2,-1,0,0,-3
1570180356918676,-24,5,-38,-3,-3,0,1,1
1570180356925658,-42,13,-38,-6,-4,0,-1,0
1570180356925658,2,2,-23,-5,-1,2,-2,1
1570180356948658,4,13,-3,2,-1,0,0,-1
1570180356948658,-39,7,-21,-5,-2,0,-3,0
1570180356988489,20,-9,6,4,0,-1,-2,-6
1570180356988489,21,24,15,13,1,-2,-1,3
1570180356989488,23,-24,-12,2,-2,-1,-3,-4
1570180356989488,16,14,10,6,0,0,-1,3
1570180356990496,5,-3,-4,4,1,-3,-2,3
1570180356990496,2,-24,-14,8,-2,2,2,1
1570180356993771,8,-22,-18,15,0,-1,0,1
1570180356993771,10,-40,-6,22,-2,-1,0,5
1570180357000472,-5,-24,7,11,-3,-1,0,5
1570180357000472,-2,12,16,21,-1,-1,0,1
1570180357008443,-3,67,42,14,-1,-2,-1,1
1570180357008443,3,76,11,-28,-2,0,-2,-8
1570180357015417,-4,56,-32,-17,2,-1,0,-4
1570180357015417,-6,-45,-68,-33,-5,3,2,2
1570180357030997,0,-62,-51,-39,-14,-2,-3,-8
1570180357030997,1,-32,-33,-39,-1,-1,1,-1
1570180357037482,-3,-118,-20,-52,-1,-1,-3,-12
1570180357037482,2,-96,-29,-48,1,-1,-1,1
1570180357052329,-1,-29,-23,-22,0,-1,-3,3
1570180357052329,-1,-26,-10,10,-2,1,2,2
1570180357061296,-2,45,-7,4,2,-2,-2,-3
1570180357061296,-3,47,11,4,3,-2,-1,-7
1570180357076263,2,35,25,2,6,2,2,3
1570180357076263,1,35,23,18,-1,-2,-2,-2
1570180357082242,0,23,26,50,2,-1,-1,3
1570180357082242,0,22,31,71,3,-1,-3,-1
1570180357099256,2,25,9,65,1,-2,-1,-2
1570180357099256,-2,1,-45,60,6,-1,0,1
1570180357100192,-1,-1,-65,50,-1,-1,2,7
1570180357100192,2,4,4,18,-3,-3,-4,-4
1570180357121376,2,26,38,-1,-2,-2,0,-4
1570180357121376,2,1,54,-28,-6,-2,-1,-3
1570180357123214,2,-20,74,-38,-7,1,3,1
1570180357123214,-4,21,62,-42,-13,-2,-3,-1
1570180357136282,1,-4,36,-32,-8,1,1,-2
1570180357136282,-3,0,15,-33,-11,-4,-2,-1
1570180357143085,-4,4,6,-26,-9,-1,2,0
1570180357143085,1,1,4,-17,-4,0,-2,-1
1570180357159040,0,1,18,-13,-4,0,-1,1
1570180357159040,-1,-6,18,-8,-3,-1,-1,1
1570180357160033,0,7,18,-4,-6,0,-2,-1
1570180357160033,1,10,-5,-10,-6,-2,-1,-3
1570180357181974,-7,-1,-2,3,-1,0,1,3
1570180357181974,3,6,-15,0,-4,-2,-1,-3
1570180357182971,4,19,-26,-9,-8,0,-3,-3
1570180357182971,1,1,-9,5,1,-2,0,0
1570180357204020,5,7,-27,0,-2,-1,-3,-1
1570180357204020,-8,-12,-9,11,3,1,2,6
1570180357205909,0,4,-10,1,1,0,0,0
1570180357205909,4,0,-20,0,0,-1,-1,-2
1570180357219060,-2,-24,-22,1,1,-1,1,1
1570180357219060,0,15,-11,2,1,1,-2,-3
1570180357220870,2,-6,0,6,1,-1,0,1
1570180357220870,-2,-1,-8,-4,-1,2,2,2
1570180357241879,-3,8,-16,-5,-1,-1,-1,-1
1570180357241879,-1,-6,2,1,2,1,-2,-5
1570180357242810,-1,-11,4,2,3,0,-1,-1
1570180357242810,1,1,-2,2,1,0,1,2
1570180357255533,-4,-19,5,1,1,2,0,2
1570180357255533,4,-15,-7,1,0,0,-1,0
1570180357264752,3,-7,1,1,-1,1,2,3
1570180357264752,-3,-13,-5,1,-1,0,-1,-2
1570180357278901,-2,10,-9,1,1,-1,2,1
1570180357278901,-1,-9,-8,-2,-2,0,0,-1
1570180357280806,-2,-16,11,11,4,3,0,4
1570180357280806,2,-1,-15,-13,-4,-3,-3,-6
1570180357301860,-1,8,-6,-1,1,-1,-1,-2
1570180357301860,-2,-8,2,2,1,2,0,0
1570180357303002,2,-2,1,2,1,0,-1,-2
1570180357303002,0,-8,5,0,-1,-1,-1,-2
1570180357315272,-1,-9,0,2,0,1,1,-5
1570180357315272,0,-9,-6,1,1,-1,-1,2
1570180357323592,-2,4,1,-6,-1,-3,-2,-2
1570180357323592,-1,2,9,2,2,-1,-3,-3
1570180357338696,-2,-1,-5,-2,1,-1,-2,2
1570180357338696,0,-11,3,0,-2,-2,1,2
1570180357340552,-1,4,6,4,1,-1,-1,-1
1570180357340552,2,-11,-14,-6,-1,1,0,0
1570180357361679,2,-3,1,-1,0,-2,-1,-2
1570180357361679,-3,-6,2,0,-1,-1,0,-2
1570180357363487,-1,-26,-8,-4,-3,-2,-2,-1
1570180357363487,3,-45,9,9,3,1,2,1
1570180357375556,3,5,1,-7,-6,-3,-3,-5
1570180357375556,2,17,-3,-4,-1,2,-1,3
1570180357384430,-2,14,0,2,1,1,1,-5
1570180357384430,0,21,4,3,1,-1,-2,1
1570180357399390,-2,-28,-3,1,1,0,0,0
1570180357399390,-3,2,0,-2,-1,-1,-4,-3
1570180357400902,1,-16,-1,-1,-1,0,-1,0
1570180357400902,-3,-2,0,3,1,2,2,2
1570180357421421,1,-6,-2,0,-1,2,1,3
1570180357421421,-4,-37,-4,-3,-1,-2,-1,-5
1570180357423326,0,-8,-5,-1,0,1,-1,-1
1570180357423326,2,-21,-4,-1,-3,-2,-1,-4
1570180357435422,-3,16,6,3,-1,-1,-2,-4
1570180357435422,0,0,-1,-1,1,0,-1,-2
1570180357444273,-1,0,-2,-2,1,-1,1,-2
1570180357444273,-5,2,6,1,1,-3,0,2
1570180357459279,-8,-31,-13,-5,0,2,2,1
1570180357459279,-2,41,7,4,-3,-6,-4,-1
1570180357461232,-9,37,-3,-3,-2,1,0,1
1570180357461232,-3,24,-2,2,0,2,0,-3
1570180357481324,12,-11,3,2,-1,0,-1,0
1570180357481324,7,-16,0,1,0,1,0,-3
1570180357483170,10,-4,-6,-5,-1,-1,1,0
1570180357483170,0,9,-1,0,-2,-2,-4,-4
1570180357495215,-6,13,0,0,0,-1,-3,0
1570180357495215,-8,2,4,2,1,0,2,6
1570180357504122,-5,6,-2,0,2,0,-1,-6
1570180357504122,-11,-5,-1,-1,1,-2,1,1
1570180357519247,-29,5,-5,1,2,-1,2,1
1570180357519247,-26,-9,1,-2,-1,-1,-1,-5
1570180357520069,-11,6,-3,-1,-1,-1,0,0
1570180357520069,-6,12,0,0,0,-1,-1,1
1570180357541021,5,8,-1,0,0,-3,0,2
1570180357541021,1,4,1,0,-2,0,-1,0
1570180357543006,-4,-9,2,-2,0,-1,-2,1
1570180357543006,4,3,-2,-2,-1,-1,-1,-6
1570180357555024,-7,4,8,4,0,0,0,3
1570180357555024,-6,-11,-6,-5,1,1,2,0
1570180357563952,-1,-7,-1,0,-1,-3,-2,-2
1570180357563952,-1,1,-3,0,-1,0,1,-1
1570180357578913,4,-1,-2,-3,1,1,1,-1
1570180357578913,5,-5,-5,0,1,-1,0,-3
1570180357578913,10,10,7,4,-1,-1,-2,3
1570180357578913,3,0,-2,-2,0,2,1,3
1570180357600865,1,-4,-2,0,-1,1,-2,-4
1570180357600865,-5,3,1,0,-1,-1,-1,2
1570180357601849,2,-7,-7,-2,-2,0,0,-2
1570180357601849,-5,3,1,-1,-3,-3,-3,-1
1570180357622842,3,-1,-4,-1,-2,-3,-2,-2
1570180357622842,0,6,7,3,0,-1,-2,0
1570180357623905,-3,-3,-7,-5,-1,1,3,1
1570180357623905,2,-1,5,2,0,0,-2,-1
1570180357638656,-8,-34,-13,-5,-1,-2,-1,-4
1570180357638656,7,9,-1,1,1,-1,2,-3
1570180357638756,7,-5,1,1,-1,-1,-1,-2
1570180357638756,4,-3,1,1,-1,0,-1,-1
1570180357662688,0,4,5,1,1,-3,-3,1
1570180357662688,7,-13,-5,-2,-1,-1,-3,-2
1570180357662688,2,3,1,2,-3,-3,-4,0
1570180357662688,-2,7,3,1,0,-2,0,1
1570180357675820,0,5,1,2,-1,0,1,-1
1570180357675820,4,-6,-12,-4,-1,3,2,3
1570180357682962,5,15,8,4,0,-1,-1,-2
1570180357682962,0,-4,-6,-7,-4,-1,0,0
1570180357698596,5,-1,0,-1,-2,-1,1,0
1570180357698596,19,-1,-4,-2,0,1,2,-2
1570180357699587,-13,0,-3,-2,0,1,0,2
1570180357699587,-11,2,-1,0,-1,0,1,-2
1570180357720530,9,10,7,3,-1,0,-2,-4
1570180357720530,5,-5,0,-2,-3,0,-2,-1
1570180357721603,1,-1,0,0,0,-3,-3,0
1570180357721603,14,-2,-5,-4,0,-3,-1,-2
1570180357743471,3,0,-1,-1,-4,-1,-3,1
1570180357743471,-1,-1,2,0,-3,-1,-2,-1
1570180357744469,13,3,1,-2,-5,0,-2,0
1570180357744469,-7,-26,-13,-3,-1,1,-1,1
1570180357758600,-10,18,1,-1,-2,-1,0,0
1570180357758600,2,8,4,3,-2,-1,0,4
1570180357759438,-11,2,1,-1,-3,2,1,-1
1570180357759438,1,-1,2,-1,0,1,0,-1
1570180357780613,6,-23,-10,-5,1,0,1,0
1570180357780613,-9,-7,-5,-2,0,0,0,-4
1570180357781504,4,11,2,1,4,2,4,3
1570180357781504,11,11,15,6,1,-2,-1,1
1570180357803364,2,-4,3,1,0,1,2,1
1570180357803364,-4,-8,-9,-4,1,-2,-1,1
1570180357804309,6,-18,-9,-1,0,1,-3,-4
1570180357804309,1,11,-2,0,1,1,1,4
1570180357818448,3,4,4,1,1,-1,-2,-2
1570180357818448,-4,2,-1,-3,-2,-3,-4,-2
1570180357819269,4,-17,-12,-4,0,-2,0,-3
1570180357819269,7,16,6,2,3,3,-1,-1
1570180357841207,6,20,18,5,3,0,-1,0
1570180357841207,-9,-7,-5,0,-3,0,1,0
1570180357841207,-5,-13,-10,-2,0,-1,-3,-2
1570180357841207,-17,-2,-1,-3,-4,-3,-2,-1
1570180357863203,-9,5,7,-1,-1,2,1,-1
1570180357863203,-6,6,2,2,0,-1,1,0
1570180357864148,-4,-1,0,-2,-3,-1,0,2
1570180357864148,9,-7,-7,-2,2,1,1,0
1570180357878109,-7,-12,-9,-3,1,2,1,0
1570180357878109,-11,-7,0,-2,0,-2,-3,-5
1570180357879115,-9,15,7,1,1,0,0,0
1570180357879115,-7,-3,1,1,0,0,1,-3
1570180357901048,-16,-4,-6,-2,-2,-2,1,0
1570180357901048,4,-5,-1,1,2,2,1,-3
1570180357901048,-11,11,2,-4,-2,-5,-3,0
1570180357901048,2,-3,1,-2,1,-1,1,2
1570180357923217,1,-1,-7,-3,1,-1,0,0
1570180357923217,-6,-6,-1,-1,-1,-1,-1,-1
1570180357924523,3,3,5,4,1,-1,0,1
1570180357924523,-5,8,3,0,-3,-1,-2,2
1570180357937999,-3,-4,-5,0,-1,1,2,4
1570180357937999,-4,-1,2,0,0,0,2,0
1570180357938947,-4,5,1,-2,-2,1,0,-2
1570180357938947,-3,-9,-10,-8,-2,-3,-3,-3
1570180357959954,16,0,-6,1,-2,0,0,-3
1570180357959954,0,17,10,4,1,1,2,1
1570180357967980,-3,-20,-5,-2,0,-2,-2,-3
1570180357967980,-2,-8,-6,1,0,0,2,-4
1570180357982938,-5,-1,4,-2,-1,-4,-4,0
1570180357982938,-3,16,1,-5,-2,-1,0,-1
1570180357983828,1,-10,1,1,-1,-1,-1,0
1570180357983828,-1,4,0,1,0,1,-2,1
1570180358013754,-4,-5,-2,-2,0,0,0,1
1570180358013754,-3,-2,0,-1,-1,-2,-2,-1
1570180358014746,-10,2,3,0,0,-1,1,-2
1570180358014746,2,-10,-7,-3,1,1,2,3
1570180358020728,11,3,3,2,-3,-2,-3,-3
1570180358020728,4,9,4,3,0,-2,-4,0
1570180358021807,3,0,-5,-4,-2,1,0,2
1570180358021807,9,-1,3,4,-2,-2,-5,-1
1570180358043669,-4,-1,-4,-2,1,1,2,0
1570180358043669,-5,-7,-4,-2,-1,-2,-1,-1
1570180358043669,0,0,0,1,2,0,1,-1
1570180358043669,-10,0,0,-1,-3,-1,0,-3
1570180358065655,-2,6,2,0,2,-1,-2,0
1570180358065655,11,-8,-4,0,2,1,1,2
1570180358066711,-1,8,1,-2,2,-1,0,-1
1570180358066711,5,-7,-3,0,1,-3,-4,-3
1570180358080571,11,-5,-5,-2,-3,-1,-3,0
1570180358080571,-1,10,-2,1,-2,0,0,-1
1570180358088548,29,11,0,-1,-7,-2,-4,-7
1570180358088548,10,15,2,2,-6,0,0,-3
1570180358103514,-3,3,0,5,-5,-2,-1,0
1570180358103514,3,-9,-4,2,-3,3,3,5
1570180358103514,12,-15,-3,0,1,-2,-8,-1
1570180358103514,4,-3,0,-4,1,2,-2,2
1570180358125449,5,-6,0,-9,-1,-2,-6,-1
1570180358125449,10,-9,-3,-8,2,0,-4,-2
1570180358126448,0,-2,-1,-1,1,1,0,5
1570180358126448,-9,-3,0,-3,-1,-1,-1,-3
1570180358140417,-23,-2,-1,-3,-2,-2,-1,0
1570180358140417,-21,-6,-2,1,0,1,3,3
1570180358148566,-12,1,3,0,-1,-1,4,-1
1570180358148566,-5,-7,-5,-5,-2,-1,3,1
1570180358163715,-1,7,5,2,0,1,3,-4
1570180358163715,-2,3,5,0,1,-1,4,1
1570180358164354,-3,9,4,4,0,-2,0,0
1570180358164354,-10,-10,-8,-7,-2,-2,0,1
1570180358186288,6,-7,-7,-1,0,-1,0,0
1570180358186288,0,-7,-6,0,0,0,1,-1
1570180358186288,-4,-1,4,4,0,1,0,-2
1570180358186288,1,7,2,7,2,2,4,-5
1570180358200405,4,-6,-6,2,1,3,1,-5
1570180358200405,-2,-1,-1,2,-1,-4,-5,-7
1570180358208411,0,-5,-2,-4,1,1,1,-1
1570180358208411,0,9,1,0,-1,-1,-1,-1
1570180358223193,5,-1,1,1,1,-1,-3,-5
1570180358223193,4,6,2,2,-1,-1,-4,-3
1570180358224192,3,-3,2,1,-4,-4,-6,-4
1570180358224192,5,-5,-1,0,-1,-3,0,0
1570180358246235,-1,0,-4,-5,-1,0,2,5
1570180358246235,6,-11,-7,-9,-4,0,1,2
1570180358246235,-6,7,3,1,-1,-1,5,6
1570180358246235,-6,11,7,5,2,0,-3,2
1570180358269260,6,-5,-4,0,1,3,2,1
1570180358269260,-2,2,0,1,-1,-2,-2,0
1570180358270064,-1,8,5,-1,0,1,0,0
1570180358270064,7,-11,-8,-1,-1,-1,-1,0
1570180358292005,0,-15,-17,-8,-2,1,1,-2
1570180358292005,-2,-20,-6,0,-2,-2,-2,1
1570180358292005,10,36,27,7,2,0,1,2
1570180358292005,-4,18,9,1,-2,-3,-4,0
1570180358313949,1,-10,3,4,0,-1,1,5
1570180358313949,0,14,5,-2,-2,-2,-2,-5
1570180358314942,0,-27,-13,-2,0,-1,0,-5
1570180358314942,-1,13,7,-1,-2,-1,-1,0
1570180358319928,4,-6,-9,-3,0,1,3,0
1570180358319928,-10,-7,-6,-2,-2,-3,-6,-6
1570180358327941,-3,-11,-14,-3,-2,1,1,0
1570180358327941,1,-13,-8,0,-1,0,0,-2
1570180358343867,-1,-7,-8,-6,-4,-2,-3,-2
1570180358343867,1,3,-3,2,3,-1,0,-3
1570180358343867,-2,7,13,4,0,1,-2,0
1570180358343867,8,32,30,5,2,1,0,2
1570180358366027,-4,-3,5,3,-1,-3,-1,-7
1570180358366027,-1,-3,-4,-5,-5,-4,-5,-4
1570180358366814,-4,0,-13,-5,-3,1,1,4
1570180358366814,-4,-18,-10,-1,-2,0,0,0
1570180358379979,-1,21,17,3,-1,0,-1,0
1570180358379979,2,-13,-8,-4,1,2,1,0
1570180358395911,-8,-6,-7,-3,-2,-1,0,2
1570180358395911,-2,-8,-5,-4,0,1,1,0
1570180358403839,0,7,-1,-1,2,0,0,0
1570180358403839,0,-2,4,3,-1,0,1,1
1570180358403839,2,13,6,-1,-1,0,1,-1
1570180358403839,2,-9,-8,-4,-1,-1,-2,2
1570180358425651,-2,-5,-7,-1,-2,-2,-4,-2
1570180358425651,1,8,13,4,-2,-2,-3,4
1570180358426645,3,11,2,-1,0,-1,2,0
1570180358426645,-2,-5,-2,-1,-2,-1,0,-3
1570180358439615,-3,-7,-4,-4,-1,0,1,-1
1570180358439615,-4,0,-6,-1,-2,-1,1,0
1570180358448638,1,-4,3,-2,-2,0,-3,-9
1570180358448638,-6,-14,-5,-4,0,-1,-1,-5
1570180358463558,-4,6,5,2,-1,0,1,0
1570180358463558,1,15,10,7,4,2,-1,-1
1570180358464608,-5,-20,-11,-2,-1,-3,-2,1
1570180358464608,-2,16,1,5,1,-2,-1,-1
1570180358485718,1,7,8,2,2,-2,-4,-2
1570180358485718,-14,-31,-14,-5,1,2,3,-2
1570180358486487,6,6,2,2,-1,0,1,1
1570180358486487,-8,-24,-12,-6,-1,0,1,-1
1570180358500485,-7,21,12,4,-2,-3,-4,2
1570180358500485,9,11,7,-1,-2,0,1,-2
1570180358508425,7,5,4,1,0,-2,-3,1
1570180358508425,1,-13,-10,-6,-2,0,-1,-2
1570180358523574,-4,4,7,3,2,0,0,3
1570180358523574,-1,-3,0,-2,2,1,2,5
1570180358524392,4,-15,-7,-1,1,1,-2,-4
1570180358524392,-1,10,8,4,-3,-4,-7,0
1570180358546376,18,-5,-10,-3,-2,-1,-2,-25
1570180358546376,8,2,9,0,-2,1,0,-24
1570180358546376,0,-10,8,1,-1,-2,0,11
1570180358546376,-13,3,-1,3,-1,-3,0,37
1570180358569408,-12,2,-3,3,3,-1,2,24
1570180358569408,15,13,-6,-5,-3,-2,-5,16
1570180358570262,-2,-12,-18,-5,-3,1,-6,-6
1570180358570262,12,0,7,-1,-4,-1,-7,-6
1570180358591211,-1,-8,4,-4,-4,-2,-5,-3
1570180358591211,-3,8,6,3,3,-2,-3,-14
1570180358592206,0,18,9,-2,8,-1,0,-7
1570180358592206,4,9,-4,-5,12,1,3,-13
1570180358606166,-2,8,-4,-6,13,-1,2,-12
1570180358606166,-8,-6,-10,-6,4,-1,2,-5
1570180358606166,-14,-18,-17,6,-2,-1,2,1
1570180358606166,-3,0,-5,12,-6,-1,2,-7
1570180358629273,-1,2,-5,4,-12,0,4,2
1570180358629273,-3,5,-7,3,-9,-1,1,4
1570180358630104,-11,11,-4,-4,-7,-1,2,4
1570180358630104,-2,8,5,-2,-4,-1,-1,-4
1570180358643243,0,0,2,-3,-6,-1,-2,6
1570180358643243,-2,-3,3,-2,-5,-1,1,21
1570180358644077,2,-4,6,-4,-5,0,2,10
1570180358644077,3,-15,4,-4,-3,1,2,-3
1570180358666252,2,-14,5,-3,-4,-3,0,-10
1570180358666252,-1,-5,10,0,-1,0,0,1
1570180358667001,4,-6,4,1,-1,0,-1,7
1570180358667001,-6,-13,1,0,1,-1,-1,5
1570180358688952,-7,-3,3,1,2,0,-2,13
1570180358688952,-4,0,-2,1,-1,0,-1,4
1570180358689944,-8,-4,-11,-1,1,-1,-4,-2
1570180358689944,-11,0,-11,-3,1,0,-1,-3
1570180358703223,-26,0,-12,-2,0,1,-4,2
1570180358703223,-26,-2,-10,-6,1,0,-1,5
1570180358704266,-26,-1,0,8,-28,-3,-1,12
1570180358704266,-50,-1,-22,-16,24,0,-4,3
1570180358725851,-113,-4,-2,-2,12,-3,-3,-15
1570180358725851,-120,-19,-16,2,7,7,5,-33
1570180358726842,22,-8,-15,-29,3,3,5,-58
1570180358726842,88,20,28,-6,-12,5,13,-51
1570180358748914,127,23,45,42,4,0,7,-32
1570180358748914,77,6,17,6,-11,3,0,-30
1570180358749788,-100,-9,4,5,26,-2,-9,-13
1570180358749788,-116,-8,1,-7,-10,-3,-7,12
1570180358763747,-106,2,-36,-64,-20,0,-3,31
1570180358763747,-68,13,21,18,1,2,-1,35
1570180358763916,-8,2,-8,-1,-19,0,-1,24
1570180358763916,-26,-9,4,5,-18,-7,-7,9
1570180358785835,3,-17,-5,-4,0,-9,-12,-1
1570180358785835,48,1,9,20,33,2,-12,4
1570180358786693,58,4,26,7,8,-2,-31,-3
1570180358786693,97,2,-16,7,8,2,-26,-3
1570180358808765,56,3,27,19,-22,1,-15,0
1570180358808765,36,1,-22,-8,0,-6,-4,4
1570180358809621,0,-2,-1,-4,8,-5,7,8
1570180358809621,-23,7,-32,-16,-11,3,17,19
1570180358823583,-4,-2,-7,-2,-9,-3,11,11
1570180358823583,-5,10,9,-3,-15,-1,13,19
1570180358823583,-14,-8,-3,28,19,2,13,9
1570180358823583,-12,19,38,21,16,2,5,11
1570180358845728,-23,-13,-45,-20,-3,-4,3,6
1570180358845728,-12,-3,20,1,3,-4,0,3
1570180358846718,-33,3,-3,-12,-13,2,8,-1
1570180358846718,-22,-19,-39,-34,-8,-1,6,-6
1570180358869487,-14,0,3,-12,-1,-6,-6,-14
1570180358869487,11,9,3,1,-3,-5,-3,-11
1570180358869487,25,9,9,-2,0,1,2,-7
1570180358869487,16,3,13,7,0,-3,4,-7
1570180358883769,12,1,16,12,5,3,2,-6
1570180358883769,-3,-23,-42,-21,-11,-6,-4,-10
1570180358884421,11,1,-11,-2,4,-1,0,-3
1570180358884421,7,3,20,19,12,7,4,4
1570180358906361,3,-1,-3,-1,3,3,6,1
1570180358906361,11,11,33,18,1,-6,-7,4
1570180358906361,5,-1,6,4,4,2,2,9
1570180358906361,-1,-4,-1,12,6,3,-2,5
1570180358929365,-8,-3,2,1,3,4,1,1
1570180358929365,-17,-4,-18,-14,4,3,1,-1
1570180358929365,-16,0,-7,-8,-3,-9,-4,-1
1570180358929365,-20,0,14,14,-6,-4,-3,0
1570180358952304,-11,4,-8,7,12,2,1,5
1570180358952304,-13,-14,-15,-8,-8,1,1,-3
1570180358953235,6,6,-4,0,-7,-1,0,-1
1570180358953235,9,19,7,1,-3,-3,-1,11
1570180358966200,0,-34,-7,9,1,3,1,6
1570180358966200,-1,-19,-12,-12,-4,-1,-2,-1
1570180358966200,18,1,-5,-4,0,1,1,-2
1570180358966200,22,20,3,0,1,-3,1,-12
1570180358989180,11,5,10,3,-5,-3,-5,-8
1570180358989180,8,-7,7,-6,-5,-1,-2,-11
1570180358990137,-10,-7,-26,-17,-4,1,0,-7
1570180358990137,9,-1,-9,-9,4,1,0,5
1570180359003109,-7,29,4,1,-10,-5,-1,-2
1570180359003109,1,-29,5,0,-4,-4,-6,-6
1570180359004101,-26,16,18,9,0,0,1,-1
1570180359004101,1,-28,-14,-4,-6,-3,-8,-3
1570180359026261,-23,2,-2,-4,2,3,7,22
1570180359026261,7,10,-1,4,4,-1,-4,-22
1570180359027041,-53,-22,-13,-8,-8,-5,-6,-2
1570180359027041,-21,-3,-14,-14,-7,-5,-5,-2
1570180359049121,3,11,20,11,6,4,0,1
1570180359049121,5,-18,-13,0,6,4,7,17
1570180359049980,34,14,4,4,6,3,3,1
1570180359049980,22,10,15,13,7,3,3,-3
1570180359062963,50,18,0,-1,2,1,-1,-3
1570180359062963,-56,-20,-8,-12,-10,-2,-4,-17
1570180359063944,-41,-24,-4,8,9,3,-3,-13
1570180359063944,40,13,2,-4,-11,-6,-1,13
1570180359085883,-27,-15,-1,2,4,-3,-8,-34
1570180359085883,71,24,-4,0,2,2,5,18
1570180359086879,37,7,8,2,-5,0,1,24
1570180359086879,-11,-3,-3,-3,-3,3,0,0
1570180359109032,1,-18,-5,-4,3,0,3,15
1570180359109032,-8,14,6,4,3,1,0,-6
1570180359109826,-30,-19,-5,-5,-2,-1,-1,-4
1570180359109826,32,20,9,6,2,4,8,-14
1570180359122994,-38,-26,-8,-7,-6,-1,2,12
1570180359122994,-17,9,0,0,-3,-5,-9,-2
1570180359124243,53,24,3,-4,-8,-1,1,3
1570180359124243,-63,-18,-2,2,-5,-3,0,1
1570180359145776,22,9,3,6,2,1,0,-4
1570180359145776,-25,-1,3,-1,-8,-9,4,12
1570180359146726,32,15,7,6,8,19,5,16
1570180359146726,26,-6,-4,-8,0,-2,5,6
1570180359168808,-86,-27,-2,7,6,-8,-6,-14
1570180359168808,19,11,-2,-1,7,4,8,13
1570180359169669,-2,6,5,-1,3,-2,0,2
1570180359169669,25,30,-6,-4,2,1,-5,-1
1570180359191736,47,-40,0,4,3,1,0,-4
1570180359191736,2,3,-4,3,2,2,-1,12
1570180359192607,-42,-9,-7,-2,-5,-4,-6,-12
1570180359192607,-7,4,6,7,-1,3,0,-3
1570180359205650,11,8,-11,-10,-5,-3,-1,0
1570180359205650,-7,4,4,2,0,2,-1,-4
1570180359206559,25,-2,4,1,-3,-1,2,4
1570180359206559,-28,-13,-3,-3,0,-6,-9,42
1570180359228709,20,20,1,0,0,5,-5,3
1570180359228709,-10,-11,-3,-3,-2,-1,4,12
1570180359229504,22,10,-1,-3,0,-2,-2,0
1570180359229504,-34,-21,-3,-3,-1,-8,-4,-24
1570180359251645,2,5,0,-1,-1,5,1,-8
1570180359251645,18,9,0,-3,3,-14,-2,7
1570180359252439,7,0,0,0,-4,-15,-16,23
1570180359252439,16,2,5,6,9,9,-5,-17
1570180359265408,-38,-18,-8,-8,-4,-1,-3,2
1570180359265408,22,20,3,-1,-2,-9,-4,2
1570180359266453,-23,-13,1,-1,-2,3,2,-9
1570180359266453,7,-7,2,3,-3,-5,8,9
1570180359289336,40,33,-2,-3,0,-2,-20,10
1570180359289336,-30,-10,-1,-4,-2,11,11,-10
1570180359289336,10,-3,-4,-3,0,0,6,-28
1570180359289336,-25,-22,-4,0,2,-5,-1,-35
1570180359302505,13,17,-3,-6,-3,-8,-2,-68
1570180359302505,-13,-3,-3,-5,-5,0,-10,-37
1570180359311367,-8,-3,0,1,-3,3,-4,-23
1570180359311367,-6,-4,-2,0,3,3,3,-3
1570180359326359,20,6,5,5,1,1,10,26
1570180359326359,-43,-20,-8,2,-6,-7,-8,-2
1570180359326359,19,9,-5,-11,-10,13,0,6
1570180359326359,-15,-16,-2,3,-1,18,1,12
1570180359349335,-9,-1,-3,-8,-9,-22,1,22
1570180359349335,18,7,6,5,19,14,-1,10
1570180359350177,5,-3,1,3,10,-1,10,11
1570180359350177,1,-2,-2,-3,-6,-6,-3,3
1570180359363138,-9,-6,-2,-2,0,10,5,7
1570180359363138,18,12,4,7,-1,-2,0,-2
1570180359371253,-27,-8,-4,-3,-2,-6,-5,5
1570180359371253,10,1,-2,-4,-2,2,-5,-10
1570180359401242,-37,-12,3,7,3,7,7,0
1570180359401242,31,11,-2,-5,-4,-3,-5,-17
1570180359402387,38,26,4,4,4,13,5,12
1570180359402387,-25,-16,-4,-4,-8,-26,-8,-6
1570180359408202,4,0,-1,-1,0,4,5,-1
1570180359408202,-6,-5,3,6,0,5,3,0
1570180359416215,-9,-7,1,0,-3,-4,-4,-17
1570180359416215,9,7,0,-2,-5,10,7,9
1570180359433023,-7,-2,-3,-3,7,5,-5,-8
1570180359433023,7,2,1,-1,3,1,-2,6
1570180359433950,-16,-10,-2,0,-10,-4,-2,1
1570180359433950,-8,-1,0,-2,-14,-7,0,1
1570180359445922,5,1,-2,3,22,3,2,3
1570180359445922,17,14,0,-5,-3,17,2,14
1570180359446917,-11,-7,-1,4,5,-12,-2,-1
1570180359446917,-2,-3,-4,-7,-8,-8,-6,-3
1570180359469028,19,8,5,0,-12,-4,9,15
1570180359469028,-3,0,0,1,-5,-25,-10,-36
1570180359469866,-19,-12,-6,-8,-13,-16,-6,0
1570180359469866,-19,-8,2,4,6,8,5,-18
1570180359483005,27,27,1,-2,-8,-20,-11,25
1570180359483005,-13,-7,-1,0,5,8,3,1
1570180359490929,7,-3,2,2,1,-18,-7,5
1570180359490929,-1,1,-3,0,15,39,6,-7
1570180359505896,0,1,3,3,-2,-1,3,-8
1570180359505896,0,2,2,0,-13,-12,-2,2
1570180359506758,-22,-9,2,4,11,5,0,-3
1570180359506758,27,8,0,-2,4,-10,0,13
1570180359528750,-12,-9,-3,-4,-17,0,1,-11
1570180359528750,8,1,-2,-2,0,13,4,9
1570180359529705,-9,-5,-4,-5,-9,-17,-3,-3
1570180359529705,-12,1,-1,2,16,11,5,-22
1570180359551852,14,4,0,1,-5,4,-6,-1
1570180359551852,-17,-7,1,-2,-7,-27,0,0
1570180359552636,5,-5,-1,0,9,38,13,10
1570180359552636,27,6,2,2,3,15,4,4
1570180359565740,23,15,-5,-6,-11,-28,-11,-4
1570180359565740,3,3,-1,1,4,7,4,5
1570180359566602,-16,-6,-1,-3,0,2,0,-7
1570180359566602,18,3,2,-1,-7,-15,-4,21
1570180359588536,-5,-8,2,2,9,19,4,-2
1570180359588536,-5,-5,-2,-1,1,1,-2,5
1570180359589572,16,10,1,1,-1,-8,1,-4
1570180359589572,-15,-4,-3,-2,-3,-9,-5,-5
1570180359611652,-14,-8,0,2,3,0,-1,-2
1570180359611652,-5,1,0,-2,0,6,-1,-24
1570180359612477,1,0,1,2,0,2,1,14
1570180359612477,-4,0,0,-2,0,-8,-2,5
1570180359625796,-6,-4,-1,-2,-1,2,-2,-5
1570180359625796,12,10,2,1,-2,4,0,5
1570180359626436,3,3,2,2,11,8,-1,-7
1570180359626436,-10,-1,-3,-2,6,-7,-4,-1
1570180359649427,-4,-6,0,-1,-12,-5,5,-6
1570180359649427,-5,-5,0,0,-3,5,18,2
1570180359649427,2,2,-3,-1,-4,-2,-14,-10
1570180359649427,7,27,16,2,-3,-7,8,6
1570180359670324,-11,-5,-5,0,7,-6,-9,-5
1570180359670324,-8,-28,-1,-1,-19,-12,-3,11
1570180359678488,-10,-15,-9,-8,-4,-15,-22,-15
1570180359678488,0,10,0,-3,-3,-4,-22,-6
1570180359686323,0,12,9,4,9,6,-1,1
1570180359686323,-3,-16,-10,-3,9,5,9,7
1570180359686323,10,14,7,1,0,3,20,6
1570180359686323,-1,-1,-8,-4,-3,0,4,4
1570180359709250,-1,1,2,0,4,7,8,0
1570180359709250,4,9,-1,-3,1,1,-2,5
1570180359709250,-2,-9,-5,1,-2,-1,6,-1
1570180359709250,-6,-7,-10,-4,-2,-2,6,0
1570180359731352,0,-5,0,-3,-2,0,-7,-2
1570180359731352,2,20,7,3,2,5,14,3
1570180359732162,-4,-37,-13,2,2,1,3,-2
1570180359732162,-6,-7,-1,1,-6,-12,-43,-27
1570180359746123,0,-6,-3,1,-2,-1,-4,4
1570180359746123,2,11,3,-3,-1,-4,-11,1
1570180359746123,7,20,5,-2,-1,3,22,6
1570180359746123,-7,-8,-2,4,-1,2,5,-9
1570180359769210,-3,-11,-6,-2,0,1,0,13
1570180359769210,0,5,-1,-2,0,0,-5,-11
1570180359770054,-3,5,1,0,-3,0,-4,3
1570180359770054,0,-11,-4,-3,-2,3,6,12
1570180359791994,-2,7,3,1,1,2,0,-14
1570180359791994,-7,-4,7,3,2,0,0,0
1570180359791994,0,-11,-6,-5,-2,-3,-7,-5
1570180359791994,2,-2,2,-1,-3,-3,3,1
1570180359806169,3,5,1,0,-3,-2,5,-2
1570180359806169,-5,-2,-6,-2,1,0,-6,-7
1570180359806953,1,6,4,2,-1,-3,-8,-3
1570180359806953,-1,-2,-7,-6,-1,-2,5,3
1570180359829300,-2,-6,-3,-1,1,0,-2,-13
1570180359829300,-3,-9,-5,-1,0,-2,-5,8
1570180359829893,-3,12,2,1,0,-5,-2,1
1570180359829893,8,-4,1,0,1,3,5,3
1570180359851833,55,29,5,4,2,1,11,13
1570180359851833,-87,-61,-14,-6,-4,-8,-15,-21
1570180359851833,-14,-6,0,-4,-2,-1,1,-9
1570180359851833,-30,-16,1,4,1,1,3,0
1570180359865795,44,16,-3,-6,-5,-3,-7,-6
1570180359865795,20,18,4,1,1,2,1,8
1570180359866895,22,0,-4,-1,-2,0,-1,4
1570180359866895,23,14,3,0,0,0,2,5
1570180359888780,-98,-40,-3,-1,1,-1,-6,-13
1570180359888780,69,14,3,2,1,1,3,8
1570180359889731,-42,-38,-14,-9,-7,-8,-13,-24
1570180359889731,32,15,7,3,2,-1,4,6
1570180359911672,29,-3,-3,-2,-2,0,1,-2
1570180359911672,-17,4,4,1,0,-3,-2,2
1570180359912337,28,14,0,1,-2,1,-2,0
1570180359912337,13,11,-2,-1,-2,-4,3,4
1570180359925902,20,10,4,3,0,-4,2,14
1570180359925902,-100,-48,-9,-5,1,8,-4,-17
1570180359926637,32,25,10,3,0,16,9,9
1570180359926637,25,9,1,2,-8,-9,6,6
1570180359948740,-20,-2,-7,-6,-4,-6,-1,-9
1570180359948740,36,17,0,-3,-4,-7,-3,6
1570180359949574,-81,-26,11,4,-3,-44,-4,-1
1570180359949574,42,-3,-21,-16,0,58,2,-4
1570180359970630,-21,-13,2,4,2,-1,-2,1
1570180359970630,50,18,2,0,2,-3,-5,-18
1570180359978511,21,34,5,0,3,22,5,8
1570180359978511,-35,-11,5,5,1,-32,-6,-3
1570180359985748,23,-1,-2,-4,-9,-5,2,3
1570180359985748,-18,-4,-3,-1,-1,14,-1,-4
1570180359986481,23,6,1,0,-3,-28,-14,5
1570180359986481,-11,-9,2,4,2,-5,-3,-10
1570180360009419,0,-11,1,1,5,-5,-6,4
1570180360009419,-12,5,-5,-5,-10,-21,-3,3
1570180360009419,-6,-6,4,4,1,25,11,6
1570180360009419,52,31,8,5,7,-2,3,28
1570180360031470,-36,3,-6,-6,-7,5,0,-37
1570180360031470,22,2,0,-2,-2,-18,-6,5
1570180360032360,-20,-4,-2,3,11,14,0,-6
1570180360032360,-7,-16,5,4,1,7,13,15
1570180360045379,5,4,5,4,6,34,3,3
1570180360045379,7,3,-1,-3,-8,-6,4,-5
1570180360046315,18,-2,-5,-1,5,-16,-8,4
1570180360046315,-9,4,1,-1,-9,1,-4,0
1570180360069305,-3,-5,-2,-6,-10,-21,-6,-3
1570180360069305,4,-1,-3,0,0,4,0,1
1570180360070251,11,3,-2,-3,-3,6,6,15
1570180360070251,-29,-17,-6,-4,0,-8,-6,-25
1570180360091522,-3,6,0,3,5,-1,2,9
1570180360091522,2,-5,3,3,2,0,1,13
1570180360092192,13,3,6,5,4,4,4,5
1570180360092192,17,-1,-2,-4,-2,-6,11,-30
1570180360105155,3,19,-9,-9,-4,2,8,8
1570180360105155,7,10,4,0,3,10,7,5
1570180360114142,-20,-10,-4,-3,-5,-1,2,-17
1570180360114142,-23,-13,2,2,1,5,-1,9
1570180360129095,12,-10,2,2,0,-1,3,6
1570180360129095,0,-5,-3,1,2,4,5,3
1570180360130088,13,11,0,-2,0,3,5,6
1570180360130088,-15,-9,-5,-4,0,4,-4,-3
1570180360151256,-3,-2,2,3,2,-7,-8,-7
1570180360151256,7,4,1,1,5,22,15,2
1570180360153028,-1,-5,-4,-4,-7,-15,-5,-7
1570180360153028,-3,4,-1,0,2,2,-3,-1
1570180360165201,-2,-6,-2,0,0,-1,-11,2
1570180360165201,8,0,-1,-2,-3,-8,-9,2
1570180360173973,3,2,0,0,-3,-2,3,-7
1570180360173973,-14,-3,-2,-3,-2,-7,-7,4
1570180360189113,8,-1,0,-1,1,2,2,5
1570180360189113,0,5,5,2,-1,-2,3,-3
1570180360191028,10,-2,-4,-2,-1,-4,-8,-18
1570180360191028,-10,-1,-5,-3,-3,-7,-2,14
1570180360211874,-4,-8,0,1,0,4,4,-1
1570180360211874,6,4,2,1,0,1,-6,-4
1570180360213139,-6,3,-2,0,0,3,1,0
1570180360213139,-7,0,0,1,-1,-2,-1,-3
1570180360234808,5,-4,-2,0,0,-2,2,2
1570180360234808,-1,-1,-4,-2,0,-2,-8,4
1570180360235808,1,-1,1,-1,-1,1,-6,-3
1570180360235808,-2,-2,-2,-2,-1,-7,-5,-18
1570180360248778,6,-2,0,0,0,1,4,8
1570180360248778,26,22,12,8,4,-5,5,-13
1570180360250855,-65,-29,-17,-11,-5,11,-9,-30
1570180360250855,13,5,-2,-3,-4,-15,-2,-4
1570180360271912,-27,-9,-5,-2,-6,-18,-4,-8
1570180360271912,11,0,-4,-5,0,-3,1,5
1570180360272733,4,-5,6,6,4,-2,3,8
1570180360272733,19,18,5,1,-4,5,1,-10
1570180360285256,-14,-13,-2,2,4,3,-3,-4
1570180360285256,23,0,-3,-1,-2,-7,-7,4
1570180360294649,-1,2,-3,-2,-2,-2,-2,10
1570180360294649,-10,-12,-2,-2,1,6,6,20
1570180360308824,7,7,4,0,2,2,4,6
1570180360308824,-11,-6,2,1,0,4,-6,-5
1570180360311375,22,10,3,3,0,2,4,12
1570180360311375,-8,1,1,4,1,0,-5,-17
1570180360331754,35,17,4,2,1,3,5,14
1570180360331754,30,6,8,7,4,3,8,17
1570180360332932,-71,-34,-21,-14,-8,-6,-12,-25
1570180360332932,-1,-36,-4,-1,-2,-9,-7,-9
1570180360345512,23,29,1,0,2,10,5,-2
1570180360345512,-6,10,-6,-7,-3,11,1,-1
1570180360354488,15,-12,1,1,0,-12,0,9
1570180360354488,-13,3,1,-2,-5,-12,1,7
1570180360368501,-26,-18,0,0,1,10,7,-13
1570180360368501,-14,3,2,-1,-1,-2,0,-6
1570180360370447,26,17,3,-1,0,19,5,5
1570180360370447,-20,-14,-4,0,6,8,1,6
1570180360391393,-17,-22,-1,-2,-8,-8,-1,-3
1570180360391393,-2,12,2,2,2,-7,-5,-2
1570180360393476,6,13,-3,-1,1,-1,-2,-5
1570180360393476,15,-5,0,0,0,7,4,9
1570180360405445,-11,10,3,-1,-3,-1,3,-8
1570180360405445,-13,-20,-17,-5,-3,5,7,-2
1570180360414332,2,-9,2,-1,-1,-2,-1,2
1570180360414332,-1,17,4,2,2,-18,-5,0
1570180360429370,1,-8,-2,-1,-8,-5,-5,-1
1570180360429370,-12,-3,0,-1,1,-3,1,-5
1570180360430560,19,13,7,5,2,8,1,-3
1570180360430560,1,5,-3,-3,-3,2,1,2
1570180360451432,9,4,-2,-3,-3,-2,-2,12
1570180360451432,-5,-9,0,1,10,-9,-6,-2
1570180360453369,8,6,0,1,-6,-6,-1,-3
1570180360453369,-2,-1,1,-1,-3,5,-2,-5
1570180360474537,-1,-5,-4,-1,0,14,-2,-5
1570180360474537,-2,-1,3,7,11,0,3,17
1570180360475169,2,-2,0,-2,-11,-16,-6,3
1570180360475169,1,4,0,-1,1,-8,-1,5
1570180360489356,1,2,1,0,0,3,1,0
1570180360489356,-9,-8,-4,-4,-4,-1,0,-5
1570180360490661,11,7,4,2,4,5,5,9
1570180360490661,-1,3,0,3,-1,3,2,5
1570180360511084,-5,0,-1,-2,-2,-8,-6,-15
1570180360511084,-1,-6,-1,-2,-5,1,-2,1
1570180360513063,3,3,1,1,2,2,5,5
1570180360513063,0,0,-4,-2,-2,7,-5,3
1570180360534021,-3,-3,0,1,5,-6,-4,-1
1570180360534021,-9,-3,-1,-2,-7,-1,-3,-9
1570180360536003,10,2,-1,3,1,0,-2,12
1570180360536003,-6,0,-3,-1,-2,-3,1,-11
1570180360549106,9,0,-1,1,1,0,3,15
1570180360549106,-2,-2,-1,0,-6,-1,-5,-9
1570180360550965,3,0,1,-1,-1,1,0,13
1570180360550965,4,-1,-1,-1,1,0,-4,-3
1570180360572144,0,-2,-1,1,1,-3,-1,0
1570180360572144,-2,-3,-1,-3,-4,1,-3,-3
1570180360572912,4,0,1,0,0,0,7,3
1570180360572912,-3,1,-2,0,-1,1,-5,-2
1570180360594050,1,-1,1,1,-1,-2,-7,0
1570180360594050,-7,-2,-1,0,-3,-3,-3,-19
1570180360595846,2,1,-1,-1,3,2,2,-5
1570180360595846,-1,1,2,0,0,0,3,-4
1570180360616840,2,-3,-4,-4,-1,-3,-3,10
1570180360616840,-5,-2,0,-2,1,-1,-3,-10
1570180360617784,-2,0,-1,2,0,1,2,12
1570180360617784,7,-1,-1,-3,1,3,2,9
1570180360631755,-5,1,0,-1,1,-1,0,-1
1570180360631755,-1,0,-1,-1,-5,-1,-3,-7
1570180360632746,3,0,0,0,-2,-1,-2,-5
1570180360632746,2,0,-1,1,-3,1,0,9
1570180360652696,-4,0,-1,-4,0,-1,-2,-14
1570180360652696,10,0,-1,-1,-1,2,4,20
1570180360661667,-3,1,0,0,-1,3,-2,-5
1570180360661667,-3,-1,0,0,0,3,-1,-7
1570180360668648,2,-2,1,1,1,2,-1,1
1570180360668648,2,0,0,-2,0,1,-1,5
1570180360675631,0,-1,-1,-1,0,-3,-3,-7
1570180360675631,-3,-1,-1,-2,-1,-3,-1,-3
1570180360691775,-7,-1,0,0,0,-2,-1,-8
1570180360691775,-1,1,1,0,-1,-2,2,2
1570180360693203,4,1,0,0,2,-2,-2,1
1570180360693203,-7,-1,0,-2,-3,-4,-2,-8
1570180360713578,2,-1,-1,-2,-1,-1,-1,4
1570180360713578,-1,-2,-3,-1,-1,1,1,4
1570180360715523,-4,-2,1,0,0,-2,-3,-9
1570180360715523,3,-1,-3,-1,3,-2,0,-3
1570180360728498,3,1,0,-1,1,-1,-1,2
1570180360728498,-4,-4,0,0,-1,-1,-1,-2
1570180360735470,0,0,0,-1,-1,0,0,0
1570180360735470,0,2,-3,-1,-1,0,2,4
1570180360751426,1,-1,1,0,-1,-1,0,-3
1570180360751426,2,-2,0,-1,0,1,0,4
1570180360753430,1,1,1,1,-2,-1,-2,-3
1570180360753430,-1,-3,-1,1,2,-1,1,-2
1570180360773378,4,1,-1,0,0,0,2,6
1570180360773378,2,-4,-1,-3,-1,-2,-2,2
1570180360781348,-2,1,-2,0,-2,-1,-1,-2
1570180360781348,-2,0,0,-1,-2,0,-2,-5
1570180360788335,-4,-1,-2,0,-2,-2,-3,-10
1570180360788335,4,1,-1,0,0,1,3,17
1570180360795309,-5,-1,0,-1,1,-1,-4,-9
1570180360795309,5,-3,-1,-4,-2,1,0,11
1570180360811436,-6,-1,-1,-1,-2,0,-3,-8
1570180360811436,-1,2,0,1,-1,0,-2,-3
1570180360813311,-2,0,0,1,-1,-1,-3,-2
1570180360813311,-10,1,0,0,-1,-1,-3,-14
1570180360834335,1,-1,-1,0,-1,-2,1,1
1570180360834335,-4,-1,-2,-1,-2,-4,-3,-6
1570180360835896,3,-1,-1,-2,1,0,3,5
1570180360835896,-2,-1,-1,0,2,1,0,-5
1570180360848176,-4,-2,-2,1,-1,1,-1,-3
1570180360848176,3,-1,0,-3,0,2,4,8
1570180360855151,2,-1,0,1,1,-1,-1,-2
1570180360855151,-1,0,2,1,-1,-4,-1,-1
1570180360871158,3,-1,-2,-4,1,0,3,14
1570180360871158,-2,-2,-1,-1,-1,-2,-1,-10
1570180360873147,0,0,0,2,-1,-1,0,3
1570180360873147,4,-1,-4,-2,0,1,1,10
1570180360894049,3,0,1,1,0,-1,0,1
1570180360894049,-3,-1,1,0,-3,-1,-2,-10
1570180360895307,0,-1,-2,-3,0,0,2,2
1570180360895307,-5,-1,1,1,-1,-1,-2,-13
1570180360908062,17,3,2,0,-1,-2,1,26
1570180360908062,-3,-1,-2,-1,-1,-1,-3,-7
1570180360914993,-2,0,1,1,-1,-2,-1,-9
1570180360914993,2,0,-2,0,-1,-2,1,11
1570180360931975,-6,-2,0,-2,-1,-2,-2,-9
1570180360931975,0,0,0,-1,-1,0,-1,2
1570180360932948,0,-2,-2,-2,0,0,1,7
1570180360932948,1,-1,0,-1,-1,0,0,-8
1570180360953894,-4,-1,-2,-1,-2,-2,-6,-7
1570180360953894,-3,-1,-1,-1,1,0,-3,-7
1570180360955882,0,0,-1,-3,0,0,-1,2
1570180360955882,0,-2,0,-1,-1,1,0,0
1570180360967993,-3,-2,-2,0,0,0,1,1
1570180360967993,0,1,0,0,0,2,1,1
1570180360976830,-1,0,-3,-1,-2,0,0,6
1570180360976830,-1,-1,0,-1,-2,-2,0,1
1570180360991984,0,0,2,0,0,-1,1,4
1570180360991984,-7,-1,0,0,-2,0,-2,-9
1570180360992852,5,-1,0,1,0,1,1,7
1570180360992852,5,-1,-2,-1,-1,-1,-1,12
1570180361013947,-3,-1,-1,-1,-1,0,-2,-5
1570180361013947,-1,-1,0,-1,-2,-1,-1,-1
1570180361015934,-1,-1,-2,-2,0,-2,-1,-5
1570180361015934,3,0,-1,0,0,0,-1,3
1570180361027692,-2,-1,0,0,0,0,0,-7
1570180361027692,0,0,-1,-1,0,0,0,3
1570180361036668,-1,-2,-1,-1,-3,0,0,1
1570180361036668,-2,0,-1,-1,0,-1,-1,-1
1570180361051920,-3,-1,-1,-2,-1,2,-2,-6
1570180361051920,4,-1,-1,-1,-1,-2,1,8
1570180361053291,-1,-1,0,-2,0,-1,1,-1
1570180361053291,-3,-1,0,0,0,0,4,3
1570180361074033,-4,-2,-1,1,-2,-1,-3,-12
1570180361074033,4,-3,-3,-2,-1,-2,2,13
1570180361075564,-5,-1,-2,0,1,-1,0,-1
1570180361075564,-4,-1,0,-1,-1,-1,-3,-17
1570180361087685,-2,1,-1,-1,1,-2,-1,3
1570180361087685,2,0,0,-2,1,0,1,1
1570180361096513,-2,-2,0,0,-3,-1,0,-3
1570180361096513,1,0,-1,1,-1,-3,-1,-4
1570180361111797,-4,-1,-1,-2,0,-1,-1,-6
1570180361111797,2,-1,1,0,0,0,0,1
1570180361113520,-3,-1,0,-1,-1,-2,-2,-9
1570180361113520,0,-1,-2,1,-2,1,0,-3
1570180361133405,1,-1,-1,-1,-2,-3,0,0
1570180361133405,-1,-1,-1,-1,-1,-3,-1,1
1570180361135434,0,-1,0,-1,0,0,-1,-2
1570180361135434,-1,0,-1,-1,-2,1,0,3
1570180361147634,-3,-2,-2,-1,1,-1,-1,-3
1570180361147634,-4,-2,-1,-1,1,0,-1,-1
1570180361156448,0,-1,-2,0,0,-2,1,-5
1570180361156448,2,2,0,-1,0,-2,-2,0
1570180361171601,1,-1,0,-1,-2,0,2,3
1570180361171601,1,-2,-4,0,0,-2,-4,-3
1570180361173300,-6,-2,0,-1,0,0,1,-5
1570180361173300,-1,-1,-1,-2,0,1,0,5
1570180361194294,2,0,-1,0,0,1,-2,-1
1570180361194294,-2,0,0,-2,-1,-1,0,3
1570180361195415,2,2,1,-1,-2,-2,-2,-4
1570180361195415,1,0,0,-2,0,-1,1,0
1570180361207210,-2,0,0,0,-2,0,1,-6
1570180361207210,4,-1,0,0,-3,0,1,3
1570180361216241,5,0,0,0,-2,-1,-1,9
1570180361216241,-1,1,0,2,0,-1,-1,1
1570180361231504,1,0,0,1,-1,-1,-2,-2
1570180361231504,2,1,0,-1,1,-1,0,5
1570180361233281,-2,0,0,0,0,-2,-1,-1
1570180361233281,-1,-1,-1,0,-1,1,0,3
1570180361254120,2,-1,1,-1,0,-1,0,-4
1570180361254120,-5,-1,0,-1,-1,-1,-3,-10
1570180361255611,-1,1,-2,0,-2,1,0,-1
1570180361255611,0,-1,0,0,-2,-1,-2,2
1570180361268045,-1,0,1,0,-2,1,0,5
1570180361268045,-2,-1,-2,0,-1,2,0,-4
1570180361277026,0,-2,-2,-3,0,-1,-2,-3
1570180361277026,-2,-1,-2,1,-1,-1,-2,-2
1570180361292152,-7,-1,-1,-1,0,0,-1,-7
1570180361292152,1,1,0,1,1,-1,-1,-1
1570180361292991,-3,-2,-1,-2,0,1,-2,-2
1570180361292991,-1,-2,-2,0,0,-2,0,2
1570180361314150,0,0,-2,-1,-1,1,2,4
1570180361314150,-1,-1,-3,-1,0,-2,0,-1
1570180361315924,2,-2,-2,-1,-1,0,1,15
1570180361315924,-3,-1,-1,-2,-1,-1,-1,-9
1570180361327940,2,-1,-1,-1,-1,-2,-1,1
1570180361327940,1,1,0,0,-3,0,1,1
1570180361343846,-1,-1,0,1,0,-1,-2,-4
1570180361343846,0,0,-1,-1,2,-1,1,1
1570180361351821,-1,-2,-3,-1,2,1,0,5
1570180361351821,-1,0,-1,0,-1,0,1,-2
1570180361352820,-3,0,0,-1,-1,-3,-4,-7
1570180361352820,1,-1,-2,-2,-3,0,2,17
1570180361373761,1,1,-1,0,-2,0,-1,-1
1570180361373761,-3,-2,1,0,-2,1,-2,-5
1570180361375757,2,1,0,-1,-2,1,0,4
1570180361375757,-3,-1,0,-1,-1,-1,-1,-12
1570180361387861,-1,-1,0,-2,0,-2,-2,-1
1570180361387861,0,0,-1,-1,0,-1,-1,7
1570180361402743,-4,0,0,0,-1,-1,-4,-16
1570180361402743,0,0,1,-2,-1,0,-2,-3
1570180361412052,1,-2,2,1,-1,-1,2,3
1570180361412052,-1,0,-1,-1,-1,0,-2,-7
1570180361412661,-1,-1,-1,0,0,-1,2,1
1570180361412661,-1,0,0,-1,-1,1,-1,0
1570180361434601,1,1,-2,0,-1,-2,-1,5
1570180361434601,-4,-3,0,-1,0,-1,-1,-16
1570180361435682,5,0,0,0,0,-2,0,8
1570180361435682,-2,-2,-1,-1,-1,0,1,-4
1570180361456751,2,3,-1,-1,-1,0,1,4
1570180361456751,-2,0,0,-2,-1,1,-1,-1
1570180361458042,0,-2,0,-1,-1,1,-1,0
1570180361458042,-2,-2,1,0,0,-2,-1,-4
1570180361471717,-1,-3,1,1,0,-2,-3,-7
1570180361471717,6,1,-1,-2,-1,0,2,14
1570180361473498,-1,0,0,0,2,0,0,-3
1570180361473498,1,-1,-4,-1,0,0,0,4
1570180361494450,-2,-1,-1,0,1,1,0,6
1570180361494450,2,0,-1,0,-1,0,0,-6
1570180361495436,-5,-3,-2,-3,0,-1,-4,-16
1570180361495436,1,-1,0,0,1,0,1,6
1570180361516874,-2,0,0,0,0,1,0,-7
1570180361516874,2,-1,-2,0,-1,-3,-1,8
1570180361518378,0,0,0,-1,-2,-2,1,3
1570180361518378,-2,0,2,1,-1,-3,-2,-8
1570180361531546,2,1,-1,0,0,-2,-2,-1
1570180361531546,-1,0,-2,-2,0,1,1,5
1570180361533338,0,1,-1,-1,0,1,1,1
1570180361533338,-1,-2,-3,-1,0,1,1,2
1570180361554363,-1,-2,0,0,-1,0,-2,2
1570180361554363,-3,0,1,2,-1,-2,-5,-12
1570180361555284,2,-1,0,0,0,-2,1,6
1570180361555284,-2,0,1,-2,0,1,0,-2
1570180361576301,2,-2,-2,-2,-1,0,2,-5
1570180361576301,-2,-1,-1,-1,0,0,0,-2
1570180361578259,0,0,0,1,-1,1,-1,-3
1570180361578259,2,1,0,-1,-1,-3,-1,1
1570180361591188,-2,0,-2,-1,-2,-1,-1,1
1570180361591188,-4,-1,1,-2,-1,0,0,-3
1570180361597405,2,-1,-2,0,-1,0,2,8
1570180361597405,-4,-1,-2,-2,0,-1,-3,-10
1570180361613341,8,-1,-2,-2,-3,-1,2,13
1570180361613341,-3,-1,-3,-1,-1,-3,-4,-21
1570180361621760,-1,0,0,-1,-1,-1,-2,-1
1570180361621760,-3,-2,0,1,-2,0,-2,-3
1570180361636067,-3,0,-1,0,0,-1,0,-3
1570180361636067,1,-2,-1,0,1,0,-1,1
1570180361638108,-1,-1,-2,-1,-1,0,2,1
1570180361638108,1,-1,-2,-2,0,0,-1,1
1570180361651027,-2,-1,1,0,-1,-2,-6,-7
1570180361651027,2,-1,0,-1,1,1,-1,6
1570180361658045,-10,-2,0,0,0,-2,-5,-21
1570180361658045,5,0,1,1,-1,-2,0,8
1570180361673960,-4,-4,-3,0,-1,0,0,-5
1570180361673960,-1,1,-1,0,-2,-1,-2,-3
1570180361675955,0,-1,-1,-2,-1,1,0,2
1570180361675955,1,-1,-2,-1,-1,0,-1,-2
1570180361696666,-3,0,0,-1,1,-1,0,-1
1570180361696666,0,1,-1,1,-1,-1,-1,1
1570180361697896,0,-1,-3,-2,-1,-1,1,4
1570180361697896,-2,1,3,1,-2,-1,-2,2
1570180361710929,-1,1,-2,-3,0,-1,-1,-2
1570180361710929,-3,-2,-2,-1,-1,-1,1,-2
1570180361718089,1,-1,1,-1,0,-1,-2,1
1570180361718089,1,0,-2,0,-1,-2,1,-2
1570180361733807,-2,-1,-1,-1,0,0,-1,2
1570180361733807,-1,0,2,-1,0,-1,2,-3
1570180361735800,1,0,0,2,0,-1,0,0
1570180361735800,-4,-1,-1,0,0,0,-1,-2
1570180361756872,-1,0,-1,0,0,0,1,-1
1570180361756872,-1,-2,-1,-2,-1,-1,0,4
1570180361758505,-2,-1,0,-1,-2,0,0,-2
1570180361758505,-1,0,-1,0,1,0,-1,0
1570180361770722,-1,-2,-1,1,-1,-1,1,-4
1570180361770722,5,0,-1,1,1,-1,-1,11
1570180361777920,-8,-2,-3,-1,-1,-1,-1,-8
1570180361777920,-1,-1,-1,-2,-1,0,1,1
1570180361794085,1,0,1,1,1,-2,1,2
1570180361794085,0,-2,-1,0,0,0,-1,-6
1570180361795633,3,0,-1,-1,-1,0,0,6
1570180361795633,-1,-1,-2,-2,-2,-1,0,0
1570180361816576,1,-1,-1,-2,-1,-2,-2,1
1570180361816576,-1,0,0,1,-1,0,0,8
1570180361817573,1,-1,-1,-1,-1,-3,-4,-5
1570180361817573,0,0,-1,-2,-2,0,1,0
1570180361830539,0,-1,0,-1,-1,-2,-1,0
1570180361830539,-3,1,1,-2,-1,-1,0,-1
1570180361837520,1,-1,-2,-1,0,-1,0,3
1570180361837520,1,-2,0,1,-1,-1,-3,0
1570180361853510,-1,0,-2,-1,-1,0,0,-2
1570180361853510,-3,-2,-1,-1,-2,-2,2,3
1570180361855472,2,-1,-1,-1,-1,0,-1,2
1570180361855472,1,1,-2,0,0,-2,0,4
1570180361876416,1,-1,-2,-1,-1,0,2,2
1570180361876416,0,-1,0,-1,2,1,-1,-3
1570180361878139,2,-1,0,1,0,0,1,0
1570180361878139,0,-3,0,-1,-2,0,-2,3
1570180361898545,-3,-1,0,-1,-1,0,-1,-4
1570180361898545,2,0,-4,-2,-1,-1,0,-2
1570180361900353,1,0,0,-1,0,0,0,4
1570180361900353,0,-2,1,-1,0,-1,-2,2
1570180361914111,1,-1,-1,0,-1,0,-1,3
1570180361914111,0,-2,1,-2,-1,-1,-1,-1
1570180361916084,-1,0,2,-1,-3,-1,-1,-8
1570180361916084,1,1,-2,0,-1,1,0,1
1570180361936019,-7,1,1,0,1,-1,-2,-16
1570180361936019,2,0,-1,-1,0,0,0,5
1570180361938013,0,0,-2,0,-2,0,-3,-1
1570180361938013,-1,-1,0,-1,-1,-1,-1,-3
1570180361950072,-2,0,-2,-1,-1,-2,0,-9
1570180361950072,1,-1,-1,0,-1,0,1,-2
1570180361959240,-2,0,0,0,-1,0,1,6
1570180361959240,-1,-1,-1,-1,0,-1,-1,1
1570180361973816,0,-2,-2,1,0,-1,0,4
1570180361973816,-5,-2,-1,0,-2,-1,-4,-14
1570180361975858,0,-1,-1,0,-1,1,1,4
1570180361975858,-4,1,-2,-1,0,0,-2,-8
1570180361996760,8,0,0,-1,-1,1,1,15
1570180361996760,-1,0,-1,-1,-1,1,1,4
1570180361997752,0,0,-1,-2,-2,-2,0,-2
1570180361997752,-2,0,-1,-1,0,1,-1,-8
1570180362009722,-2,0,0,-2,-1,-1,-2,-6
1570180362009722,1,0,0,0,1,-2,-1,0
1570180362018781,-1,0,-2,-1,2,-1,0,-2
1570180362018781,0,0,0,0,-2,-1,1,-1
1570180362034383,-1,0,-2,1,-1,-1,-1,-1
1570180362034383,0,0,-2,0,0,0,1,8
1570180362035912,-2,-2,0,-1,-1,0,0,-14
1570180362035912,0,-1,-3,-2,0,1,3,2
1570180362056951,0,-1,-2,-2,0,2,-1,2
1570180362056951,-2,-2,1,-1,0,0,-2,-4
1570180362057965,3,0,-1,0,1,-3,0,5
1570180362057965,0,-3,-1,0,-1,-2,-1,0
1570180362069759,-3,0,0,-1,-3,1,0,-4
1570180362069759,6,2,1,1,-1,1,3,18
1570180362078735,-10,-1,-1,0,0,0,-1,-14
1570180362078735,3,0,0,-1,-1,0,-2,3
1570180362093694,0,-1,1,0,0,-1,0,4
1570180362093694,-1,-1,-2,0,0,0,-1,-11
1570180362095688,2,1,0,0,-3,-1,1,4
1570180362095688,-3,0,-1,0,-1,-1,1,0
1570180362116836,-2,-1,-1,0,-1,-1,-2,-3
1570180362116836,-1,-1,1,-2,-2,1,-2,-11
1570180362118628,0,-2,-1,-1,-1,-2,-2,1
1570180362118628,-5,0,0,0,-2,0,-3,-11
1570180362129805,7,1,1,1,0,-1,2,15
1570180362129805,-4,-1,-2,2,-1,-1,-3,-1
1570180362138788,3,-1,-2,0,0,-1,1,6
1570180362138788,2,-1,0,-3,0,0,0,-2
1570180362153754,-2,-2,0,-2,0,0,-1,-5
1570180362153754,-1,0,0,-3,-2,0,0,-1
1570180362155764,0,0,1,-2,1,1,1,2
1570180362155764,-3,1,-1,-1,0,-1,-2,-1
1570180362176785,-4,-2,-2,-2,-2,-2,-5,-19
1570180362176785,0,1,-1,1,-1,-1,2,1
1570180362178136,2,-2,-2,-1,-3,-2,-4,1
1570180362178136,-4,-2,1,0,0,-1,-1,-6
1570180362190019,0,-1,-1,-1,0,0,-1,-1
1570180362190019,-2,-1,0,0,-2,1,-1,-2
1570180362198997,0,0,0,-1,-2,1,1,2
1570180362198997,-1,1,0,0,-1,-2,-1,-1
1570180362213529,-2,2,-2,-1,-1,-1,-1,3
1570180362213529,-1,-1,0,-2,0,-2,-1,4
1570180362215521,1,1,-1,-1,2,-1,1,5
1570180362215521,2,1,-2,-1,-1,0,-1,2
1570180362236467,-2,-1,1,0,-2,1,1,0
1570180362236467,2,-1,-1,-1,1,-1,-2,-1
1570180362237602,-1,0,0,0,-2,0,-2,1
1570180362237602,1,-1,-2,-1,-1,1,0,1
1570180362250430,-2,1,1,-1,-1,-1,-4,-15
1570180362250430,0,2,1,1,-1,-1,0,-4
1570180362259761,-3,0,0,0,0,1,0,-1
1570180362259761,2,-2,-3,-2,-1,0,1,1
1570180362273488,-5,-4,-3,-1,-1,-1,0,-1
1570180362273488,2,-1,-1,-1,-2,-1,-1,0
1570180362275363,-2,1,0,-1,1,-1,-1,-7
1570180362275363,1,-1,0,1,-1,-1,0,6
1570180362296454,0,0,-2,-1,1,-1,0,3
1570180362296454,-2,0,-1,-1,0,-1,0,1
1570180362298386,-2,-2,-2,-2,0,0,1,2
1570180362298386,-4,-2,2,-1,-3,-3,-2,-12
1570180362310271,9,1,-1,-2,-1,0,2,13
1570180362310271,-3,-3,-2,-1,-3,-1,-2,1
1570180362319243,-2,1,0,-1,0,-1,-1,-5
1570180362319243,-1,0,-2,0,1,-1,1,-1
1570180362334293,-2,1,-1,-1,0,0,-1,1
1570180362334293,1,-1,0,-1,0,0,1,-1
1570180362335202,1,0,0,0,-1,-2,-2,-1
1570180362335202,1,0,0,0,-1,0,-1,5
1570180362356189,-2,-2,0,-1,2,-1,1,-5
1570180362356189,1,0,-1,0,1,0,0,1
1570180362358143,-1,-2,0,-1,-3,0,1,-1
1570180362358143,3,1,0,0,-1,-1,0,4
1570180362379084,-1,-1,0,-1,-2,-2,0,1
1570180362379084,-1,-1,-2,-1,-1,-1,-1,-3
1570180362380135,-1,-1,1,0,-1,0,-3,-1
1570180362380135,2,0,-1,-1,-2,0,1,4
1570180362394044,-5,-3,0,2,-2,-4,-9,-23
1570180362394044,6,0,0,-1,-3,-1,3,17
1570180362395042,-3,0,0,0,-3,-1,-1,-2
1570180362395042,0,-1,0,0,0,-1,-2,-2
1570180362417161,-2,-1,0,-2,-1,1,0,2
1570180362417161,-2,-1,-3,0,-1,0,-1,-7
1570180362417983,2,-2,0,0,1,0,0,3
1570180362417983,-1,-1,-2,-1,0,-1,-1,3
1570180362439070,0,1,0,1,0,0,2,3
1570180362439070,-3,0,-1,0,1,-1,-2,-4
1570180362440922,0,1,-2,-2,1,-1,2,5
1570180362440922,-2,0,-2,-1,1,0,0,-3
1570180362453887,-1,-1,-1,0,-1,-1,0,6
1570180362453887,-4,-2,-1,-2,1,-1,-2,-3
1570180362455880,8,-1,-1,-2,0,-3,1,5
1570180362455880,-5,-2,1,0,0,-1,-4,-5
1570180362477070,3,0,-2,-1,-1,1,2,8
1570180362477070,-2,0,-2,-1,0,1,1,-3
1570180362479065,0,0,0,0,1,1,0,5
1570180362479065,-1,0,0,0,-2,0,-3,-7
1570180362499043,2,-1,-1,-2,-1,1,1,5
1570180362499043,-4,0,1,-1,-2,-1,-2,-20
1570180362500004,2,-2,-3,-1,-2,-1,0,4
1570180362500004,-2,-1,0,-2,1,1,-1,1
1570180362513971,-4,-2,1,0,-1,-1,-1,-1
1570180362513971,-1,0,0,-1,0,0,-1,-2
1570180362515962,-3,-2,-1,0,0,-1,-2,-6
1570180362515962,0,-1,-2,1,0,0,0,0
1570180362535907,0,-1,0,-1,-1,-1,1,4
1570180362535907,-3,-1,0,1,0,0,-2,-7
1570180362538057,-2,-1,-1,0,1,0,-2,-4
1570180362538057,0,-1,2,-3,-1,-2,2,5
1570180362558848,-1,0,-1,-1,1,1,0,-1
1570180362558848,-2,-2,-2,-1,0,1,0,3
1570180362560849,-1,-1,0,0,-1,0,-2,-1
1570180362560849,0,-2,-1,0,1,0,-2,-6
1570180362572812,0,1,-1,0,-1,-2,-3,7
1570180362572812,-1,-1,0,-1,-2,0,-1,-3
1570180362579790,2,1,-2,-2,-1,0,1,5
1570180362579790,2,-1,-1,0,-2,1,2,4
1570180362596748,-6,-1,-2,-2,-2,-2,-5,-20
1570180362596748,3,1,1,1,-1,-1,2,9
1570180362597743,-2,0,-1,-1,-2,-1,1,-2
1570180362597743,-2,-1,-2,-2,1,0,1,3
1570180362618685,1,0,-2,1,0,-3,-3,-8
1570180362618685,-4,-1,0,-2,-1,-2,-3,-6
1570180362620785,-1,0,1,-1,-2,-2,-3,-5
1570180362620785,0,-1,1,-1,-1,-1,1,3
1570180362641629,0,-1,-2,-1,0,1,1,2
1570180362641629,2,-1,-3,-2,0,0,1,6
1570180362642626,-2,-1,-2,1,-1,0,-1,-3
1570180362642626,-4,-1,0,-1,0,1,-2,-4
1570180362656620,-1,0,0,0,-1,-1,-1,-2
1570180362656620,5,1,-1,2,1,-1,2,8
1570180362659578,-1,-1,0,-1,0,-1,1,2
1570180362659578,-2,-1,-2,0,-1,-1,-4,-14
1570180362678619,1,-1,0,-1,2,0,1,2
1570180362678619,-1,-1,-1,0,0,-1,-2,6
1570180362680520,-1,-1,0,0,-1,0,0,-3
1570180362680520,-1,0,-3,-1,-2,-1,0,0
1570180362693486,-2,-1,-2,-1,-2,2,1,1
1570180362693486,0,-1,-2,-2,0,-1,-3,-4
1570180362700468,-7,-1,-2,-1,2,0,0,-5
1570180362700468,5,0,-1,1,0,2,5,22
1570180362717424,0,2,-1,0,0,0,0,2
1570180362717424,0,-1,0,-1,1,-1,-2,-2
1570180362719418,-2,0,-1,-2,-1,-1,-3,-1
1570180362719418,-2,-1,0,-2,0,-1,-1,-3
1570180362739364,-1,-1,-1,-1,-1,0,0,-1
1570180362739364,1,-1,1,-2,-1,-2,2,4
1570180362740360,0,2,1,0,0,-1,-3,-6
1570180362740360,1,-1,-3,-1,-2,-2,-3,-5
1570180362753509,1,-1,-2,0,-2,-1,-1,3
1570180362753509,-3,1,-1,0,-3,-1,-2,-4
1570180362760340,-2,0,-2,-1,-1,-2,-1,-1
1570180362760340,-3,0,0,0,-1,-1,-1,-3
1570180362776267,-1,-1,0,-1,0,-1,1,-1
1570180362776267,2,0,0,0,-2,1,-2,1
1570180362778327,1,-2,1,-1,-1,1,2,5
1570180362778327,-7,1,0,0,-1,-2,-3,-12
1570180362799203,2,0,-1,-1,0,-1,-2,7
1570180362799203,-2,0,-1,0,-1,-1,-2,-2
1570180362800200,1,1,0,0,1,0,-2,-1
1570180362800200,0,-1,-1,0,1,0,0,0
1570180362813508,-3,0,2,1,-1,-2,-2,-4
1570180362813508,-2,-3,-1,-2,-3,-1,-4,-16
1570180362820255,-1,0,-1,0,0,1,0,-1
1570180362820255,1,0,0,0,-3,-1,-1,-2
1570180362836108,-1,0,-1,0,-1,-1,-2,2
1570180362836108,-1,-2,-1,-1,-1,1,0,-4
1570180362838099,0,-2,-2,0,-1,0,3,6
1570180362838099,-1,0,0,-1,0,1,1,3
1570180362859042,0,-1,-2,-2,-2,-1,0,-5
1570180362859042,1,1,0,-2,0,-2,-1,4
1570180362860040,2,-1,1,2,0,0,-2,-2
1570180362860040,-8,0,-1,-1,-1,0,-2,-9
1570180362872008,0,-1,0,0,-1,1,0,2
1570180362872008,1,0,-2,0,-2,0,0,2
1570180362880983,-3,-2,-2,-2,-1,0,-1,-5
1570180362880983,4,-2,-1,-1,0,-1,1,14
1570180362895943,-1,0,-1,-1,1,0,1,-1
1570180362895943,-1,0,0,-2,0,1,1,2
1570180362897938,3,-1,0,0,-1,-2,-3,5
1570180362897938,-3,-2,0,0,-1,-1,-6,-24
1570180362918882,4,0,0,1,0,0,-1,4
1570180362918882,-1,0,-2,1,-1,0,0,5
1570180362920876,-1,-2,-1,-1,-1,-1,1,-1
1570180362920876,3,1,-1,0,-1,-1,3,7
1570180362932844,-2,-1,-1,0,-1,-1,-2,-3
1570180362932844,-7,-1,0,-1,-1,-2,1,-9
1570180362941869,-2,0,0,1,-1,-1,-2,-7
1570180362941869,-1,0,-1,-1,-1,-1,-1,3
1570180362956806,-2,-1,-1,-2,-1,-1,0,-1
1570180362956806,-1,1,0,1,0,-2,0,1
1570180362958020,-1,-2,-1,-2,-1,-1,-1,-2
1570180362958020,0,-2,0,1,0,0,-2,-2
1570180362978722,1,-1,-2,-2,-1,0,2,5
1570180362978722,-2,-2,-3,-2,-1,0,-2,-4
1570180362980729,-2,0,-1,0,0,-1,1,2
1570180362980729,0,1,-2,0,0,0,-2,1
1570180362992688,-2,0,-1,-1,-1,-1,0,-3
1570180362992688,-1,0,-2,0,-1,-1,0,1
1570180363007644,0,-1,-1,-1,-1,-1,-1,2
1570180363007644,4,-2,-1,0,-1,0,2,10
1570180363016621,3,0,-1,-1,1,0,-1,4
1570180363016621,5,1,0,-1,0,3,5,18
1570180363017618,-5,-1,-1,-1,-2,-3,-4,-6
1570180363017618,-2,0,1,0,0,-1,-2,-6
1570180363038644,-1,-1,0,-1,-1,-1,0,-4
1570180363038644,0,-1,1,0,0,-1,-4,-12
1570180363040555,-1,0,1,1,1,0,1,1
1570180363040555,-1,-1,-1,-1,-1,0,0,0
1570180363052524,-1,0,-2,-2,-1,-1,2,5
1570180363052524,-1,-2,-1,0,0,-2,-1,-3
1570180363061501,0,0,-1,-1,-1,-1,0,-1
1570180363061501,1,-1,-2,-2,-1,-1,2,-1
1570180363076461,-1,-1,1,1,-1,1,-2,-3
1570180363076461,2,0,-1,0,-1,-2,-2,4
1570180363077458,2,-2,-1,-1,-1,0,1,2
1570180363077458,2,0,-1,-1,1,0,1,6
1570180363098402,0,-2,-3,-2,-1,0,-1,-2
1570180363098402,-2,0,0,0,0,0,-1,0
1570180363100397,-2,-1,0,0,1,1,-1,2
1570180363100397,-2,1,0,-1,-2,-2,-1,0
1570180363112365,-2,0,1,2,-1,-3,-1,-4
1570180363112365,-2,-3,0,0,-2,0,2,-2
1570180363121937,1,0,-1,-2,-1,0,-1,-9
1570180363121937,0,-1,0,-1,-1,-1,1,5
1570180363136300,1,-2,-2,-3,0,0,-1,2
1570180363136300,-2,1,0,-1,0,-3,-4,-5
1570180363138296,1,0,0,0,-2,-1,-1,1
1570180363138296,-4,0,-1,2,0,-3,-3,-3
1570180363158242,-1,0,0,-2,0,0,-1,-6
1570180363158242,0,-1,-1,0,1,1,1,0
1570180363165223,-3,-1,-2,-1,-1,0,0,-1
1570180363165223,-4,-1,-2,-1,1,0,0,-5
1570180363172204,-4,-1,1,0,-2,0,-1,-2
1570180363172204,2,-1,0,-1,-2,0,-3,0
1570180363181180,0,-3,-3,-2,-1,0,1,2
1570180363181180,-1,-1,-1,-1,-3,-1,1,0
1570180363196140,-1,-1,0,1,-1,-2,0,0
1570180363196140,-2,0,-3,-1,-1,0,1,-3
1570180363198135,3,0,0,0,0,-1,-1,-1
1570180363198135,2,-1,1,0,-1,1,4,18
1570180363219153,0,-1,0,-1,-2,-1,-3,-4
1570180363219153,2,0,-2,0,0,0,2,5
1570180363220077,-1,-1,-2,-1,-1,-1,0,-3
1570180363220077,0,1,-2,0,1,-1,-2,-8
1570180363232215,0,0,-1,-1,-1,0,2,7
1570180363232215,-1,-2,-1,-2,0,-1,-1,2
1570180363241020,-2,-1,-3,0,-1,-2,0,6
1570180363241020,-1,0,-1,1,-1,-2,-3,-3
1570180363255981,0,-2,1,-1,1,1,1,4
1570180363255981,-7,-1,0,0,-1,-2,-2,-15
1570180363257976,1,0,1,0,-1,1,1,3
1570180363257976,-1,-1,1,-3,0,-2,-4,0
1570180363278922,2,1,0,0,-1,1,1,4
1570180363278922,1,-1,0,-1,0,-1,-1,7
1570180363280914,-2,-2,-2,-1,-1,0,-2,-3
1570180363280914,-3,1,-2,0,-2,-1,0,-1
1570180363292882,-1,1,0,0,0,0,-5,-14
1570180363292882,3,2,0,1,1,1,1,8
1570180363301858,-2,0,-2,-3,-1,-1,0,-3
1570180363301858,2,-1,0,-2,0,-1,-1,2
1570180363315821,-6,-2,-2,-1,-1,-2,-4,-16
1570180363315821,4,0,1,-2,-2,-1,1,10
1570180363317816,-3,0,1,0,-2,-2,-2,-3
1570180363317816,-2,-1,0,-3,-1,0,-1,-4
1570180363338760,-2,-1,-2,-2,0,-1,0,0
1570180363338760,2,0,1,0,0,0,1,3
1570180363340754,-1,0,0,-1,1,0,1,-1
1570180363340754,0,-1,-1,0,-1,0,0,0
1570180363361698,-1,0,-2,-2,-1,-1,-3,0
1570180363361698,-3,-2,-3,0,-2,-1,-5,-8
1570180363362695,1,-2,-1,-2,0,-1,0,3
1570180363362695,0,0,-2,0,-1,0,0,-3
1570180363376657,0,1,-1,1,0,-2,0,0
1570180363376657,-3,0,-1,-1,0,-1,0,-4
1570180363377657,1,1,0,-1,0,-1,-4,-4
1570180363377657,-1,-1,-2,-3,-1,0,0,-2
1570180363398599,-2,-3,-1,0,-1,0,-1,1
1570180363398599,-2,0,1,-1,-3,0,-3,-4
1570180363400594,1,0,0,0,0,0,2,4
1570180363400594,-2,-1,-2,-1,-1,-1,-2,-5
1570180363421539,-6,-1,-2,0,-1,-1,1,-12
1570180363421539,-1,-1,1,0,-1,-1,3,13
1570180363423113,4,0,0,1,0,-1,0,8
1570180363423113,-1,-1,-2,0,-1,0,0,-1
1570180363436498,0,0,1,-2,0,-1,0,6
1570180363436498,-1,-1,-1,0,-1,1,-1,-9
1570180363437496,-3,-1,0,-1,-1,-1,0,3
1570180363437496,0,-2,0,0,2,-2,-1,-2
1570180363458441,6,0,0,-1,0,0,0,5
1570180363458441,-1,-2,-2,-3,-1,-1,1,-4
1570180363460435,0,-1,-1,-1,0,-1,-1,-2
1570180363460435,2,-1,-1,-1,-2,0,-1,4
1570180363481378,-7,0,0,-1,0,-1,-2,-4
1570180363481378,0,-1,-1,-1,-1,-2,-1,2
1570180363483375,0,0,0,-1,0,-1,-1,-2
1570180363483375,2,-1,0,0,-1,-2,-1,4
1570180363504317,2,-1,-2,1,-2,0,-1,3
1570180363504317,-4,-2,-1,-1,0,-2,-2,-4
1570180363505315,-3,-2,-2,-2,-3,1,-1,-4
1570180363505315,-4,-1,1,-1,0,-1,-1,-8
1570180363519279,-1,1,1,0,1,-1,0,3
1570180363519279,1,1,0,1,-1,-2,-3,-6
1570180363520278,0,-1,-3,-2,-4,-2,1,-3
1570180363520278,-2,1,-1,-1,0,0,-1,-4
1570180363541221,5,-1,-1,-2,0,0,2,10
1570180363541221,-4,-2,-1,-1,2,-2,0,-5
1570180363543214,-1,0,-1,0,0,-1,-1,-1
1570180363543214,1,-2,-2,-1,-2,0,0,0
1570180363555184,0,-1,-1,0,0,1,-1,-3
1570180363555184,-3,-1,-2,-2,-1,-1,1,-6
1570180363564157,3,1,2,2,1,0,0,4
1570180363564157,0,-1,-1,-1,0,-1,2,4
1570180363579121,-3,-1,-1,-2,-3,-1,-1,-5
1570180363579121,2,-1,-3,-2,-1,0,-2,3
1570180363580116,-2,1,-1,1,0,-2,0,-6
1570180363580116,-1,-1,-1,-1,0,0,-1,0
1570180363602064,-6,-2,-1,0,-2,-2,-5,-17
1570180363602064,3,0,-1,-1,1,0,-1,2
1570180363603055,0,-1,0,0,-2,-2,-2,5
1570180363603055,-1,0,-2,0,-1,0,1,4
1570180363616134,0,1,-2,-1,-1,1,-1,3
1570180363616134,-1,0,-1,-1,-2,-1,0,-1
1570180363623002,-1,-2,1,0,0,-1,-2,-3
1570180363623002,-2,-1,0,0,-3,-2,-1,-6
1570180363638963,-1,0,0,1,-1,-2,-1,0
1570180363638963,2,1,0,-1,1,1,0,3
1570180363639955,-3,0,-3,-1,0,0,0,-3
1570180363639955,2,-1,-1,-1,-2,-1,0,8
1570180363661981,1,-1,1,-1,1,-1,1,-2
1570180363661981,1,-2,0,1,0,-1,1,10
1570180363662986,-3,0,1,0,-1,-1,-3,-6
1570180363662986,-2,0,-1,0,0,0,-1,-1
1570180363675859,0,1,-1,-2,-1,-1,0,3
1570180363675859,-3,0,-1,0,-1,1,-3,-7
1570180363682875,0,-2,-2,-2,-1,0,0,-2
1570180363682875,4,0,1,-1,0,0,0,2
1570180363699177,0,-2,0,0,-1,-1,1,0
1570180363699177,1,0,-1,1,-2,0,2,-3
1570180363700913,-4,-1,-2,0,-1,0,-1,-4
1570180363700913,1,2,1,0,-2,-1,-4,4
1570180363721736,2,-2,-1,0,0,0,1,2
1570180363721736,-4,-3,-1,-1,0,0,-4,-16
1570180363722768,1,2,0,0,0,0,0,3
1570180363722768,-2,0,0,0,1,-1,0,0
1570180363735699,3,-1,0,0,-2,1,-1,6
1570180363735699,-2,-3,-2,-2,-2,-1,-2,-3
1570180363742764,-3,-1,-1,-1,-1,2,-1,-2
1570180363742764,-5,0,-2,-2,-1,1,-1,-9
1570180363758640,2,0,-1,-2,1,-1,2,6
1570180363758640,0,0,0,-1,-1,-1,1,2
1570180363760634,4,0,-2,0,-1,-1,2,9
1570180363760634,-8,-2,0,1,-1,-2,-1,-13
1570180363781577,-3,1,-2,1,0,-2,0,-6
1570180363781577,0,-1,-1,-2,-2,0,1,4
1570180363783397,0,0,0,0,-2,-2,-2,0
1570180363783397,-2,-1,-2,-1,-2,0,-2,-2
1570180363795889,0,-1,0,-2,-2,0,-2,-6
1570180363795889,1,1,1,0,-1,-2,2,6
1570180363802639,0,-1,-1,0,-1,-3,0,-4
1570180363802639,-3,-2,-1,0,0,-2,-1,-2
1570180363818483,-1,-1,-2,0,0,0,-2,-2
1570180363818483,3,0,0,0,-1,0,4,15
1570180363820475,1,-1,-1,-1,0,0,1,-1
1570180363820475,0,0,-1,-1,1,1,1,1
1570180363841540,-2,-1,-2,0,-2,-1,-2,0
1570180363841540,-2,-1,-1,-1,-1,-2,-3,-6
1570180363843413,-2,0,-2,-1,-2,0,-1,3
1570180363843413,2,0,-1,-1,-1,0,1,6
1570180363864356,-4,1,-2,0,-2,0,-1,1
1570180363864356,-2,-1,0,0,-1,1,1,-1
1570180363865353,4,0,-1,-1,0,0,0,3
1570180363865353,-1,-1,0,-1,1,0,-2,-3
1570180363879319,0,-1,0,1,2,2,0,2
1570180363879319,-1,0,-2,-1,1,0,-1,-3
1570180363880312,-2,-3,-1,-1,1,-1,-1,-3
1570180363880312,-2,-1,0,0,-2,-2,-4,-5
1570180363901320,0,-1,-3,-1,0,-1,-2,-2
1570180363901320,1,1,0,0,0,-2,0,2
1570180363903376,-3,-1,-2,1,0,1,-1,-8
1570180363903376,2,-1,-2,-1,0,0,1,4
1570180363915220,-7,-3,-1,-4,-3,-2,-2,-8
1570180363915220,-3,-2,-2,-2,-1,-3,-7,-19
1570180363924196,-1,1,-1,-2,0,2,2,1
1570180363924196,2,0,-1,1,0,0,0,4
1570180363939156,1,0,0,0,-1,-1,1,6
1570180363939156,1,0,-2,0,-1,0,-1,-1
1570180363940152,1,-1,1,-2,-2,-2,-1,1
1570180363940152,-2,0,0,-2,-1,1,1,-3
1570180363961222,-1,-1,-1,-3,0,2,2,2
1570180363961222,1,-1,-1,-1,0,0,0,2
1570180363963093,-4,-2,-1,0,-1,-3,-3,-7
1570180363963093,3,1,-1,1,-2,1,2,10
1570180363975060,1,1,0,1,1,-3,-1,-4
1570180363975060,-1,-1,0,0,-1,0,1,-2
1570180363984037,1,-1,-1,0,0,-1,0,1
1570180363984037,-1,-3,-2,-1,-1,-1,0,-2
1570180363999100,-6,0,0,0,-3,1,-3,-14
1570180363999100,1,-1,0,-1,-1,0,1,7
1570180364000990,-2,1,1,-2,0,1,-1,-1
1570180364000990,2,1,0,0,1,1,3,14
1570180364021934,2,0,-1,0,0,0,-1,5
1570180364021934,-2,1,-1,1,1,-1,-1,-4
1570180364022932,0,0,-1,-1,1,-2,1,2
1570180364022932,-3,-1,-1,-1,-1,-1,-3,-9
1570180364034902,1,-1,0,0,-1,-1,1,3
1570180364034902,0,0,-1,0,-1,0,1,-2
1570180364044099,-1,-3,-2,-2,-1,-1,-2,1
1570180364044099,0,-1,1,-1,0,-1,-2,-3
1570180364058838,-1,0,0,-1,-1,-1,0,-4
1570180364058838,-3,0,0,0,-1,1,-3,-5
1570180364060829,6,1,0,0,-1,1,1,10
1570180364060829,-2,0,0,-2,-2,0,-2,-4
1570180364081903,1,-3,-3,-3,-1,-2,-2,-4
1570180364081903,-5,-3,-1,1,0,-1,2,-7
1570180364082774,-2,-1,-1,1,-1,-3,-3,-1
1570180364082774,-1,1,1,1,0,-1,-2,-3
1570180364095744,1,0,-1,0,-2,0,-1,3
1570180364095744,1,-1,-2,-2,-3,-3,-2,4
1570180364104014,-1,-1,0,0,-1,1,1,2
1570180364104014,-1,-2,-3,-2,-2,-2,0,-2
1570180364118681,0,0,-2,0,1,-2,1,3
1570180364118681,2,0,-2,-2,-2,0,0,8
1570180364120799,-1,-2,-1,0,-1,0,-1,-2
1570180364120799,0,-1,-2,-2,-1,-1,-1,0
1570180364141619,0,-2,0,-1,0,0,0,3
1570180364141619,-3,-2,0,1,-1,-2,-2,-6
1570180364142612,-4,-1,-2,-3,-1,-2,0,-6
1570180364142612,-3,1,0,-2,-1,-1,-1,-5
1570180364154717,3,0,0,0,-1,-1,-1,-5
1570180364154717,-2,-1,0,1,0,0,-1,-3
1570180364164557,0,0,0,0,-1,0,-2,-3
1570180364164557,1,-1,-3,-1,0,1,1,1
1570180364179296,-1,-2,0,0,1,0,0,-2
1570180364179296,3,0,2,0,-2,-1,0,3
1570180364180509,1,-1,1,0,-1,-2,0,-2
1570180364180509,-1,0,-1,0,0,-1,0,4
1570180364201458,-4,-1,0,-1,-1,-2,-2,-6
1570180364201458,4,1,-3,-2,-1,0,2,18
1570180364203448,1,0,-1,0,1,0,0,2
1570180364203448,-1,-2,1,-1,1,-2,-1,-3
1570180364215416,0,1,-1,0,-1,-1,1,5
1570180364215416,-4,0,0,-1,2,0,-2,-5
1570180364224392,-3,-1,-1,-1,-3,0,-2,1
1570180364224392,-3,-1,1,0,0,1,-1,-10
1570180364239361,1,-1,-1,0,-2,-1,0,0
1570180364239361,5,-2,-3,-3,-2,-2,2,7
1570180364240353,-1,-2,-1,0,-1,0,0,0
1570180364240353,2,0,-1,-1,-1,-1,1,-3
1570180364261372,-1,0,-1,0,-1,0,-2,-2
1570180364261372,0,-1,-2,-2,-1,1,-1,2
1570180364263289,-1,1,-1,0,0,-2,-1,-5
1570180364263289,1,-2,-2,-2,0,-2,0,3
1570180364284301,-3,-2,0,-2,-1,0,-1,-3
1570180364284301,-3,-1,-1,1,0,0,-1,-9
1570180364285230,2,-2,-2,-2,-2,0,-2,-1
1570180364285230,-2,-1,-1,1,-1,-1,-1,-1
1570180364299196,1,1,1,1,0,0,2,5
1570180364299196,-2,-3,0,1,-1,1,-1,-2
1570180364301187,-3,1,0,1,0,-1,-3,-16
1570180364301187,2,0,0,-1,-2,0,0,3
1570180364321219,1,0,0,-2,-2,-1,0,3
1570180364321219,-1,1,-1,0,-1,-2,-3,-7
1570180364323388,-2,-1,-1,-1,1,0,1,0
1570180364323388,0,-1,-1,-1,-2,0,-1,3
1570180364344299,-4,-1,-2,-1,-1,1,0,-3
1570180364344299,-1,1,1,-2,-2,0,-1,3
1570180364345340,-1,0,-1,-1,-2,0,-1,1
1570180364345340,-1,-2,-1,0,-2,-2,-1,0
1570180364359181,1,0,-1,-1,0,0,-4,-1
1570180364359181,1,-2,-1,-3,0,0,0,-2
1570180364360030,-1,-1,-1,0,-2,1,2,10
1570180364360030,-3,-1,-2,-1,1,0,-1,-15
1570180364382000,0,-1,-2,0,0,0,-2,2
1570180364382000,1,0,-2,-1,0,-2,-3,1
1570180364382969,-2,-1,1,-2,0,-1,-1,-3
1570180364382969,-2,-2,0,-3,-2,0,-3,-3
1570180364403963,3,1,0,0,1,-3,1,1
1570180364403963,1,0,1,-1,2,0,1,5
1570180364405913,2,-1,-1,-1,0,-2,-1,-1
1570180364405913,2,-1,-1,0,0,-1,0,9
1570180364417992,-2,-1,1,0,-2,0,-1,-1
1570180364417992,-3,0,0,-1,-1,-1,-1,-5
1570180364424857,3,1,-2,2,0,-1,0,-1
1570180364424857,2,2,1,1,0,0,3,16
1570180364441831,-3,-2,1,-2,0,0,0,-1
1570180364441831,-2,0,-1,0,-2,-2,1,-8
1570180364442809,0,-1,-1,-1,0,0,0,0
1570180364442809,0,-1,-2,0,-2,-1,-1,-6
1570180364463915,-1,0,-3,0,0,0,-1,2
1570180364463915,-1,0,1,0,-1,-1,0,-1
1570180364465886,-1,-1,0,-2,0,-1,-1,-2
1570180364465886,-1,0,1,-2,-1,0,0,-6
1570180364478712,-1,-1,-1,0,-1,-3,0,2
1570180364478712,4,-2,-2,-1,0,0,2,7
1570180364485006,-2,-1,-1,-1,0,-1,-2,-7
1570180364485006,0,-1,-1,0,-1,0,-1,-1
1570180364501652,-1,-1,-1,-1,0,0,0,-1
1570180364501652,-3,0,-1,-1,-1,-1,-1,2
1570180364503174,0,1,-2,0,-3,0,-1,0
1570180364503174,-2,0,-1,-1,-1,0,-2,-4
1570180364523829,0,0,0,-2,-2,0,-1,-2
1570180364523829,-1,-1,-1,1,-1,-1,-2,-1
1570180364525587,-1,1,1,-1,0,0,-1,-1
1570180364525587,1,0,-1,-1,0,-1,-1,1
1570180364538561,-2,0,-2,1,0,-2,1,-4
1570180364538561,4,0,0,-2,-2,2,2,5
1570180364545535,-3,-2,-1,-2,-1,0,0,-2
1570180364545535,-2,-1,2,0,1,-3,-2,-4
1570180364561494,0,0,-2,-1,0,-1,1,4
1570180364561494,0,-2,-2,0,0,-2,0,-2
1570180364563486,2,0,-2,0,-2,-1,-1,-1
1570180364563486,-2,0,-1,-2,-1,-1,0,-3
1570180364583436,3,-1,-1,0,-2,1,0,0
1570180364583436,-1,0,-1,-2,0,0,3,11
1570180364585429,-1,0,-1,-1,1,0,1,1
1570180364585429,0,-3,-1,-2,1,-1,-1,2
1570180364598398,0,-1,-2,1,-1,-1,-4,-5
1570180364598398,-2,-1,0,1,-1,0,-2,-4
1570180364605627,1,-1,0,-2,-1,0,0,5
1570180364605627,3,2,0,1,-1,-1,-2,2
1570180364621512,4,-1,-1,-2,0,2,2,7
1570180364621512,-4,0,2,-1,-2,-1,-4,-10
1570180364623327,-2,0,1,1,-1,-3,-2,-5
1570180364623327,-1,-3,-1,0,-2,-2,-3,0
1570180364644276,-2,1,-1,0,-1,-2,-1,-4
1570180364644276,0,-1,-3,0,0,-2,0,-12
1570180364645338,2,-1,-2,0,-1,0,0,8
1570180364645338,-2,0,-1,-2,-1,0,0,-4
1570180364658501,1,0,0,-1,0,0,3,9
1570180364658501,0,0,0,0,0,-1,-1,3
1570180364665263,-2,-1,0,-2,-1,-1,-1,-6
1570180364665263,6,0,-1,0,0,0,0,6
1570180364681231,-3,-1,0,0,-1,-1,-4,-2
1570180364681231,-4,-3,-1,0,-3,-1,-5,-8
1570180364683167,0,-1,-2,-1,-1,-1,0,1
1570180364683167,-5,-1,-2,1,-1,-1,-1,-3
1570180364704114,-1,0,0,-1,-2,-1,-1,-1
1570180364704114,-11,-4,-3,-2,2,-1,12,-30
1570180364706219,2,0,0,0,1,0,-2,5
1570180364706219,-4,-2,-2,-1,-1,-1,0,-5
1570180364718245,0,0,0,1,0,0,-1,1
1570180364718245,1,1,0,-1,-1,-1,-5,-7
1570180364725102,-1,-1,-3,-1,0,-1,1,1
1570180364725102,4,1,-1,-1,0,1,6,20
1570180364741018,-1,-1,-1,0,-1,-2,-2,-5
1570180364741018,0,-2,-1,-1,-1,-2,-2,9
1570180364743008,2,1,1,0,0,-1,-6,10
1570180364743008,1,0,-3,1,-1,-2,-4,0
1570180364763955,-3,-2,-2,-1,0,-1,-1,-8
1570180364763955,3,1,-1,1,-2,-1,-6,7
1570180364765944,2,-2,-1,-1,-2,-3,1,1
1570180364765944,-5,-2,0,-1,1,7,3,-8
1570180364777914,1,-1,0,-2,-1,-2,-3,-3
1570180364777914,-2,0,0,0,-1,1,-1,-9
1570180364786892,0,-2,0,-1,-1,0,1,4
1570180364786892,-3,-2,-1,-2,-2,0,-2,-9
1570180364801855,0,-1,-1,-1,-1,-1,1,1
1570180364801855,2,-1,0,-2,1,-2,-2,9
1570180364802846,-4,-1,-2,1,-1,-1,-5,-22
1570180364802846,2,0,0,-1,-1,-2,-2,5
1570180364823792,-2,0,-3,-1,-1,-1,-2,-8
1570180364823792,-2,0,-1,0,-1,-2,0,2
1570180364825825,6,0,0,-1,-1,0,-1,7
1570180364825825,-1,-1,-1,1,-1,-3,-1,-8
1570180364837757,-1,-1,-2,-2,-1,-2,0,-1
1570180364837757,5,2,1,-2,-1,0,-2,4
1570180364846729,-5,-2,-1,-2,0,2,4,-7
1570180364846729,1,0,0,0,0,-1,-1,5
1570180364861692,-1,-2,1,-2,-1,-3,-1,-9
1570180364861692,4,1,0,0,-1,-1,-7,20
1570180364862876,-1,-2,-1,-1,1,1,-1,2
1570180364862876,1,2,1,0,-2,-1,4,17
1570180364883714,-1,-1,0,1,0,2,-2,0
1570180364883714,-2,-1,-2,-1,1,-1,2,-5
1570180364886250,-1,-1,2,-1,0,-1,1,-3
1570180364886250,-1,-3,0,0,1,-2,-2,-7
1570180364897597,5,1,1,0,-1,0,4,5
1570180364897597,3,0,-1,0,-1,5,5,15
1570180364906569,-2,-1,-1,-1,-5,-11,-4,0
1570180364906569,-3,-2,1,-2,0,-6,-3,-11
1570180364921536,-1,0,-1,-1,0,-1,3,6
1570180364921536,-3,-2,-2,-3,-1,-3,0,-3
1570180364922654,-3,2,1,0,-2,-1,-6,-9
1570180364922654,-2,-1,-1,-1,0,9,11,-4
1570180364951455,-4,-1,0,2,-1,-4,-3,-7
1570180364951455,0,0,0,0,-1,1,1,-3
1570180364952448,-1,0,-2,-1,1,4,3,-2
1570180364952448,2,-1,-1,-1,-2,-1,-1,5
1570180364957433,-4,0,0,0,1,2,-3,-8
1570180364957433,-2,-2,1,0,-1,0,-1,-5
1570180364966408,3,-2,-2,0,-1,0,2,4
1570180364966408,-1,0,0,0,-1,-3,-5,-9
1570180364981374,2,1,-1,-1,-1,0,1,5
1570180364981374,-2,-2,-1,-1,-2,-1,-2,-9
1570180364983363,-2,-2,-1,1,1,0,-3,-3
1570180364983363,-3,-1,0,0,-2,-2,-3,-7
1570180365004307,2,-2,0,-2,-1,0,-2,7
1570180365004307,-4,-1,-1,-2,-2,-2,-3,-14
1570180365005305,3,0,0,0,-3,1,5,13
1570180365005305,-4,-2,-2,-2,-1,-1,-6,-7
1570180365017272,-3,-1,-2,0,1,-2,0,-4
1570180365017272,-6,-1,0,0,0,-2,-2,-11
1570180365026249,5,0,-3,0,-1,0,2,9
1570180365026249,1,0,1,0,-1,-1,-1,0
1570180365041274,-1,-2,-1,-1,-1,1,9,2
1570180365041274,-2,1,-1,-1,-1,-3,-2,-2
1570180365043203,-3,0,3,1,1,1,-1,-4
1570180365043203,1,0,0,0,0,-3,-3,1
1570180365064152,-2,0,0,0,1,1,0,-5
1570180365064152,2,1,-2,1,-2,1,1,6
1570180365065146,0,-1,-2,-1,0,0,0,1
1570180365065146,-1,0,-1,0,0,1,2,-6
1570180365077188,0,-3,-3,0,-3,-2,-4,0
1570180365077188,4,0,1,0,1,1,5,21
1570180365086095,-3,0,-1,0,0,-3,-3,-2
1570180365086095,-1,-1,1,0,-1,0,-2,0
1570180365101120,-3,-1,-1,-2,-2,-1,-4,-2
1570180365101120,0,0,0,0,-1,1,1,-1
1570180365103044,-3,0,-1,-2,0,-1,-3,-5
1570180365103044,5,-1,-1,-1,-2,-2,2,11
1570180365123999,-5,-1,1,0,-1,-2,-3,-11
1570180365123999,-2,-1,-2,-1,-1,0,0,-3
1570180365124984,-1,-2,-2,-1,0,2,1,0
1570180365124984,-2,-2,-2,0,-3,-2,-3,-10
1570180365137956,0,-1,0,-1,-1,-1,-1,0
1570180365137956,1,-2,0,0,-1,2,0,1
1570180365147552,-1,-1,-1,-1,0,-2,2,3
1570180365147552,0,1,0,-1,0,0,-1,0
1570180365160999,-5,-1,-1,-1,-2,-1,4,-19
1570180365160999,0,1,-2,-1,-1,-3,-1,-1
1570180365167873,0,-2,-1,-2,-1,-1,0,-4
1570180365167873,-4,0,-1,-2,0,-2,-2,-3
1570180365184192,3,1,-3,-2,1,2,2,11
1570180365184192,-3,-3,-1,0,0,-2,1,-2
1570180365185823,-1,0,0,1,0,-1,-2,-3
1570180365185823,-1,0,-1,-2,-1,1,-2,-3
1570180365197791,3,0,1,-1,1,-1,-3,5
1570180365197791,2,-1,0,-1,-1,0,-2,1
1570180365206765,-1,0,1,-1,-1,1,-4,-9
1570180365206765,0,-3,-3,0,0,1,1,5
1570180365221892,0,0,0,1,-3,0,0,6
1570180365221892,-1,0,0,-1,0,0,-2,-2
1570180365222725,-1,-1,-1,-1,0,0,2,-1
1570180365222725,-1,0,0,-1,-1,-2,-1,1
1570180365243757,-1,0,2,2,-1,-1,-3,0
1570180365243757,-2,-2,-1,-1,-1,-2,-3,-8
1570180365245662,-1,3,0,1,-1,-1,1,8
1570180365245662,0,-1,-1,1,0,1,1,1
1570180365266673,1,-1,0,-1,0,1,-2,3
1570180365266673,0,-1,0,-2,-1,-1,-2,3
1570180365267769,1,-1,1,0,-1,1,0,1
1570180365267769,-10,-2,-1,0,-2,-3,-6,-10
1570180365281609,0,-1,0,-1,0,0,2,-1
1570180365281609,1,0,-1,-1,-1,-4,1,-1
1570180365282941,-1,-1,-2,-2,0,4,0,-2
1570180365282941,-2,1,-1,0,0,-1,4,-2
1570180365303506,-1,-1,1,-1,1,-1,-3,-1
1570180365303506,-3,-3,-1,-1,2,0,-3,-2
1570180365305502,-3,-1,0,0,-3,-1,-1,-3
1570180365305502,2,-1,-1,-1,0,-1,1,0
1570180365326583,-2,-2,-2,-1,-1,0,-1,-4
1570180365326583,2,0,0,-1,0,0,-4,6
1570180365328440,-5,-1,0,-1,-2,-2,-3,-12
1570180365328440,4,1,-2,-3,-2,0,3,13
1570180365341667,-1,1,0,0,-1,-3,-2,1
1570180365341667,-5,-2,-1,0,0,0,-1,-18
1570180365343414,-1,0,0,0,-1,-2,-1,-3
1570180365343414,-2,-1,0,-2,-1,-1,-3,-6
1570180365363854,3,-1,-3,-2,-1,-1,2,12
1570180365363854,1,-1,-2,-1,-1,0,0,2
1570180365365786,-7,0,-1,-1,-2,-2,1,-9
1570180365365786,6,2,1,2,0,-2,-15,11
1570180365386215,0,0,-2,0,0,-1,-1,2
1570180365386215,-1,0,0,-1,0,2,-1,-6
1570180365387001,4,-3,-2,-2,-1,0,-1,8
1570180365387001,-3,0,0,-1,-1,1,5,-3
1570180365399862,-1,0,0,-1,0,-1,-1,-5
1570180365399862,1,-1,-2,0,-1,-3,0,15
1570180365407896,0,0,0,-1,-1,-1,3,5
1570180365407896,-1,-1,-1,-1,2,2,1,-7
1570180365423269,-1,0,1,0,1,1,-2,-6
1570180365423269,-9,-3,-1,-2,-1,-1,1,-13
1570180365424268,2,-1,0,-1,-1,-2,-3,0
1570180365424268,0,-3,-2,0,-2,-1,2,1
1570180365446122,-2,-1,-1,-3,-1,0,0,0
1570180365446122,1,-1,-2,-1,0,13,2,-3
1570180365446122,2,-1,-1,-1,-2,-9,-4,4
1570180365446122,-1,-2,-1,-1,-2,-2,3,1
1570180365460229,-1,-1,-1,-1,-2,0,0,-3
1570180365460229,3,1,1,1,-1,-1,-1,9
1570180365467830,-1,-1,0,-1,1,4,1,0
1570180365467830,1,-2,1,0,0,1,0,-2
1570180365483498,-2,0,-1,-1,-2,-3,-1,-4
1570180365483498,-1,-2,-1,-2,-3,-1,6,-6
1570180365484388,-2,-1,2,-1,2,1,-4,-3
1570180365484388,0,1,-2,-3,-1,-2,0,6
1570180365505672,4,0,-2,1,1,2,0,6
1570180365505672,0,1,0,1,0,-3,-4,-3
1570180365506519,0,1,0,0,-2,0,0,-1
1570180365506519,0,-1,-1,-1,0,0,0,2
1570180365520043,-1,-2,-1,-1,-3,-5,-1,-6
1570180365520043,5,0,-1,0,0,4,1,14
1570180365528163,-1,-1,-1,1,-1,-1,-1,-2
1570180365528163,-2,0,0,-1,0,1,-1,-5
1570180365543296,0,-1,-2,0,-1,-2,0,1
1570180365543296,-8,-2,0,-1,-2,-6,-7,-26
1570180365544103,3,0,-1,-1,0,0,0,4
1570180365544103,-1,-1,-1,-2,-2,-2,2,-3
1570180365566133,-6,-2,0,-1,0,-2,-4,-10
1570180365566133,2,0,-1,-2,-1,-3,-2,7
1570180365566947,6,0,-2,-2,-1,0,3,23
1570180365566947,0,-2,-1,0,2,0,-2,-9
1570180365579884,2,1,1,1,1,0,0,0
1570180365579884,1,-1,1,-1,-4,-1,1,9
1570180365588382,-2,0,-1,0,-3,-2,0,-5
1570180365588382,1,0,1,-1,-1,-1,2,7
1570180365603513,-1,-1,-1,-5,-3,2,-3,-6
1570180365603513,-2,-1,0,1,8,0,-2,-5
1570180365604304,-1,-3,0,3,11,5,1,-2
1570180365604304,-4,-2,-2,-2,0,-5,-6,-10
1570180365625947,-3,-3,-5,-8,-25,-7,-5,1
1570180365625947,0,0,-2,-8,-5,-4,6,-2
1570180365626805,-1,3,10,15,9,2,1,-15
1570180365626805,-9,-9,-15,-22,-5,-1,1,7
1570180365648745,35,9,8,16,11,2,8,14
1570180365648745,-24,0,5,1,6,2,-16,2
1570180365650079,27,6,-11,0,19,13,16,12
1570180365650079,-13,4,13,-2,-4,-4,15,-14
1570180365663704,18,3,5,-8,-38,-18,-30,-6
1570180365663704,-43,-37,-22,-5,-6,-6,-3,-15
1570180365663782,6,13,-1,2,8,5,-5,16
1570180365663782,9,10,12,7,13,10,18,21
1570180365685650,-45,-33,3,7,4,8,17,2
1570180365685650,72,22,12,4,-7,1,5,3
1570180365686645,-19,-36,-27,-10,-5,-7,-29,-22
1570180365686645,14,11,-10,-1,3,-3,2,14
1570180365711156,-2,51,23,7,8,-3,-12,7
1570180365711156,-21,-31,12,5,3,1,5,2
1570180365711156,-18,22,-4,-12,-7,1,28,2
1570180365711156,10,-21,-2,3,-7,-2,-18,8
1570180365723545,1,2,-14,-7,13,7,3,-11
1570180365723545,-6,16,-4,2,13,3,1,2
1570180365723545,8,-14,5,0,-17,-9,-5,-1
1570180365723545,-10,0,0,3,-7,-1,-7,-10
1570180365745489,-10,-3,-12,-5,8,5,11,-3
1570180365745489,8,5,11,5,0,-1,1,-2
1570180365746486,-37,-16,-7,-5,-5,-1,4,-5
1570180365746486,15,14,4,10,11,1,2,-13
1570180365769423,-2,-10,-16,-16,-24,-14,-33,-13
1570180365769423,17,10,-10,-11,-10,-5,6,7
1570180365770048,28,15,7,-7,-10,-8,-2,-10
1570180365770048,-50,-33,21,16,10,7,7,-7
1570180365783385,0,-44,-36,7,17,8,13,3
1570180365783385,7,17,0,-6,-2,-3,-5,-1
1570180365784387,37,24,6,2,0,0,0,7
1570180365784387,-8,6,-23,-12,-5,-1,-4,-4
1570180365805327,-2,8,34,8,2,2,5,5
1570180365805327,34,-14,-10,10,0,1,-1,4
1570180365806751,-42,-5,17,7,4,1,4,0
1570180365806751,6,-3,-16,-9,-6,-3,-13,1
1570180365828267,31,30,1,-12,-3,0,6,11
1570180365828267,-42,0,9,1,3,0,-6,0
1570180365836243,29,6,-4,-2,-8,-6,-5,-5
1570180365836243,-29,-34,-5,3,-5,1,-2,-5
1570180365843225,-9,-7,-5,-1,3,2,4,1
1570180365843225,50,28,7,-1,3,2,4,14
1570180365844221,-38,23,1,-3,-1,-2,-5,-12
1570180365844221,12,-22,-4,-5,-10,-4,-5,-7
1570180365865810,59,11,2,7,9,1,8,12
1570180365865810,-66,-33,-4,-6,-5,-1,-2,-12
1570180365866809,68,34,16,12,6,2,0,10
1570180365866809,-35,-19,-16,-2,-2,-1,-1,-8
1570180365896738,27,5,6,-9,-4,-3,-3,-1
1570180365896738,-39,-29,-26,-8,-6,0,2,-6
1570180365897778,26,-2,-5,1,1,-1,-2,6
1570180365897778,13,34,11,-4,2,1,0,4
1570180365902859,-5,-1,-3,5,6,2,2,0
1570180365902859,55,16,11,9,4,3,4,10
1570180365904158,-90,-67,-25,-15,-10,-4,-12,-30
1570180365904158,34,35,17,6,1,-2,0,13
1570180365925915,29,-16,-13,-2,1,1,-2,-6
1570180365925915,-49,10,-2,-9,-5,-4,-4,-10
1570180365926648,-7,-24,6,15,8,2,1,8
1570180365926648,25,5,9,3,1,-1,0,2
1570180365949234,-20,-11,-5,-4,-5,0,-1,-3
1570180365949234,-11,-8,-14,-5,-3,-1,-2,1
1570180365949234,22,15,12,4,3,-2,-2,6
1570180365949234,-1,3,-5,-2,-2,0,-1,-4
1570180365963283,7,-2,7,2,1,1,3,1
1570180365963283,34,3,-8,-4,-7,-2,-1,0
1570180365971181,-47,0,-7,-5,-2,-1,3,1
1570180365971181,20,-1,8,-1,-2,-3,-4,-10
1570180365986264,-27,-9,-16,-10,-2,-1,-3,-6
1570180365986264,14,14,9,10,3,-1,2,4
1570180365986264,38,25,-2,-7,-4,1,-1,4
1570180365986264,16,0,21,14,3,0,3,8
1570180366009074,-32,-24,-15,-5,-2,-2,-4,-15
1570180366009074,5,2,-8,-8,-2,-2,-1,0
1570180366010073,2,-2,9,5,13,4,-1,-1
1570180366010073,-1,4,-13,-8,-11,-1,2,6
1570180366023123,-47,-22,13,11,10,-3,-5,-13
1570180366023123,92,42,-5,-6,-8,0,0,7
1570180366024035,-40,-15,-2,-2,-3,-4,-5,-12
1570180366024035,40,-17,-23,-12,-9,-1,3,8
1570180366045978,-48,19,26,17,8,-4,-8,-7
1570180366045978,-7,-22,-9,-2,0,-2,0,1
1570180366046975,28,26,18,2,-2,0,2,2
1570180366046975,-32,-4,-10,-7,-1,0,-1,-4
1570180366068920,61,1,-17,-9,-5,3,8,21
1570180366068920,-25,2,24,11,7,-6,-11,-12
1570180366069922,31,-18,-20,-10,-8,1,1,9
1570180366069922,-24,-7,-6,-1,0,-2,0,-3
1570180366083191,21,11,-9,-12,-7,2,3,6
1570180366083191,4,12,6,4,3,0,4,10
1570180366083876,-26,-21,-8,-4,-4,-2,-3,2
1570180366083876,2,13,5,-1,5,-1,7,-11
1570180366105879,45,18,-4,-5,-19,-7,-12,-6
1570180366105879,-28,-25,-9,-5,8,0,-2,-16
1570180366106815,-46,-18,26,11,-1,1,-2,-19
1570180366106815,-27,-22,-13,-5,1,-1,-2,-16
1570180366127894,-17,6,3,-1,-1,-4,1,-10
1570180366127894,44,18,33,11,0,1,-2,-8
1570180366128754,-22,-21,-26,-13,-7,-3,3,1
1570180366128754,9,21,-2,-5,3,-2,-8,-7
1570180366143715,15,5,20,5,3,3,6,7
1570180366143715,-19,-7,-14,-4,-2,-2,-3,18
1570180366143715,0,-12,-8,-7,-8,3,4,7
1570180366143715,30,16,7,4,-6,-5,8,5
1570180366165656,-1,14,8,13,25,14,2,-14
1570180366165656,-22,-24,-16,5,16,2,-2,-15
1570180366166654,27,27,12,8,5,-3,-6,6
1570180366166654,11,11,-3,-3,-8,-1,-3,7
1570180366188594,-3,-7,5,1,-5,-3,2,10
1570180366188594,-29,-12,-7,-4,-6,2,3,2
1570180366189593,49,60,-8,-6,-5,-3,-7,-21
1570180366189593,0,-49,15,4,1,-4,-8,-7
1570180366203706,0,0,-6,-9,-3,-1,0,2
1570180366203706,1,5,2,-5,-11,-2,5,7
1570180366204553,-17,-20,-25,-15,-6,-4,-1,-1
1570180366204553,-39,2,0,-4,-2,2,0,-12
1570180366225528,-19,15,13,9,4,-1,1,5
1570180366225528,-4,-10,-8,3,6,-1,3,-6
1570180366226553,42,9,9,1,-5,-1,-1,-1
1570180366226553,-19,-13,-5,6,8,2,-4,3
1570180366248436,-50,-1,1,-5,-13,-6,-5,-7
1570180366248436,-2,-12,-17,-16,-12,-3,-6,0
1570180366249432,9,2,33,16,13,4,5,13
1570180366249432,-20,1,-2,-4,-1,1,4,9
1570180366263419,0,16,9,12,18,5,8,-6
1570180366263419,-21,-31,-15,-6,3,-2,0,-19
1570180366263419,-42,-5,0,8,16,5,1,1
1570180366263419,59,2,-8,-18,-17,1,-3,1
1570180366285337,25,-18,-19,6,5,-1,-11,3
1570180366285337,23,43,42,17,5,-2,-11,3
1570180366286393,-28,-24,-7,-5,-25,-9,-9,-9
1570180366286393,3,14,10,17,38,16,2,1
1570180366309311,-4,-6,-15,-16,-12,-6,-2,-39
1570180366309311,1,7,3,1,2,3,-1,-17
1570180366309311,15,16,2,3,-9,-5,1,-16
1570180366309311,-21,-24,-5,6,-4,-7,-7,-28
1570180366323450,78,14,1,-3,0,-5,-11,-7
1570180366323450,-15,-4,-10,-6,-13,0,-5,20
1570180366324234,24,19,9,2,6,4,4,-14
1570180366324234,-6,-38,-2,5,-2,-3,-4,-47
1570180366346176,34,14,-10,-6,-4,-5,9,-31
1570180366346176,5,-2,4,-2,-8,-4,-2,51
1570180366346176,21,3,-14,-4,3,0,5,10
1570180366346176,30,24,7,4,2,3,7,23
1570180366369119,-62,-33,3,-1,-4,0,2,-51
1570180366369119,10,14,-12,-9,-4,-3,0,-36
1570180366370110,-9,-22,-6,-4,2,-2,-4,-6
1570180366370110,5,18,5,7,-3,-8,-1,17
1570180366383079,-47,-8,5,-1,2,4,19,48
1570180366383079,36,16,-6,-8,-6,-8,-1,6
1570180366384075,0,-7,-3,1,2,2,-3,5
1570180366384075,-4,9,-4,-6,-9,-2,-1,13
1570180366406019,-68,-10,2,3,-4,-5,-4,3
1570180366406019,8,-4,5,11,15,5,2,8
1570180366406019,46,6,-3,-7,-14,-4,3,12
1570180366406019,-32,-8,-13,-7,-2,-3,-12,1
1570180366427956,5,1,2,4,4,4,6,9
1570180366427956,-15,3,11,0,-2,0,5,7
1570180366428958,-23,-24,10,9,4,1,-1,-9
1570180366428958,19,25,4,-4,-6,-3,-3,9
1570180366442914,10,-9,-3,-4,-4,0,-3,3
1570180366442914,-24,-10,-6,1,-1,3,1,12
1570180366443913,11,-6,-10,-7,0,-4,2,13
1570180366443913,23,24,1,0,0,-3,3,-15
1570180366465855,14,-5,0,-3,-5,-2,-7,17
1570180366465855,-11,-2,6,7,-1,7,3,-7
1570180366472836,-25,-7,-2,2,3,-2,1,0
1570180366472836,-8,-12,0,2,6,2,6,1
1570180366488817,7,-7,-6,0,1,-6,-11,-17
1570180366488817,-17,-16,-2,-4,-13,3,6,-16
1570180366489789,31,28,5,3,19,5,1,5
1570180366489789,-1,4,2,6,-3,2,-1,-10
1570180366503207,-23,-8,1,7,15,3,1,19
1570180366503207,31,14,4,-1,-5,-1,1,10
1570180366503752,-5,-10,-2,-2,-5,2,-1,-2
1570180366503752,21,26,5,-2,-8,-6,1,16
1570180366525894,-37,-12,-11,-5,0,2,-3,3
1570180366525894,1,-3,-1,2,6,-2,-1,10
1570180366526690,-20,-5,-3,0,2,3,-4,10
1570180366526690,5,1,8,0,-2,-7,-9,1
1570180366556616,3,16,2,4,-5,1,-3,5
1570180366556616,38,10,-8,-6,1,0,0,11
1570180366557616,-51,-31,-11,-5,-8,-3,4,2
1570180366557616,39,20,-2,-4,-5,-1,1,11
1570180366563734,27,19,-3,3,0,-3,-2,-7
1570180366563734,-13,-17,19,5,2,-1,0,-24
1570180366563734,-9,6,-20,-4,-3,-4,-11,-16
1570180366563734,-1,1,20,8,6,8,6,18
1570180366585538,58,13,-15,-14,-12,-5,-8,-13
1570180366585538,-17,2,-4,-1,6,1,4,-4
1570180366586777,5,3,1,-1,-7,-1,7,8
1570180366586777,-17,-14,-8,-6,0,-5,-2,-8
1570180366616840,-40,-7,7,8,6,-3,3,-18
1570180366616840,-10,-8,-4,-5,-4,1,5,8
1570180366617448,17,-1,-5,-8,-6,-2,-8,-4
1570180366617448,-17,1,-9,-3,-1,1,1,-3
1570180366623432,-22,-37,-1,0,3,5,3,-18
1570180366623432,-3,31,8,2,-5,-7,-5,16
1570180366623432,-9,-10,3,-1,-8,-5,-6,0
1570180366623432,-8,-16,-10,-1,0,-2,-2,2
1570180366645421,17,33,7,-2,3,-1,-2,-1
1570180366645421,9,-14,-9,-4,5,1,0,20
1570180366647369,-51,-20,3,-1,-1,-2,-2,-29
1570180366647369,-16,-6,-2,-3,-2,1,0,-1
1570180366669313,72,23,-8,-7,-18,-6,0,24
1570180366669313,-9,-10,28,12,6,-2,-5,-17
1570180366669550,15,-1,-4,-1,-18,3,3,9
1570180366669550,-25,-26,-12,-1,17,2,0,-9
1570180366683274,1,22,4,-5,10,3,7,-5
1570180366683274,15,11,-3,0,-3,-5,-5,7
1570180366684269,3,-8,8,8,3,0,3,1
1570180366684269,13,-4,-1,-4,-18,0,0,-4
1570180366706212,1,-3,-12,-5,-2,-4,-2,12
1570180366706212,-67,5,8,3,8,3,0,-25
1570180366706212,18,14,4,-3,-4,-6,-4,-5
1570180366706212,-9,-2,-2,6,17,6,0,-7
1570180366728506,-15,-2,12,-3,-6,1,0,0
1570180366728506,17,-6,-19,-6,-5,-1,2,-13
1570180366729151,-20,-9,3,7,5,-3,-4,-1
1570180366729151,0,12,1,-7,-19,-6,2,-11
1570180366743113,-38,-47,-8,-1,8,4,-1,-16
1570180366743113,-3,-6,7,5,0,9,4,-7
1570180366744110,23,25,-8,-3,16,-1,-1,7
1570180366744110,4,15,-2,-8,-18,-3,-9,-20
1570180366766050,11,-17,2,4,9,3,-1,-8
1570180366766050,12,12,10,5,0,-3,-6,-15
1570180366766434,8,1,0,1,5,1,-3,-5
1570180366766434,-10,-9,7,8,1,-1,-6,0
1570180366788995,17,35,3,-4,-6,0,-2,0
1570180366788995,-42,-54,-28,-13,-5,-4,-6,-15
1570180366789992,32,20,12,-3,-16,-4,-5,1
1570180366789992,-5,7,3,5,23,1,1,-15
1570180366802954,-30,-17,-4,-6,-22,-4,1,-21
1570180366802954,29,14,2,5,28,3,5,-10
1570180366810938,-5,2,-4,-8,-7,3,4,9
1570180366810938,7,-16,-3,-4,-3,1,2,12
1570180366825893,4,-9,1,4,1,-2,-2,-6
1570180366825893,46,25,-5,-4,-11,-3,0,0
1570180366826888,3,-1,4,-3,0,2,0,-2
1570180366826888,-53,-20,-2,-3,-1,0,1,-26
1570180366848834,-8,-7,-1,2,0,1,1,-2
1570180366848834,-5,-4,1,1,-9,-5,5,-16
1570180366849827,20,2,-6,-1,11,12,3,10
1570180366849827,18,7,1,3,1,0,1,6
1570180366862122,-14,-2,2,-3,-3,1,-2,4
1570180366862122,-25,-13,-9,-7,-7,0,0,0
1570180366870770,21,38,4,5,2,-8,-5,-19
1570180366870770,6,-13,-1,0,1,-1,0,-6
1570180366893710,-5,-4,-6,-3,-1,-1,4,-9
1570180366893710,-3,-1,-4,-3,-4,-4,-10,14
1570180366894759,-10,1,-6,-4,0,-4,6,7
1570180366894759,14,13,0,1,2,10,1,-2
1570180366908671,16,6,0,-2,0,-5,-4,24
1570180366908671,-24,-3,7,7,2,0,-1,-5
1570180366908765,5,-14,-8,-5,-2,2,-3,-7
1570180366908765,16,9,-6,-5,-6,-7,0,20
1570180366922633,-23,-10,-4,-1,1,3,-3,-1
1570180366922633,14,1,0,2,-1,-4,-16,4
1570180366930612,-20,-3,1,1,2,2,-4,-4
1570180366930612,21,-5,4,2,-1,-4,-3,-8
1570180366945845,-52,2,-2,-2,-4,4,9,1
1570180366945845,-1,-4,-3,-2,-7,-2,-5,-7
1570180366946571,-36,-19,-1,2,9,-6,4,-9
1570180366946571,-21,-15,-6,1,-5,4,-4,17
1570180366968663,5,-4,4,5,-1,-2,0,1
1570180366968663,32,23,0,-2,-1,-2,5,9
1570180366969510,-21,-13,-5,-4,-4,-1,0,10
1570180366969510,6,22,8,0,-2,-5,3,-2
1570180366982817,28,-10,-5,-2,-5,-5,-7,5
1570180366982817,-4,-9,-3,-3,-6,2,7,22
1570180366998436,-5,13,10,3,2,1,1,9
1570180366998436,-37,-6,-6,0,-1,-2,0,5
1570180367005840,16,1,10,10,6,2,-3,6
1570180367005840,7,2,-8,-7,-2,-2,-1,16
1570180367006408,6,-4,0,0,-2,-1,3,1
1570180367006408,11,9,3,3,8,4,9,11
1570180367028357,-33,-13,-3,-4,-1,-4,-15,-5
1570180367028357,-5,1,0,-2,1,3,3,12
1570180367029346,-3,16,-2,0,-7,-5,-4,-6
1570180367029346,-34,-57,-3,-2,-4,-1,-6,-15
1570180367042313,19,13,-5,1,6,1,2,0
1570180367042313,-36,-11,1,-5,-8,-3,1,0
1570180367050400,5,-6,-10,-5,4,0,2,-4
1570180367050400,22,23,5,0,-1,-2,2,-2
1570180367065253,21,0,-2,-6,-9,-1,0,-6
1570180367065253,-13,-13,-4,-2,2,0,-2,5
1570180367066250,-1,4,7,3,1,-3,-4,-3
1570180367066250,-23,-16,-12,-9,-5,3,1,11
1570180367089255,42,16,0,5,2,0,-3,16
1570180367089255,29,16,13,2,-3,-1,-1,17
1570180367089255,-3,-22,-1,2,-3,2,4,29
1570180367089255,18,26,0,-2,-1,-4,-1,12
1570180367102158,-50,-4,-4,-3,0,0,6,45
1570180367102158,9,-4,-7,1,-2,1,7,30
1570180367111128,7,8,19,15,1,1,-2,15
1570180367111128,1,-3,-2,-1,2,-3,3,-1
1570180367126087,12,1,-1,2,-7,-2,1,-28
1570180367126087,-4,10,1,3,16,2,0,-40
1570180367126087,18,-1,-9,-5,-9,0,1,-15
1570180367126087,-11,7,9,8,14,3,-2,-35
1570180367149026,1,-3,-1,-1,-3,-2,-4,-16
1570180367149026,47,23,4,-1,-1,0,1,-17
1570180367150025,-4,-14,-9,-5,-6,-2,-5,-13
1570180367150025,19,7,2,-2,-7,0,-2,-11
1570180367172200,-54,-4,-6,-10,2,0,0,-15
1570180367172200,-10,-5,11,12,4,3,2,-13
1570180367172965,36,1,-11,-6,2,0,0,6
1570180367172965,-9,-1,-9,1,-6,-6,-11,-16
1570180367185965,2,-2,21,12,11,2,1,-9
1570180367185965,-13,-7,-12,-5,-6,-1,-1,-7
1570180367186925,-21,-12,4,0,3,2,0,0
1570180367186925,3,-3,2,11,3,-3,-1,-3
1570180367208869,26,17,-8,-10,-2,0,-1,3
1570180367208869,-24,-18,-12,-3,0,1,-3,-12
1570180367209866,25,25,9,3,6,1,3,0
1570180367209866,17,-9,-10,-7,-5,-2,0,7
1570180367231807,-26,9,15,4,-4,1,-1,-6
1570180367231807,-27,-14,-1,0,-5,-2,-4,-19
1570180367231807,-7,1,-4,-10,5,2,1,-1
1570180367231807,10,14,4,3,9,2,3,0
1570180367245974,-3,-15,-9,-5,4,-10,-2,3
1570180367245974,6,-17,-8,-8,-18,7,-1,5
1570180367246766,6,17,7,11,6,-1,-2,-8
1570180367246766,10,3,-3,-5,5,4,0,-4
1570180367268708,-23,-12,-2,1,-7,2,0,-1
1570180367268708,-23,6,3,0,12,-4,0,0
1570180367269910,-8,-14,-4,-3,-5,0,1,-5
1570180367269910,4,0,-4,-6,-9,-4,-3,6
1570180367291649,40,19,12,5,2,-1,2,5
1570180367291649,-31,-2,3,2,-3,-1,-1,-9
1570180367292645,6,16,-8,-10,-4,-3,-8,-12
1570180367292645,-14,-13,-9,-4,-7,-5,-3,-3
1570180367305608,0,-5,0,3,6,3,2,2
1570180367305608,52,27,-5,-6,-7,-8,-4,1
1570180367306889,-4,-6,-6,-2,0,2,2,13
1570180367306889,-5,-19,0,-1,-3,-3,-2,-5
1570180367328591,1,2,-1,1,-3,-1,1,-10
1570180367328591,18,14,5,-3,5,3,3,-1
1570180367328591,-16,-31,-10,0,-6,-4,-2,-8
1570180367328591,-18,-8,-7,-7,-8,-3,0,4
1570180367351606,13,15,5,1,-2,1,0,4
1570180367351606,2,-18,-5,-3,5,-2,-1,-5
1570180367352489,1,2,16,5,-1,2,1,2
1570180367352489,-35,9,10,10,8,1,-5,-10
1570180367365448,0,-8,-7,-5,-2,0,-3,5
1570180367365448,-4,1,-5,-3,-15,-1,-1,2
1570180367366445,-36,-25,-7,-3,16,1,2,-10
1570180367366445,19,23,9,2,2,0,2,-3
1570180367389388,19,-2,-8,-2,0,-1,-3,-12
1570180367389388,-11,6,6,4,1,0,-1,-14
1570180367389388,0,-5,1,-1,-8,-1,1,-19
1570180367389388,11,4,-1,-5,-6,-1,1,-14
1570180367411329,-18,-5,-1,-2,2,3,4,-41
1570180367411329,19,14,3,1,-1,-3,3,-7
1570180367412449,-19,-26,-1,-1,-3,-1,2,-8
1570180367412449,-16,9,-2,-3,2,-1,-1,-10
1570180367426289,9,-3,-1,1,-1,5,3,14
1570180367426289,18,4,2,0,2,-4,-5,10
1570180367426289,-6,2,1,6,3,2,1,17
1570180367426289,-5,-26,-5,-2,-3,-2,-3,26
1570180367449227,10,-2,-2,-1,-3,-3,-1,3
1570180367449227,-15,10,7,3,4,0,1,28
1570180367449227,-3,-20,-14,-7,-1,1,-1,19
1570180367449227,8,4,2,1,-3,0,-1,6
1570180367471169,-8,7,-1,1,-2,-4,-3,-8
1570180367471169,4,-10,-2,2,2,2,0,23
1570180367472166,5,11,6,-1,-4,-2,-4,-4
1570180367472166,-3,2,4,5,3,2,3,1
1570180367486222,-25,-13,-9,-7,-3,-1,-3,2
1570180367486222,10,0,-3,-1,-5,-7,-6,-10
1570180367487122,13,21,0,2,0,0,2,1
1570180367487122,20,14,4,4,-3,-1,0,9
1570180367509063,-4,-9,-6,-2,3,-3,0,7
1570180367509063,-5,-3,-6,-1,-2,0,0,-2
1570180367510066,-7,10,11,6,-1,0,1,-5
1570180367510066,-16,-10,-2,-3,-1,2,2,-9
1570180367531121,-3,-11,5,1,-3,-5,-4,4
1570180367531121,4,-16,-9,-1,5,7,2,0
1570180367532006,-31,2,4,1,1,1,2,6
1570180367532006,43,24,-8,-5,-8,-7,-6,14
1570180367545969,-6,-9,1,-4,-6,1,1,2
1570180367545969,-28,-19,2,0,4,2,3,22
1570180367545969,20,20,0,-3,-8,-3,-1,9
1570180367545969,-5,-9,2,2,8,0,1,-2
1570180367569901,10,4,-6,-4,-9,-7,-2,24
1570180367569901,11,-1,4,6,21,12,5,15
1570180367569901,4,-9,-9,-6,-13,-1,-3,33
1570180367569901,-8,-2,8,9,18,2,0,29
1570180367591842,35,23,2,-4,-5,1,-5,5
1570180367591842,-44,-33,-9,-6,-15,-10,2,26
1570180367592575,5,0,1,5,13,4,3,22
1570180367592575,0,-2,-2,-2,-5,1,3,-4
1570180367605860,-28,-18,-4,2,4,0,2,-24
1570180367605860,-6,5,3,-3,-10,-4,8,-29
1570180367606802,19,7,-2,-1,2,-1,-6,3
1570180367606802,11,-6,2,-4,-9,-2,-3,4
1570180367627751,-4,10,13,7,11,5,6,15
1570180367627751,26,28,-5,0,-5,1,4,7
1570180367628748,-77,-29,-2,-4,-4,-1,3,-17
1570180367628748,16,10,-3,2,5,1,4,-2
1570180367651837,-3,-11,-9,-6,-5,-3,3,-7
1570180367651837,-13,-5,2,-4,0,4,0,-32
1570180367652681,25,8,-1,-1,2,-3,0,-16
1570180367652681,-9,-6,-2,2,-3,0,-8,-34
1570180367665727,7,13,2,1,-1,2,-9,-6
1570180367665727,-7,-9,21,12,7,0,-6,-16
1570180367666643,4,8,-6,-5,-11,-4,-6,-12
1570180367666643,4,2,-2,-4,-6,-2,0,-16
1570180367688591,26,2,-11,-5,-7,-5,-1,-3
1570180367688591,11,11,1,-3,13,0,-5,-18
1570180367688591,22,4,7,7,4,-2,1,-14
1570180367688591,-15,-11,-10,-5,-2,-1,-1,-19
1570180367710525,7,13,8,1,-2,-1,-1,-6
1570180367710525,27,19,-5,-2,-7,-3,-4,1
1570180367726484,-36,-37,-13,-3,2,2,-1,-18
1570180367726484,39,19,9,7,-4,-5,-6,-5
1570180367727570,-15,-17,-8,-3,0,-1,-2,0
1570180367727570,4,1,1,-4,-3,0,-2,-1
1570180367733494,-13,-2,-4,-4,-1,2,2,0
1570180367733494,19,-10,-3,-1,0,-1,-1,4
1570180367748423,-2,18,0,-2,-1,-4,-6,-7
1570180367748423,0,6,1,0,8,0,-1,1
1570180367749422,25,2,6,4,-1,-4,-4,-2
1570180367749422,-22,-13,-8,-3,0,2,0,3
1570180367771405,-14,-7,2,1,3,2,3,2
1570180367771405,11,-8,-4,4,-3,-3,-3,-1
1570180367772365,21,15,2,-2,-2,-6,-6,-4
1570180367772365,-10,-2,8,3,2,-1,1,5
1570180367785328,-2,5,-1,-2,0,2,0,-3
1570180367785328,-17,-19,-10,-4,-1,1,1,5
1570180367793309,1,3,6,6,2,-1,-2,-6
1570180367793309,-16,-2,0,-3,-2,1,1,-1
1570180367808651,0,5,1,-1,2,0,1,5
1570180367808651,-6,-17,-6,-1,-5,-1,-1,-4
1570180367809262,45,31,6,-3,-1,2,2,4
1570180367809262,-59,-51,-14,-8,-1,-1,-2,-10
1570180367831243,-56,-9,1,1,-1,0,2,-2
1570180367831243,4,3,-12,-11,-10,-7,-6,-2
1570180367832200,11,2,1,1,5,0,-2,-2
1570180367832200,-28,-4,0,0,-3,-3,0,-6
1570180367845166,17,-12,-6,0,-2,-1,2,-1
1570180367845166,7,17,2,2,3,-3,-5,-5
1570180367853145,-79,-28,-8,-11,-13,-4,-1,-11
1570180367853145,4,23,5,-1,-3,0,1,2
1570180367868106,-5,-29,-3,6,4,2,-1,-1
1570180367868106,22,11,0,7,2,0,-1,-1
1570180367869101,27,13,1,-3,0,1,-1,3
1570180367869101,-6,-4,-8,-3,2,3,2,2
1570180367891058,19,12,9,7,2,-1,0,4
1570180367891058,-10,4,-2,-7,-4,1,1,0
1570180367892213,-14,-14,-4,-3,-3,0,-1,-4
1570180367892213,7,-12,-3,-3,0,0,0,-1
1570180367905005,11,27,-4,-2,-4,0,1,2
1570180367905005,36,-4,0,0,0,0,-2,1
1570180367913981,9,26,2,-2,-3,1,3,1
1570180367913981,-21,-35,-5,-7,-5,-6,-7,-18
1570180367927948,-10,-19,12,15,11,2,0,3
1570180367927948,20,30,4,-5,-5,-3,-4,1
1570180367936920,-16,-13,-3,0,1,1,-1,-2
1570180367936920,2,17,0,0,4,3,-1,3
1570180367951885,-10,-4,8,5,2,4,3,0
1570180367951885,-30,-46,-18,-5,-3,-5,-7,-14
1570180367952879,13,11,8,3,5,0,1,0
1570180367952879,18,5,-7,-4,-14,-6,-1,-4
1570180367964848,-47,-19,-9,-5,-7,-1,-1,-21
1570180367964848,-22,-2,0,5,7,2,2,5
1570180367973821,11,-2,-5,-11,-13,0,-5,4
1570180367973821,10,1,4,9,15,0,-5,-5
1570180367987784,11,12,-1,1,11,1,1,1
1570180367987784,-16,-7,4,1,-8,0,3,-7
1570180367996760,1,-9,0,4,7,0,2,-12
1570180367996760,5,18,4,0,-9,1,9,9
1570180368011736,6,-7,-2,-6,-4,-5,1,6
1570180368011736,1,3,-2,-2,0,-1,4,3
1570180368012718,4,-4,0,3,-2,0,5,10
1570180368012718,4,7,-2,-3,-4,1,4,4
1570180368024812,14,3,-7,-2,-1,-2,-3,-2
1570180368024812,-5,-5,-2,-5,-3,-1,-3,-2
1570180368033664,45,20,10,8,3,-3,-4,-4
1570180368033664,9,4,-4,-4,-1,-1,-2,0
1570180368047623,2,-4,-8,-7,2,2,2,12
1570180368047623,-8,6,5,1,-4,0,1,3
1570180368056601,-10,-7,-6,-2,0,0,-1,-2
1570180368056601,-2,8,2,-2,0,1,0,1
1570180368071566,-3,-11,-6,-7,-7,-4,-6,-2
1570180368071566,5,1,-3,0,-3,0,-6,5
1570180368072557,-26,-15,4,6,3,-2,-5,0
1570180368072557,14,7,1,0,1,-2,3,-2
1570180368093504,-4,8,0,-2,-3,1,5,-4
1570180368093504,1,8,1,-3,-1,1,6,9
1570180368095501,-8,-27,-9,-1,0,-1,4,-2
1570180368095501,-6,-3,-4,-1,0,-1,-1,6
1570180368107542,25,20,7,2,-1,0,0,6
1570180368107542,-11,-19,-2,3,1,-1,-1,0
1570180368116445,0,6,-5,-3,-2,-1,0,3
1570180368116445,4,6,2,3,2,1,1,6
1570180368131501,9,-2,-2,-2,-3,-2,-2,-1
1570180368131501,-9,-1,4,3,-1,-2,-1,1
1570180368133396,-13,-2,-6,-3,-2,-1,-4,-8
1570180368133396,-9,-8,1,0,-2,-1,-5,-5
1570180368154392,13,3,2,0,0,-1,4,10
1570180368154392,-6,-5,0,2,2,2,-3,1
1570180368155336,12,17,2,2,2,1,4,12
1570180368155336,-9,-8,4,4,1,0,4,-8
1570180368167426,15,4,-2,-2,-3,-3,-15,-8
1570180368167426,-5,0,2,1,1,-3,6,13
1570180368176386,-1,-6,-3,-1,-1,-3,-8,-7
1570180368176386,4,5,2,-1,-2,-4,6,0
1570180368191311,-6,-9,-7,-5,-1,-1,8,10
1570180368191311,2,-1,-5,-4,-1,0,0,-2
1570180368193235,4,20,2,1,0,0,1,21
1570180368193235,-6,-24,-4,-2,0,3,-7,13
1570180368214183,-3,0,16,10,2,0,-5,5
1570180368214183,4,4,-9,-4,-3,-1,6,34
1570180368215176,-3,-6,-4,-5,-2,-1,9,51
1570180368215176,0,4,-4,-3,-1,-1,10,39
1570180368227148,3,11,4,2,0,2,12,17
1570180368227148,-3,-12,4,6,3,1,1,-13
1570180368236121,-2,0,-3,-4,-3,-3,4,-20
1570180368236121,3,-3,-8,-6,-3,0,-3,-8
1570180368251083,-4,-8,-5,-3,-3,1,-1,-11
1570180368251083,6,5,-8,-2,-2,1,1,-2
1570180368253075,2,15,16,-3,-4,-3,-5,5
1570180368253075,-15,-10,3,2,-4,-2,-3,-23
1570180368281000,9,-3,-1,3,0,-2,-10,-10
1570180368281000,-11,2,1,0,-1,-1,-20,-37
1570180368282996,3,-11,-13,-1,-1,0,-4,-16
1570180368282996,14,12,3,1,1,-1,1,-7
1570180368287982,-7,9,1,-3,-2,-3,3,-15
1570180368287982,-8,-20,4,1,1,1,4,-14
1570180368303060,-9,-7,-7,-3,-3,-1,-4,-8
1570180368303060,-5,10,4,-1,0,0,1,-1
1570180368310928,7,-4,-8,-2,-2,-2,0,20
1570180368310928,5,6,10,-1,0,-3,-4,-13
1570180368312915,-2,0,5,-1,3,3,-2,-12
1570180368312915,-1,-3,-1,2,1,2,-2,-15
1570180368333866,8,1,-6,-7,-5,0,1,17
1570180368333866,-10,5,1,0,-1,1,3,8
1570180368335855,6,-6,5,4,2,1,0,-5
1570180368335855,4,5,-3,-3,-2,-1,-5,9
1570180368347893,-1,-2,-6,-3,0,1,-3,-19
1570180368347893,8,16,10,2,3,-1,1,-14
1570180368356802,-8,-20,-5,2,0,0,0,-8
1570180368356802,2,5,-4,-3,-2,0,-3,0
1570180368371763,-9,-6,5,5,2,-3,-6,-8
1570180368371763,2,8,2,1,1,1,2,-5
1570180368372755,-2,-6,-8,-5,1,-2,-1,10
1570180368372755,-5,-2,-2,2,-1,-1,-2,-3
1570180368393953,-15,-17,-14,-17,-6,-1,0,-10
1570180368393953,0,11,4,4,1,-2,0,1
1570180368395694,9,14,7,4,4,0,-2,-8
1570180368395694,-11,-14,-4,-2,1,-1,0,3
1570180368407661,8,2,4,4,3,1,-12,8
1570180368407661,5,-3,-6,-4,-3,-1,1,25
1570180368416642,1,0,-7,-6,-3,0,-1,-8
1570180368416642,1,6,5,7,3,-3,-4,-2
1570180368431708,5,6,12,8,3,-1,5,-14
1570180368431708,3,-5,-3,-5,-2,-1,-5,4
1570180368432598,-19,1,2,2,-3,-3,-4,-13
1570180368432598,-5,0,-11,-12,-3,-1,0,-6
1570180368453543,0,-16,5,9,1,-2,2,-9
1570180368453543,3,16,3,11,3,0,3,3
1570180368455534,-2,-11,4,-5,-5,2,-1,-7
1570180368455534,4,16,3,-3,-2,0,-2,-11
1570180368467505,-8,-24,-14,-6,-3,-3,1,15
1570180368467505,5,-3,-4,-2,0,2,6,-2
1570180368476482,-3,-6,-9,-5,-1,-1,-1,-1
1570180368476482,14,6,10,14,-1,-5,-3,7
1570180368491481,20,26,7,-1,0,2,2,-7
1570180368491481,-12,-15,-1,-1,-2,4,15,8
1570180368493431,5,7,2,5,4,1,1,13
1570180368493431,-49,-25,-11,-6,-4,-3,-3,-16
1570180368514380,22,24,-1,-5,0,1,5,12
1570180368514380,-15,-21,-4,-1,-5,-5,-7,-10
1570180368515460,-5,-6,-2,-7,-5,0,4,4
1570180368515460,12,5,3,3,2,4,9,14
1570180368527342,21,14,1,6,-1,-5,-4,-7
1570180368527342,12,20,0,-4,-1,0,-7,-9
1570180368536365,15,1,0,6,6,2,1,2
1570180368536365,-29,-29,-7,-6,1,-3,-5,9
1570180368551281,-8,-4,-4,-2,0,6,3,-2
1570180368551281,-1,1,-3,-4,-1,-1,-2,4
1570180368553273,2,1,5,7,-1,-2,2,-12
1570180368553273,32,23,2,-2,1,11,3,2
1570180368574399,-6,-6,-4,-4,-8,-15,-2,19
1570180368574399,21,-4,-6,-2,-1,-2,-1,1
1570180368575215,-14,-2,1,-1,-4,-6,-13,19
1570180368575215,25,17,3,-4,-3,-6,-8,-5
1570180368587937,-3,-4,0,7,1,1,-5,-17
1570180368587937,-1,-5,2,5,3,3,-4,19
1570180368596157,5,1,-3,-3,-2,-5,6,17
1570180368596157,13,5,1,1,1,4,12,0
1570180368611877,-14,-7,-1,-4,4,3,-16,4
1570180368611877,-11,-10,-3,-4,-3,-9,-4,4
1570180368613113,4,3,0,2,4,11,1,-7
1570180368613113,0,-3,0,1,-6,-9,-3,7
1570180368634057,-15,-4,0,0,1,17,10,5
1570180368634057,-13,-6,-2,-3,-1,-6,-1,-14
1570180368635204,12,12,5,3,-2,-1,10,-13
1570180368635204,4,-5,-1,-2,-8,-5,6,-10
1570180368647332,-18,-13,-13,-16,-16,-15,-12,-45
1570180368647332,15,9,7,6,7,14,-1,-15
1570180368656994,5,-1,1,0,0,0,3,15
1570180368656994,-37,-15,-9,-10,-5,-9,8,-87
1570180368671964,16,4,1,4,1,-3,9,40
1570180368671964,-42,-15,-4,-3,-4,-3,-5,-16
1570180368672952,34,17,-1,-3,-2,-1,-4,-4
1570180368672952,-40,-18,-5,1,0,1,-6,50
1570180368693896,-2,4,1,2,1,3,-2,57
1570180368693896,1,-1,-2,-3,0,0,0,46
1570180368695890,-15,-8,-2,2,-2,-2,1,3
1570180368695890,15,6,3,4,4,3,-6,23
1570180368707860,0,-2,1,0,1,-1,2,-10
1570180368707860,0,1,2,0,1,0,-2,-17
1570180368716837,-16,-7,-2,-4,-4,-5,-7,-26
1570180368716837,21,7,3,1,2,0,-2,-7
1570180368731890,-12,-3,-1,-1,0,2,1,-19
1570180368731890,1,0,-2,-1,-3,-2,-1,-44
1570180368732798,-3,-3,-4,-2,0,3,1,-9
1570180368732798,7,3,2,0,4,2,-4,-6
1570180368753782,-4,1,2,0,0,-2,2,-32
1570180368753782,4,0,-1,-3,-3,-3,0,-5
1570180368755730,-12,0,-1,0,0,1,-1,-21
1570180368755730,1,-1,-3,-1,1,3,11,17
1570180368767703,-1,-2,1,0,-1,-1,-5,-13
1570180368767703,3,0,-3,-3,-1,-2,1,0
1570180368776674,-4,-2,1,0,-2,-4,-2,8
1570180368776674,4,3,0,1,0,7,2,-1
1570180368790737,-5,1,0,4,6,1,3,-6
1570180368790737,-3,-1,-1,5,-7,-14,-4,-11
1570180368797621,-2,-1,-1,-4,9,18,4,-3
1570180368797621,6,2,1,-3,-8,-3,-6,3
1570180368813579,-1,0,-1,-2,-4,-7,-4,1
1570180368813579,2,-2,-1,1,5,5,-1,5
1570180368815573,-4,-3,-2,0,-4,-8,-5,5
1570180368815573,9,6,2,1,1,-3,1,2
1570180368836525,-1,-3,0,3,3,0,-11,39
1570180368836525,-2,1,1,-1,-2,1,2,3
1570180368837512,1,0,-1,-1,-2,-2,2,6
1570180368837512,1,-2,0,-2,1,2,-3,7
1570180368851477,-3,1,-1,-1,3,-2,2,-7
1570180368851477,5,2,2,2,-1,-1,0,13
1570180368857463,0,-1,0,-1,4,-6,-5,9
1570180368857463,-1,-2,-2,1,-5,5,1,-4
1570180368874414,-4,-1,-3,-3,-4,-1,1,-14
1570180368874414,3,-1,-1,0,8,7,0,1
1570180368875422,-1,-1,0,3,-2,-1,1,-8
1570180368875422,0,-3,-4,-5,5,-5,-4,2
1570180368887378,2,0,2,-2,-7,-1,4,1
1570180368887378,2,1,-1,0,-5,0,0,9
1570180368896355,0,-2,-5,-7,-18,-7,-4,-3
1570180368896355,1,1,3,10,15,-6,0,-1
1570180368910321,-1,-1,2,-2,11,8,2,-5
1570180368910321,4,0,0,-2,3,-13,-3,4
1570180368917484,-6,0,1,1,-4,-4,-3,-7
1570180368917484,3,-1,-3,-3,-10,-1,-1,7
1570180368934260,-2,1,0,0,0,-4,3,-4
1570180368934260,1,1,0,0,0,8,-1,-5
1570180368935251,-2,-2,2,-1,-9,6,1,4
1570180368935251,2,2,2,1,3,1,-4,-5
1570180368947218,0,0,-2,1,1,0,2,-6
1570180368947218,-2,0,-1,-1,-5,-2,-2,-1
1570180368956199,0,0,-2,-1,-1,-5,-1,3
1570180368956199,-7,-5,-4,-2,3,2,-4,-6
1570180368971456,1,0,1,2,-1,-4,-1,-1
1570180368971456,0,0,1,1,-4,-4,1,2
1570180368973149,-5,-2,-2,3,13,13,4,-4
1570180368973149,1,0,1,-4,0,-6,-2,0
1570180368994144,-4,-1,-2,-3,-5,-1,0,-2
1570180368994144,0,-2,-2,-4,-3,-2,-1,-2
1570180368995885,-1,-1,2,0,0,-6,-1,-1
1570180368995885,1,-2,0,-3,-11,-5,-3,7
1570180369007058,3,1,-2,1,9,3,0,1
1570180369007058,0,2,0,-2,-11,9,7,1
1570180369016033,-1,-2,-2,1,15,-1,-1,4
1570180369016033,5,0,-2,0,-4,-4,0,5
1570180369031060,-2,-2,1,1,2,-3,-4,-3
1570180369031060,-2,-1,-2,-2,-5,-3,-4,-3
1570180369032989,1,1,-2,-7,1,10,0,2
1570180369032989,2,1,0,3,-6,-7,0,5
1570180369053938,-13,-3,-2,-2,1,1,-1,-13
1570180369053938,-1,0,-2,-4,-1,0,-3,0
1570180369055932,-1,1,0,-4,-7,-2,0,-2
1570180369055932,-3,-1,-2,0,9,8,2,-3
1570180369075876,1,2,0,2,-7,-1,-1,1
1570180369075876,1,0,-1,-2,2,-1,-2,7
1570180369078143,0,-2,-2,-1,-4,-7,-4,-6
1570180369078143,3,-1,1,1,-4,-3,-1,4
1570180369091832,3,1,-2,-1,-1,-2,2,5
1570180369091832,-4,-3,-3,-7,-13,-8,-1,-11
1570180369092831,1,-1,0,7,12,5,-4,-2
1570180369092831,0,0,1,2,12,8,2,2
1570180369113777,-5,-2,-2,-2,-4,-1,-5,-6
1570180369113777,1,0,1,3,6,0,1,-2
1570180369115845,1,-2,-3,-6,-12,-8,-2,-1
1570180369115845,-5,0,-1,1,-2,-2,-1,-8
1570180369136772,2,-1,-1,1,-2,-1,0,6
1570180369136772,-1,-1,0,0,0,4,0,-1
1570180369137928,0,0,2,0,-7,-9,-2,1
1570180369137928,0,0,0,1,5,2,1,2
1570180369151673,-5,-1,0,-3,-7,-5,-2,-15
1570180369151673,0,-2,0,0,10,-2,-1,9
1570180369152669,-3,0,-2,-2,-5,3,-2,-6
1570180369152669,0,-2,0,0,-3,2,-3,1
1570180369173613,0,-3,-3,-2,-17,-8,-1,0
1570180369173613,0,-1,-1,-3,16,1,-2,1
1570180369175854,-6,-3,-2,-2,0,4,0,-2
1570180369175854,-4,-1,-3,-9,-8,-8,-3,-13
1570180369196558,6,-1,2,9,11,9,4,17
1570180369196558,1,2,2,12,30,16,5,2
1570180369197600,0,-1,-1,-6,-19,-15,-4,2
1570180369197600,-3,-2,-3,-6,-17,-2,-2,-6
1570180369210519,1,-1,-3,-8,-14,-12,-1,-4
1570180369210519,1,-1,1,2,13,23,-1,11
1570180369217495,1,2,3,10,25,-21,3,10
1570180369217495,7,2,0,3,7,19,6,12
1570180369233678,-1,-1,-2,-6,-25,-9,-2,-16
1570180369233678,-4,-1,-1,-5,-17,-8,-3,-8
1570180369235448,3,1,-2,-4,-4,3,0,8
1570180369235448,-1,-2,-2,-3,2,-7,-4,0
1570180369256393,0,1,3,6,20,13,2,2
1570180369256393,0,-3,-3,-3,-7,-6,-3,-6
1570180369258386,-2,-1,2,1,-3,0,-3,-12
1570180369258386,2,-2,-1,-3,-3,-19,-3,6
1570180369270573,13,3,3,7,23,25,13,27
1570180369270573,-5,0,0,-3,-16,-14,-4,-9
1570180369277394,1,0,-1,2,6,7,-1,0
1570180369277394,-3,0,0,3,-2,0,-4,-9
1570180369294665,-2,-2,-3,-8,3,-1,-6,-3
1570180369294665,-8,-1,0,0,-46,-40,-4,-9
1570180369295626,22,7,8,14,39,28,13,28
1570180369295626,-10,-2,2,2,7,16,3,-24
1570180369317055,-1,-2,-4,-5,-5,-5,-4,2
1570180369317055,-4,-1,-4,-3,7,11,3,-2
1570180369318400,-7,-3,-2,-9,-19,-14,-8,-7
1570180369318400,-6,-1,-1,1,-5,-6,-3,-18
1570180369331211,9,2,1,3,6,1,4,19
1570180369331211,0,-2,-1,-2,-6,-11,-5,-5
1570180369337894,-2,-1,-4,-4,-7,-3,-2,-5
1570180369337894,2,-1,-1,-2,6,4,1,7
1570180369354067,-7,-3,-2,-2,-8,-5,-5,-14
1570180369354067,1,-2,-2,-2,6,3,-1,0
1570180369355840,-2,-2,-3,-2,-2,2,0,-2
1570180369355840,0,0,2,1,0,0,0,3
1570180369376245,-3,-1,-1,-2,-4,-5,-2,-1
1570180369376245,2,0,-2,-2,2,4,2,2
1570180369378249,-3,-1,-1,-2,-1,3,1,-7
1570180369378249,-6,-1,0,-2,-5,-7,-7,-14
1570180369391003,-1,0,-1,-1,-3,-3,-1,-2
1570180369391003,-3,0,-3,-2,2,7,18,-23
1570180369398226,0,0,1,2,-4,-4,-10,1
1570180369398226,1,-1,-4,-3,-4,-6,1,8
1570180369414579,-4,-1,-1,-1,8,6,-3,-4
1570180369414579,-2,0,1,2,12,20,15,4
1570180369415587,9,-1,-4,-2,-29,-24,-20,33
1570180369415587,3,3,1,3,27,15,7,2
1570180369436568,1,-1,0,-3,-4,-7,-4,3
1570180369436568,1,-2,0,0,4,4,-5,6
1570180369437813,-6,-2,-2,-1,-7,-2,4,-15
1570180369437813,0,-1,-1,-1,-6,-1,-2,11
1570180369450194,-7,-1,-1,0,0,0,-4,-19
1570180369450194,3,2,0,1,-2,-7,-9,10
1570180369458772,-3,-1,2,1,5,7,3,-7
1570180369458772,1,-1,-1,-1,-9,-4,-1,0
1570180369474085,-3,-1,0,0,1,2,2,-6
1570180369474085,0,0,-1,-2,-8,-6,-7,2
1570180369475387,-8,-2,-1,-1,6,4,-1,-25
1570180369475387,-1,1,-1,0,2,1,4,7
1570180369495797,-1,-2,-2,-3,-8,-6,-3,-6
1570180369495797,-2,-2,0,0,1,-1,-5,-2
1570180369502782,0,0,-2,-1,4,3,9,4
1570180369502782,2,-2,-3,0,-6,-4,2,2
1570180369509906,-5,0,0,-1,-1,10,-2,7
1570180369509906,-1,-1,-2,-1,-5,-15,-4,-1
1570180369519107,0,-2,-2,-2,1,2,-3,6
1570180369519107,-4,-3,-1,-1,-7,-2,-2,-6
1570180369534075,1,-2,-2,0,-3,-5,3,4
1570180369534075,2,-2,-1,-1,5,10,-3,4
1570180369535137,0,0,-2,-3,-3,-6,4,-1
1570180369535137,1,-2,-2,-2,-1,-2,-1,3
1570180369556652,1,-1,0,0,-1,-3,-2,-1
1570180369556652,-6,-1,-1,0,-2,-3,5,-16
1570180369558150,-4,1,1,1,2,2,0,3
1570180369558150,-1,0,-1,-2,1,1,-1,-5
1570180369570226,3,0,-1,-1,-1,-3,1,4
1570180369570226,1,-2,-1,-1,-1,0,-4,1
1570180369579093,-1,0,0,-1,0,2,2,-1
1570180369579093,0,0,0,0,-2,-2,-6,1
1570180369594055,-1,0,0,-2,-2,0,2,0
1570180369594055,2,1,0,0,-2,0,-1,9
1570180369595053,0,-1,-1,-2,-1,1,0,-3
1570180369595053,-2,1,1,-1,-1,-2,1,-5
1570180369617045,1,-2,0,-1,2,-3,-1,0
1570180369617045,-8,-3,-3,-4,-1,2,10,-28
1570180369617990,2,-3,-3,-1,0,-4,-1,-1
1570180369617990,-2,1,0,2,16,13,0,-9
1570180369630181,-1,1,-2,-2,-10,-1,-2,0
1570180369630181,3,1,-1,0,1,-2,-4,8
1570180369639259,-2,-2,0,0,-2,2,0,-11
1570180369639259,6,-1,-2,-2,-3,-5,1,16
1570180369653897,1,0,-1,0,4,-2,-1,-2
1570180369653897,0,0,2,-1,-1,0,-2,8
1570180369655887,1,0,0,0,0,3,4,16
1570180369655887,1,0,-1,-1,-6,-1,-2,3
1570180369676831,-1,2,-1,-1,2,-2,1,-3
1570180369676831,2,1,0,0,0,-3,-2,2
1570180369677828,0,-1,-2,-1,1,1,2,-6
1570180369677828,1,-2,-1,-1,-6,-2,1,2
1570180369690794,-3,-3,0,1,5,0,-1,0
1570180369690794,1,2,0,-1,1,0,-3,9
1570180369699134,1,-1,1,1,0,1,-2,-4
1570180369699134,-2,1,-2,0,-5,-3,0,-4
1570180369715726,-1,-2,-1,1,-2,0,-1,-10
1570180369715726,-2,-2,0,-1,0,1,-2,2
1570180369716724,0,1,1,-1,0,0,-2,-3
1570180369716724,1,-2,0,-1,-3,-1,2,3
1570180369736676,1,-1,0,0,-1,0,-3,2
1570180369736676,-7,-2,-2,0,-2,-3,-2,-10
1570180369737668,-1,-1,-1,-1,-1,1,-1,-1
1570180369737668,-2,-1,0,1,-2,-1,-3,-6
1570180369750634,0,0,0,-2,-2,-1,1,3
1570180369750634,1,-1,0,-1,-2,0,0,3
1570180369759636,-2,-2,-3,-2,0,-1,-2,-2
1570180369759636,-2,1,0,-3,1,-1,-2,1
1570180369781631,-2,-1,1,0,-2,-1,1,0
1570180369781631,2,0,-1,1,-2,-8,-2,2
1570180369783692,0,-2,0,0,3,3,1,1
1570180369783692,-1,0,-1,-2,-1,-1,-1,-2
1570180369796512,0,-1,-1,-1,-1,0,-1,0
1570180369796512,2,1,-2,0,0,-2,-2,-7
1570180369798238,0,-1,1,1,-2,-2,1,1
1570180369798238,-1,-2,0,0,1,-1,-2,-3
1570180369810578,-1,0,-1,0,1,-4,-2,-5
1570180369810578,1,0,1,0,0,5,0,3
1570180369819451,2,-1,-2,-2,-1,0,1,14
1570180369819451,-2,-2,-1,-2,-2,0,1,-3
1570180369834586,-3,-1,-1,0,-2,2,0,-1
1570180369834586,-2,-1,0,0,-1,-1,1,0
1570180369835408,4,0,0,0,-1,-2,-2,-1
1570180369835408,-4,-1,-1,1,-2,-2,-4,-5
1570180369855929,5,-1,-1,0,0,-3,-3,4
1570180369855929,1,0,-1,-1,0,0,0,7
1570180369857924,-3,-1,-1,-1,-1,-1,-2,-11
1570180369857924,-1,0,0,1,-1,-1,0,-1
1570180369869891,0,1,-1,0,-1,0,1,-1
1570180369869891,3,-1,-1,-2,-1,-1,-2,3
1570180369878868,-5,0,1,-1,-1,-1,-2,-3
1570180369878868,2,0,-2,-1,-2,-2,-1,4
1570180369893828,-3,-1,-2,-1,-2,-1,1,-5
1570180369893828,-1,-1,0,1,-1,0,-1,0
1570180369895846,-1,-2,-3,-1,-2,-2,1,4
1570180369895846,-2,-2,-2,1,-1,0,-2,-1
1570180369916809,-2,1,2,0,0,-5,-1,-2
1570180369916809,1,-2,-1,0,1,6,1,6
1570180369917766,-8,-1,0,-1,-3,-2,-7,-24
1570180369917766,3,0,-1,-1,-1,-2,2,6
1570180369929973,5,0,-1,-1,-1,-2,1,6
1570180369929973,0,0,-1,-1,0,0,-1,3
1570180369938708,-2,0,0,-1,-1,0,1,0
1570180369938708,-1,-2,0,0,-2,-1,1,-1
1570180369954410,0,-1,0,-1,-1,1,-2,1
1570180369954410,-2,-2,-1,-2,-1,-3,-3,-11
1570180369955407,2,1,-2,0,-1,-1,0,5
1570180369955407,-1,-1,0,0,-1,-2,0,-2
1570180369976351,-1,0,-2,-2,0,1,3,0
1570180369976351,0,-1,-1,0,-1,-1,1,0
1570180369978347,-1,0,-2,1,0,-1,0,-2
1570180369978347,0,1,0,-1,0,-2,-2,1
1570180369999291,-1,-1,-1,1,-1,1,0,-1
1570180369999291,2,1,0,0,-1,-2,-1,4
1570180370000289,0,-1,-1,-2,0,0,0,7
1570180370000289,2,-1,0,-1,-1,-2,-4,-14
1570180370014260,-1,0,-1,0,1,1,4,12
1570180370014260,-4,-1,1,0,0,5,0,-5
1570180370015253,4,-1,1,-1,-3,-14,0,1
1570180370015253,0,-1,1,1,1,4,-14,10
1570180370036197,-4,-1,-1,-1,-2,-2,-8,4
1570180370036197,-3,0,0,1,-1,-1,0,-3
1570180370038187,-1,0,0,0,1,2,1,1
1570180370038187,-2,-2,-4,-2,-1,-1,3,-1
1570180370059135,2,-1,-1,-2,0,-2,1,-7
1570180370059135,0,1,-2,-1,-1,-3,-3,5
1570180370060640,-3,-1,-1,0,0,1,0,-1
1570180370060640,-3,-2,1,-1,0,-3,4,-4
1570180370073093,-2,-2,0,0,0,2,-2,-4
1570180370073093,-1,-3,-1,-3,-2,-4,1,-5
1570180370080080,1,0,-1,0,-1,2,-1,-4
1570180370080080,0,-1,-2,-1,1,1,1,1
1570180370096033,-1,0,1,1,-1,-1,-2,-5
1570180370096033,0,-1,0,-1,1,-2,-3,-2
1570180370098028,0,1,0,-1,-1,1,0,-2
1570180370098028,-1,0,-2,1,-1,0,0,2
1570180370119049,-1,-2,-1,-3,-1,0,0,-2
1570180370119049,-3,-2,0,1,-1,-1,-3,-22
1570180370119969,0,-3,0,0,0,2,4,14
1570180370119969,0,1,2,-1,0,-2,0,-3
1570180370133304,-1,-1,-1,-2,0,0,0,-4
1570180370133304,1,0,-2,-1,0,0,0,-2
1570180370139926,-1,2,0,-1,0,1,-4,-3
1570180370139926,-4,-2,0,-2,-2,-1,0,5
1570180370156873,1,-1,-2,-2,0,-2,0,-3
1570180370156873,2,1,0,0,-2,-6,-1,10
1570180370157866,0,-1,-1,0,-2,6,1,-5
1570180370157866,-2,-1,-1,1,0,-2,0,4
1570180370178815,1,-2,0,-1,-2,1,-1,2
1570180370178815,1,0,-1,-1,-1,-1,0,1
1570180370180805,0,-1,-2,-1,0,-5,-3,0
1570180370180805,0,1,0,0,-1,0,-1,-6
1570180370192777,-1,1,-1,-1,1,1,-1,-3
1570180370192777,-2,-2,0,-1,-1,0,-3,-13
1570180370199851,1,1,-2,-1,2,0,1,10
1570180370199851,-1,-2,-1,-1,0,-1,0,-3
1570180370216712,-4,0,-1,-1,-1,0,-3,-2
1570180370216712,0,0,-2,0,0,0,1,3
1570180370217707,-1,-1,1,0,-1,-3,-1,-5
1570180370217707,-2,-2,-2,-2,-2,3,2,-7
1570180370238666,2,0,0,3,-2,-1,-2,0
1570180370238666,-1,0,-1,-1,0,0,-1,4
1570180370240735,-2,-1,-2,-2,-1,1,-2,-2
1570180370240735,1,-2,-1,-2,-2,-6,-1,2
1570180370253612,1,0,0,0,-1,4,0,-2
1570180370253612,0,-2,-3,0,1,-1,-2,8
1570180370259598,-2,-1,-1,-1,0,-2,-1,-3
1570180370259598,-3,-1,-1,-1,-1,3,3,-11
1570180370276554,4,1,0,2,-1,-4,-11,8
1570180370276554,0,-1,-2,0,-3,0,0,2
1570180370277729,-2,-1,0,0,-1,0,-1,-3
1570180370277729,-1,0,0,-1,-1,-1,1,-1
1570180370299493,-2,-2,-1,-1,1,-2,4,-1
1570180370299493,-1,-1,1,0,0,-1,0,2
1570180370300485,0,-2,0,0,1,-3,-5,-1
1570180370300485,3,1,0,1,0,1,4,23
1570180370313453,-2,0,-1,-2,-1,-3,0,-8
1570180370313453,-2,-1,-2,0,-1,1,0,-4
1570180370320438,-4,-3,-2,-2,0,1,15,-12
1570180370320438,0,1,1,-1,0,0,-4,-4
1570180370336512,-2,0,2,-1,-1,-3,-2,-1
1570180370336512,-1,-1,-1,-2,-1,1,1,-2
1570180370338385,1,0,-3,0,0,1,0,7
1570180370338385,-2,0,-1,1,1,-1,-4,-1
1570180370359328,0,0,-3,-1,0,0,3,5
1570180370359328,2,1,-1,-1,-1,-1,3,-2
1570180370360408,-1,-1,0,-1,0,-1,-3,-3
1570180370360408,-2,-1,-1,-2,-2,-5,-2,-2
1570180370373303,-2,-2,-2,0,0,5,0,-5
1570180370373303,-1,-2,-2,-1,1,0,-1,0
1570180370380279,3,1,0,0,-2,0,-1,7
1570180370380279,-1,-1,-1,1,-1,-1,-1,-2
1570180370396229,-2,-1,0,0,0,-2,2,-3
1570180370396229,-1,1,1,-1,-2,-2,-1,2
1570180370398441,-3,-1,0,-1,0,-1,-1,2
1570180370398441,-1,-2,-1,-1,-1,0,-1,-6
1570180370419176,1,0,-1,-1,0,-1,1,2
1570180370419176,0,-1,0,-1,-1,-2,0,3
1570180370420165,0,-1,-1,-2,-3,-2,-2,-1
1570180370420165,0,1,0,-1,0,0,1,4
1570180370433136,0,-1,-1,-1,-1,-2,0,0
1570180370433136,-1,0,-1,0,-1,0,-2,0
1570180370440171,-1,-1,-1,0,-1,1,-3,-5
1570180370440171,0,0,-2,0,1,0,-2,-7
1570180370457067,0,0,0,-2,-1,1,0,8
1570180370457067,0,-1,0,0,-3,0,0,0
1570180370458119,0,-1,-1,-2,-2,-2,0,0
1570180370458119,-3,-2,0,0,0,0,0,-8
1570180370479007,4,4,3,1,-1,-5,-19,2
1570180370479007,1,-1,-1,0,0,0,-1,5
1570180370481003,1,0,-2,0,-1,-1,2,4
1570180370481003,1,1,-2,-2,-1,1,0,-1
1570180370501060,-3,-2,-1,-1,0,-1,3,-6
1570180370501060,0,0,1,0,0,0,0,0
1570180370502943,-1,-1,0,0,-2,-1,-5,-8
1570180370502943,5,-1,0,0,-1,-1,2,11
1570180370515909,0,0,-2,0,-1,-2,2,4
1570180370515909,-2,0,-1,-1,-1,-1,-1,-3
1570180370517905,-2,0,0,-1,1,0,1,-2
1570180370517905,-2,-2,0,0,-1,0,-1,-2
1570180370538851,-3,-2,0,-3,-2,0,1,-3
1570180370538851,-2,0,-1,0,0,1,-1,-1
1570180370540842,-1,-1,0,0,-1,-3,-3,-1
1570180370540842,0,0,-1,-1,0,-1,0,-2
1570180370552895,0,0,0,0,1,-1,0,-4
1570180370552895,-1,-1,-1,-1,-2,-1,-1,-8
1570180370561788,1,1,0,1,-1,2,-1,3
1570180370561788,-3,-2,-1,1,-1,0,-2,-1
1570180370576751,-1,-2,-1,0,0,1,3,-3
1570180370576751,0,-1,1,-1,-2,0,-2,-4
1570180370577743,2,-2,-1,-1,-1,-2,0,6
1570180370577743,-4,0,0,-1,-3,-2,-3,-6
1570180370599367,1,-1,-2,-1,-2,-1,3,1
1570180370599367,0,-1,-1,0,0,0,1,2
1570180370600684,-2,-2,-2,-1,0,1,-1,-5
1570180370600684,3,0,3,0,-1,-3,0,7
1570180370612650,-3,-1,0,1,0,0,0,-3
1570180370612650,-2,0,-3,-2,1,-1,-2,1
1570180370621632,-4,-1,-1,-2,1,-2,-2,-7
1570180370621632,1,-1,-1,0,-1,0,1,0
1570180370636596,-1,-2,0,1,-1,-1,-2,-2
1570180370636596,2,-2,-2,-3,-2,0,-1,3
1570180370637790,0,0,1,-1,-2,0,-1,0
1570180370637790,-1,0,-2,-1,1,-3,-1,-4
1570180370658527,1,0,-1,-3,-2,0,2,0
1570180370658527,-2,-2,0,-2,-1,-1,1,1
1570180370660529,-1,1,-1,0,0,-2,1,2
1570180370660529,0,0,0,-1,1,0,-4,-8
1570180370672623,-3,-2,-4,-1,-1,-2,-1,-5
1570180370672623,-1,0,0,1,0,-1,-2,-1
1570180370681471,-2,-1,1,0,-2,1,-1,1
1570180370681471,4,1,0,-1,0,1,3,7
1570180370696430,-2,0,-2,-1,-1,0,-1,-2
1570180370696430,2,-2,-1,0,1,-1,2,2
1570180370698427,0,0,-1,0,-1,-1,-3,-6
1570180370698427,1,-1,-2,-1,-2,-4,-3,5
1570180370718589,-3,-2,2,-1,1,5,0,-4
1570180370718589,5,2,2,0,0,-3,-15,14
1570180370720362,-2,-1,-2,2,0,-1,1,5
1570180370720362,-3,-2,-2,-1,-2,0,1,-2
1570180370732804,0,-1,1,0,-1,-2,2,-2
1570180370732804,-4,-1,-3,-1,-1,-2,2,-2
1570180370741953,1,-1,1,-1,-1,-1,-1,0
1570180370741953,0,-2,0,-2,0,1,-3,1
1570180370756267,0,-1,-2,-1,-1,-1,1,0
1570180370756267,-2,-2,-1,-1,-1,0,3,-5
1570180370758262,0,-1,-2,-2,0,0,2,10
1570180370758262,-2,0,-1,0,-1,-1,2,-2
1570180370779330,-1,0,1,0,-2,-2,-2,-4
1570180370779330,3,1,0,0,0,1,2,4
1570180370781202,-1,-1,0,0,0,0,-3,-6
1570180370781202,-3,-1,0,1,0,1,-2,-1
1570180370793171,2,0,-2,-1,-1,-1,1,2
1570180370793171,-5,-1,-2,-1,0,-2,1,-7
1570180370801280,-1,-3,-2,-4,-2,-4,11,-18
1570180370801280,-2,1,0,1,2,4,-7,-5
1570180370816361,-1,1,-3,-1,-2,-1,1,1
1570180370816361,-1,-2,0,0,-1,-1,1,-3
1570180370818101,0,0,-1,-1,-2,1,2,2
1570180370818101,-2,-3,-1,-1,-1,-3,3,-3
1570180370839525,1,-1,0,-1,-2,0,-3,0
1570180370839525,-1,-2,0,0,1,2,0,-3
1570180370841041,2,1,-1,-1,-1,-2,-4,3
1570180370841041,-4,-2,-2,-2,-1,-2,-2,-16
1570180370852012,1,0,0,0,1,0,-3,4
1570180370852012,-2,-1,-1,1,-2,-1,2,-3
1570180370861984,-2,-1,1,1,-1,0,-4,-2
1570180370861984,-2,-1,-2,1,1,0,-1,0
1570180370876072,-1,-2,-2,0,1,-1,2,-1
1570180370876072,-1,-1,-2,0,-1,0,-1,-2
1570180370878011,0,0,-1,0,0,0,-3,0
1570180370878011,-4,0,-2,-3,-2,-3,-4,-14
1570180370898920,2,1,0,0,1,4,1,3
1570180370898920,-2,0,1,1,0,-1,-4,-8
1570180370900881,1,-1,-2,0,0,2,-1,6
1570180370900881,1,1,0,1,-1,-2,1,7
1570180370921825,-1,-1,-2,-2,-1,-2,0,2
1570180370921825,-2,-2,1,-2,-3,0,-1,-5
1570180370923098,-2,-1,0,-1,2,0,-1,-2
1570180370923098,0,-1,1,-1,-1,0,1,8
1570180370936783,-9,-3,-4,-3,-1,0,11,-23
1570180370936783,3,-1,-2,-2,1,1,-2,5
1570180370937781,-1,1,1,0,-1,0,-3,-1
1570180370937781,3,-1,0,0,0,1,2,10
1570180370958725,1,-1,-2,1,0,-1,1,0
1570180370958725,-1,1,0,0,0,-1,0,0
1570180370960721,-1,0,-1,-2,-1,-3,-2,-1
1570180370960721,-1,0,-1,-1,-1,-2,0,-6
1570180370981667,2,-1,2,0,-2,-2,-6,-4
1570180370981667,1,-2,-2,-1,-2,0,2,3
1570180370982662,0,0,0,1,0,0,-2,0
1570180370982662,1,-1,-1,-2,-1,0,-1,4
1570180370996631,1,0,-1,-1,-2,-1,-2,5
1570180370996631,1,0,-1,0,0,-2,-1,3
1570180370998321,-1,0,0,0,1,-1,1,-4
1570180370998321,0,-2,-3,-1,-1,-1,0,2
1570180371018569,-1,-2,1,-1,0,-1,-3,2
1570180371018569,-3,0,0,-2,-2,-1,-1,-6
1570180371020560,1,-1,-1,-1,0,2,0,1
1570180371020560,0,-1,0,-2,-1,-3,-2,-1
1570180371041602,2,-1,1,0,0,0,-1,9
1570180371041602,-5,-2,0,-1,1,-2,-5,-17
1570180371043295,3,-1,0,1,-1,1,4,11
1570180371043295,0,-1,1,1,-1,0,0,0
1570180371056655,0,0,0,0,0,-1,0,0
1570180371056655,-1,1,-2,-3,1,0,0,-1
1570180371058458,-3,0,0,-1,-1,0,-2,0
1570180371058458,-1,0,-1,0,0,1,1,-5
1570180371078406,0,-1,-2,0,-1,0,-2,1
1570180371078406,1,2,1,1,-1,1,1,2
1570180371080401,2,0,1,-2,-1,-2,-1,4
1570180371080401,-4,-3,0,-1,-1,1,-2,-4
1570180371101348,0,1,0,1,0,-2,-4,-1
1570180371101348,0,-1,-1,0,0,-6,-1,5
1570180371103338,0,-2,-1,0,1,4,1,-3
1570180371103338,0,0,0,1,0,-1,-7,7
1570180371115824,0,-1,-2,0,-1,-2,-1,5
1570180371115824,1,-1,0,-1,0,0,0,0
1570180371122290,0,-1,-3,1,-2,-2,-4,1
1570180371122290,0,-2,1,1,1,0,2,1
1570180371139307,-5,0,-1,-1,1,-1,-1,-1
1570180371139307,0,-1,0,-1,-2,1,0,0
1570180371140245,-2,-1,0,-2,-2,0,2,-5
1570180371140245,0,0,-2,-1,-1,-1,0,-1
1570180371161191,1,-1,0,-1,-2,-3,2,5
1570180371161191,-2,-2,1,0,0,0,1,6
1570180371163179,-1,-1,-1,-1,-1,-1,-2,-4
1570180371163179,-2,1,-2,-1,-1,-1,0,-1
1570180371176144,-1,-1,-1,-3,-1,-2,-3,3
1570180371176144,-1,-1,0,-2,-1,-1,0,-2
1570180371182200,-1,0,-2,-1,-1,-1,0,-5
1570180371182200,5,1,0,0,-2,-1,3,10
1570180371199087,0,2,0,-1,0,1,0,-5
1570180371199087,-2,-1,0,-1,-1,-2,0,1
1570180371200080,1,-1,-1,0,1,-2,0,0
1570180371200080,-1,-1,-2,-2,0,-1,0,-10
1570180371221028,-2,-1,-1,-1,-1,1,0,0
1570180371221028,1,0,-2,1,-1,2,1,1
1570180371223070,0,0,0,-1,-3,-1,-3,-1
1570180371223070,0,-2,-2,-1,0,-1,0,1
1570180371235983,0,-1,0,0,-1,-2,-2,-5
1570180371235983,-1,-1,-1,0,2,0,0,-4
1570180371242964,-3,-1,-1,-1,-2,-3,0,-2
1570180371242964,-2,1,0,0,-2,-1,-1,-3
1570180371258970,1,-1,0,0,-2,-1,-1,-1
1570180371258970,1,0,-2,-2,-1,0,0,2
1570180371260994,-1,0,-1,2,0,-1,-1,-1
1570180371260994,1,2,0,0,1,1,3,17
1570180371281914,-7,-3,-3,-1,-2,2,11,-21
1570180371281914,1,0,-1,-1,0,-1,-8,5
1570180371282864,-2,-2,-1,0,-1,-1,-2,-3
1570180371282864,2,0,-1,0,-2,0,-3,0
1570180371295865,0,-1,-2,-3,0,-1,0,0
1570180371295865,2,0,0,1,0,0,3,-1
1570180371302810,0,0,-1,-1,0,-1,-3,-3
1570180371302810,-1,-1,0,0,0,0,-1,-8
1570180371318765,2,-1,-1,-1,-1,1,-2,6
1570180371318765,-1,-2,0,0,-1,-1,0,-8
1570180371320763,-2,0,0,-2,-2,-4,-4,0
1570180371320763,-1,-1,-1,-2,-1,4,2,0
1570180371341705,2,-1,-1,0,1,0,-2,1
1570180371341705,-2,-2,-1,0,-1,-2,0,0
1570180371342703,0,-2,-1,0,1,0,4,-2
1570180371342703,-1,-1,1,-2,0,-2,-1,-2
1570180371354973,-2,-1,-1,-1,-1,-3,-8,-14
1570180371354973,-1,0,0,-1,-1,1,0,0
1570180371363652,1,1,1,0,-1,-2,-2,0
1570180371363652,-1,-2,-3,0,-1,-1,-1,-1
1570180371378606,0,1,1,1,1,-2,-2,0
1570180371378606,-5,0,-1,-1,-1,-2,6,-12
1570180371380602,4,0,1,-1,1,-3,-11,-2
1570180371380602,1,2,0,-1,0,-2,1,-3
1570180371401617,-1,0,-1,1,-2,0,0,1
1570180371401617,1,-2,-1,0,-1,0,2,1
1570180371402538,-3,-2,-3,0,-1,0,4,2
1570180371402538,-2,-1,1,-1,-1,-1,-1,0
1570180371415504,1,-1,-2,-1,0,-1,-4,4
1570180371415504,-1,0,-1,-1,-1,1,-2,4
1570180371422546,0,-1,-1,-1,0,1,1,1
1570180371422546,-4,-4,0,2,-2,-2,-3,-6
1570180371438445,2,1,1,0,-2,1,1,4
1570180371438445,2,0,-2,0,-1,0,-1,7
1570180371440441,-2,-1,-1,0,1,0,1,-4
1570180371440441,-2,-1,-1,-1,-2,0,2,-3
1570180371461389,0,1,1,-2,-2,0,-1,2
1570180371461389,2,-1,-1,-1,1,-2,1,9
1570180371463381,2,1,0,-2,-2,0,1,2
1570180371463381,-1,-1,0,1,0,0,-1,-3
1570180371475444,0,-1,-2,0,0,0,0,7
1570180371475444,-1,0,0,-2,-1,-5,-4,-2
1570180371484322,-3,-2,-2,-1,2,6,4,0
1570180371484322,-2,1,0,-1,-1,1,1,-2
1570180371499420,5,0,2,0,1,0,-13,14
1570180371499420,-2,-1,-1,0,-2,0,-3,-5
1570180371500278,-2,-2,-2,1,-2,-2,-1,1
1570180371500278,1,-3,-1,1,-1,-1,-2,-2
1570180371521302,-2,-1,-1,-1,0,0,2,-6
1570180371521302,-1,-1,0,0,-2,-1,0,1
1570180371523217,2,0,1,-1,-2,0,-4,2
1570180371523217,-3,-1,0,-2,-2,-1,-1,-5
1570180371535306,-3,-3,-2,-1,-2,-3,1,-5
1570180371535306,1,-1,-1,-1,0,1,-1,1
1570180371544165,-2,0,0,0,-2,-1,2,-8
1570180371544165,-1,-1,-1,-1,-1,0,-2,-3
1570180371559124,-2,-1,-2,0,0,0,2,-3
1570180371559124,-1,0,0,-1,0,0,0,-3
1570180371560117,-1,1,-3,-1,1,-1,-1,0
1570180371560117,0,-1,-1,-3,1,0,-1,2
1570180371581067,2,0,0,-1,-1,1,4,5
1570180371581067,2,0,0,-2,-1,1,-1,0
1570180371584053,0,-1,-1,0,-2,-1,-1,-1
1570180371584053,2,0,0,2,-1,-3,-2,0
1570180371595027,-3,-1,-1,0,-1,-1,2,-5
1570180371595027,1,-1,0,1,0,0,-1,1
1570180371609985,1,0,-1,-2,0,-1,1,1
1570180371609985,0,0,-1,-1,-1,-1,0,1
1570180371618962,-6,-1,0,-2,0,0,10,-20
1570180371618962,-5,-2,-2,-1,-3,-1,4,-12
1570180371621047,-3,-1,1,1,1,0,-6,0
1570180371621047,4,1,-2,-1,2,0,-1,6
1570180371640902,0,-1,0,-1,0,-1,1,-1
1570180371640902,0,-2,0,-1,-1,-2,0,-2
1570180371642898,-1,-1,-1,-2,0,0,3,-3
1570180371642898,-1,-1,0,0,0,-1,1,-5
1570180371654986,-2,1,1,1,3,-2,-5,6
1570180371654986,-1,-2,-2,-1,-1,-2,-6,-12
1570180371663845,0,-2,0,1,-2,-3,-3,-2
1570180371663845,0,0,-2,-1,-1,2,0,4
1570180371678803,1,-1,-2,0,0,-1,-2,3
1570180371678803,-2,1,-1,-1,1,-1,0,6
1570180371680880,-2,-1,-1,0,0,0,3,-2
1570180371680880,-1,0,-1,0,-2,-2,1,-5
1570180371701743,-1,-1,-1,-2,0,-1,-4,-4
1570180371701743,0,0,0,0,1,-1,1,2
1570180371702841,1,0,1,0,-1,-2,0,-3
1570180371702841,4,-2,-2,-1,0,-2,0,11
1570180371715081,1,0,0,-1,-1,-1,-2,4
1570180371715081,1,-2,-1,0,-1,0,-3,3
1570180371723681,-1,0,-1,-3,-2,0,0,0
1570180371723681,-3,-1,-1,-1,-2,-2,-4,-4
1570180371738755,-3,0,0,-1,0,0,0,-3
1570180371738755,1,-2,-1,1,1,0,1,1
1570180371744999,-1,-1,-1,0,0,-2,1,2
1570180371744999,-1,-1,-2,-2,0,-2,0,-14
1570180371761581,2,2,0,-1,0,-2,-5,1
1570180371761581,-1,0,-1,-2,-2,-1,-2,0
1570180371762577,1,0,-1,-1,-1,-2,-1,3
1570180371762577,-2,-2,-2,1,0,1,-1,-4
1570180371774547,1,-1,-1,2,-1,-1,1,2
1570180371774547,-1,-1,1,-1,0,-2,-2,2
1570180371784518,-2,-1,0,-1,1,0,-3,-4
1570180371784518,-2,0,-1,-1,0,0,0,3
1570180371798479,-1,-1,-1,0,-2,-3,0,-3
1570180371798479,-1,1,-1,-1,-1,1,1,1
1570180371800476,0,0,0,0,-2,-1,-1,-2
1570180371800476,1,0,-1,0,-2,-1,-1,3
1570180371821419,-2,-1,-2,-1,-1,0,-1,0
1570180371821419,1,-1,0,1,-1,0,-1,-11
1570180371823414,0,0,-1,-2,0,1,1,3
1570180371823414,-1,-1,0,-1,-1,-1,0,3
1570180371844362,0,-1,-1,-3,-1,-2,-2,-1
1570180371844362,-1,0,1,-1,-2,0,-1,0
1570180371845780,0,0,0,2,1,0,-3,0
1570180371845780,-3,-2,-1,1,-1,1,0,3
1570180371858366,0,-1,-2,0,-1,0,3,6
1570180371858366,0,0,0,0,-2,-1,-1,3
1570180371865306,0,0,0,0,-1,0,1,2
1570180371865306,1,1,0,0,0,0,-3,3
1570180371889240,-1,0,1,1,-1,0,0,0
1570180371889240,-1,-1,-1,-1,1,-2,-1,1
1570180371890235,1,-2,-1,-1,-1,0,-1,-2
1570180371890235,-1,-1,1,-1,-1,-3,-1,-6
1570180371904198,-1,0,-1,-2,-1,1,-2,-3
1570180371904198,0,0,0,-2,-1,0,2,10
1570180371905196,0,-2,-2,-1,-2,0,-2,-9
1570180371905196,-3,0,0,-1,-2,-1,-1,-5
1570180371919159,1,-3,0,-2,1,-2,0,2
1570180371919159,-2,-1,-1,0,0,0,-3,-4
1570180371920873,3,0,0,-1,-1,-1,3,11
1570180371920873,-1,-2,0,1,-2,-2,-3,1
1570180371941102,-1,-1,-1,-1,-3,-1,-1,-4
1570180371941102,0,0,-1,0,-1,-1,0,-4
1570180371943093,-4,-2,-2,-1,-1,0,1,-4
1570180371943093,5,2,0,0,1,-2,-12,11
1570180371964296,-1,-1,-2,0,-1,0,-3,3
1570180371964296,-2,0,0,-2,-1,-2,0,-1
1570180371966032,0,1,-1,0,-1,-1,-1,-1
1570180371966032,-2,-1,-1,-1,-1,-1,4,-2
1570180371978999,-1,-1,1,0,-1,-2,-1,-2
1570180371978999,0,-2,-2,0,1,-2,-3,-2
1570180371981220,-1,-1,0,0,-1,-1,-2,4
1570180371981220,-2,-1,0,-1,0,0,1,-11
1570180372000944,0,-2,-2,-2,-2,-4,-2,-1
1570180372000944,0,0,-2,0,-3,2,3,-1
1570180372003350,-1,-1,0,-3,-1,0,0,1
1570180372003350,0,-1,-2,-1,0,-1,2,1
1570180372024043,1,0,0,-1,2,0,1,-2
1570180372024043,1,1,-1,0,0,-2,-1,3
1570180372025873,-3,0,-1,0,0,-2,-1,-4
1570180372025873,-5,-2,-1,-1,-2,-2,-6,-13
1570180372038840,1,1,-1,1,1,1,1,0
1570180372038840,-3,-2,-1,-2,-2,1,-1,-2
1570180372044899,-3,-1,-1,1,-1,-1,8,-5
1570180372044899,-1,-1,0,-1,-2,1,2,-3
1570180372061776,-1,1,0,-1,-1,-4,-2,0
1570180372061776,-1,1,1,-1,1,3,0,4
1570180372062774,-1,0,-2,-1,0,0,0,2
1570180372062774,0,-2,-1,-1,-1,-2,-2,-8
1570180372083726,0,-2,-2,-1,-1,2,2,-2
1570180372083726,0,0,0,-2,0,-1,0,-1
1570180372085879,0,0,0,-2,-2,-2,-2,0
1570180372085879,-1,0,0,0,-1,1,0,5
1570180372098677,-1,0,-1,0,-2,-1,-2,3
1570180372098677,-2,-1,-1,0,0,-3,0,-6
1570180372105307,-1,-1,0,-1,-3,-1,-4,-9
1570180372105307,-1,0,-2,-1,0,-2,1,6
1570180372121615,-1,-1,2,0,0,0,0,-6
1570180372121615,-3,-2,-1,-1,0,1,-1,-3
1570180372123093,0,-1,-3,-2,0,1,-2,-2
1570180372123093,1,-2,0,1,0,2,5,6
1570180372143679,-1,0,-1,-3,-1,-1,-2,-3
1570180372143679,-3,1,1,1,-1,-2,0,-6
1570180372145795,3,0,0,1,1,-1,-1,12
1570180372145795,-2,0,-1,-2,-1,1,2,-2
1570180372158534,2,0,-1,-1,-1,-3,1,2
1570180372158534,0,-2,-1,-1,1,1,-3,1
1570180372166554,-1,0,-1,-1,-3,-1,2,-3
1570180372166554,0,-1,-1,1,-1,-1,-2,2
1570180372181459,-2,-1,0,-2,-1,-2,-1,-4
1570180372181459,1,1,-2,0,-2,-3,0,3
1570180372187440,-4,-1,1,1,1,-2,-4,-15
1570180372187440,-2,-1,-2,-1,0,2,-2,2
1570180372203401,2,-1,0,1,-1,-1,-2,5
1570180372203401,0,-2,-1,-1,-1,-1,0,0
1570180372205392,0,-1,0,-1,2,2,1,3
1570180372205392,1,1,-1,0,0,-3,-1,-2
1570180372218359,-2,-3,-2,1,0,2,1,-3
1570180372218359,-2,-1,-1,-1,-1,1,13,-10
1570180372225342,2,1,0,0,-2,-3,-4,-5
1570180372225342,-1,0,1,-1,-2,0,3,1
1570180372241297,-2,0,-1,-1,0,-1,1,4
1570180372241297,2,-2,-1,0,1,-1,0,-1
1570180372243294,0,1,-1,-2,0,1,0,5
1570180372243294,-2,0,-1,0,0,-1,0,-2
1570180372264233,0,-1,-3,0,0,0,1,2
1570180372264233,1,0,1,0,-2,0,-6,2
