timestamp,emg1,emg2,emg3,emg4,emg5,emg6,emg7,emg8
1570181108204502.0,19.142063542742072,11.36026321045616,2.278683890523428,16.230808944684476,61.05277034528732,30.72952586845739,12.329501285604508,4.562501663597222
1570181108204502.0,16.233228560563465,9.326059844559762,3.346839944652717,11.771048158351203,42.597159308759224,22.49549104439964,9.55489783126403,4.280847405529427
1570181108208171.0,16.578471295447613,9.530587849821439,3.5274811844741722,11.392836157390223,40.318816634055814,21.454375529763006,9.238803821680024,4.227786946511086
1570181108208171.0,15.830907506160152,8.980704861990413,3.9645277657859213,10.162346051617506,35.57188523555428,19.251415337650545,8.54351180837428,4.127408213788615
1570181108210167.0,16.12048318931976,9.144873896227027,4.119579522278811,9.866464942460842,33.68610284659229,18.391417820236942,8.288615671228023,4.090495407552601
1570181108210167.0,15.829951157473912,8.911132419811631,4.423098311696076,9.214001486328456,31.265165546466612,17.19099593296228,7.917366295673126,4.036999829237488
1570181108212161.0,16.105446014675746,9.069664830003546,4.554529334605703,8.969928881029091,29.607381976823138,16.45027672187339,7.666516026388821,4.025659084379635
1570181108212161.0,15.969677054212196,8.942658416036476,4.7851086453639144,8.546223113052028,28.11018814230671,15.663924262042599,7.407210543679578,4.010561497233279
1570181108215373.0,16.195297472408903,9.069750755420339,4.898792261714823,8.339188031136294,26.648685155702562,15.038577807918262,7.193049361974588,4.025388707729882
1570181108215373.0,16.072808761726982,8.970126950775041,5.084980167258769,8.052004822621555,25.633972614167202,14.477891264253294,7.006645663171719,4.039310025351015
1570181108223130.0,16.144519605089684,9.035330819161073,5.173983050535354,7.89410979547965,24.328379590388405,13.943576331287842,6.8115331928311145,4.080918111684646
1570181108223130.0,15.937998970895059,8.931387559385703,5.309140469668767,7.695786337744567,23.615295866008505,13.52123194572383,6.664014322918072,4.1306754005251545
1570181108229332.0,15.882044634610173,8.946377369570508,5.35959913964727,7.53039362174691,22.42708735490387,13.056451155811853,6.499252814201088,4.200413111855325
1570181108229332.0,15.679354143060879,8.833767233262721,5.451386801905478,7.321095360979471,21.87362103982288,12.731520358730814,6.394897355512336,4.270902368648494
1570181108245072.0,15.623615080677826,8.805276896281015,5.489763540496278,7.116298453354349,20.755137686432075,12.341596639921177,6.262925945926621,4.354341544155139
1570181108245072.0,15.374178854651474,8.634201962046129,5.577448611267692,6.933798927275432,20.31736169037547,12.093772863187827,6.188878989491553,4.445209880205909
1570181108254108.0,15.190792978361847,8.510434957167135,5.626430126338917,6.754935683234735,19.27450300681682,11.760203722653973,6.0799548515746125,4.551204875258278
1570181108254108.0,14.923713026082302,8.321125051682971,5.713730486864751,6.605392494756197,18.92726858210438,11.574846454453844,6.029264890015995,4.6552307487399425
1570181108275999.0,14.752864613318433,8.213117027504023,5.766414066298157,6.445123492074331,17.97452160179798,11.307770375065983,5.9511063992659645,4.759682759679754
1570181108275999.0,14.480851602228812,8.052381200890704,5.85501629498992,6.330271467180163,17.717338349107642,11.182849509717162,5.933290690765478,4.867155963914723
1570181108276987.0,14.253447754062961,7.949926891617607,5.9055217043452455,6.19573034616109,16.846456859000195,10.972729325240778,5.8792514383577945,4.981295797308099
1570181108276987.0,13.969351948582359,7.8060775763454355,5.976799901136972,6.097697042111371,16.64579132301551,10.899365248755155,5.87766676512414,5.0905299012477885
1570181108288960.0,13.777455146864385,7.724301496297915,6.020353429679753,5.973651912336969,15.844698250159299,10.751485873178597,5.84158199867954,5.183681710186912
1570181108288960.0,13.568608906794868,7.604392330340036,6.082464291374898,5.893779178726073,15.70800020687208,10.743269312057667,5.850561705339236,5.244305575574873
1570181108330844.0,13.429848711284658,7.518502938348271,6.110496494257093,5.774940727743489,14.992338124289278,10.652006487112311,5.805137489648374,5.297047089848442
1570181108330844.0,13.247413268723939,7.401689303008795,6.163924716216659,5.69346472514785,14.90455037695927,10.651144414783335,5.807342461597765,5.359432961777597
1570181108331920.0,13.058212671384982,7.337337735034385,6.204560975926914,5.584277117962886,14.228469168269388,10.537691800726506,5.773804711357755,5.430986798437744
1570181108331920.0,12.786512891855283,7.248601263507688,6.272193908505331,5.5309193397533996,14.156440957087698,10.542631881672483,5.793979750685144,5.502263833065591
1570181108336014.0,12.56884488508845,7.208643299236682,6.323949335693031,5.4506004026546,13.53554508577558,10.47711348458735,5.781598959063454,5.579903523371834
1570181108336014.0,12.370270545736796,7.1539529007326355,6.396080519621822,5.415125510889403,13.512671508838128,10.54836498895124,5.829620793222952,5.665127044656721
1570181108336830.0,12.244023517891616,7.146822934963571,6.456390449214492,5.347833641801016,12.954957868266842,10.557197545222666,5.834676466896068,5.7568170816238515
1570181108336830.0,12.109555172961151,7.124279517510962,6.540738689112802,5.319918870635482,12.954602687666267,10.689167590257089,5.878831482843202,5.82391370390829
1570181108341820.0,12.01308675601006,7.152066541521904,6.616876371251561,5.255962334740762,12.421069975032093,10.685711605105748,5.847562307120557,5.849901086909879
1570181108341820.0,11.911929573116842,7.173920222290785,6.717114865289905,5.237107663162276,12.424589520882643,10.70380111100616,5.835420117587625,5.851248269283367
1570181108349916.0,11.858520509851463,7.242950467967835,6.811590637574476,5.189888807390568,11.914066107350404,10.543346100728666,5.743641157645587,5.85695595634951
1570181108349916.0,11.784460498760605,7.2866330758186875,6.919156010111167,5.178082507454704,11.92850318924276,10.487709784410198,5.695428931804469,5.850998202947729
1570181108364804.0,11.738315308422884,7.36226445265976,7.010018944992896,5.116164271611874,11.443807917576567,10.300498559153628,5.571533122294261,5.818390524010552
1570181108364804.0,11.681628424108986,7.424987343907207,7.1148778710545875,5.086693203154362,11.467783044545918,10.228491081375314,5.494138557833525,5.7743713225435025
1570181108373047.0,11.67866684530594,7.53199185037644,7.20384223571134,5.011899867795519,10.99759689021499,10.034231920483176,5.353453069032533,5.735357677120461
1570181108373047.0,11.684588120588247,7.628669813112439,7.297407209311934,4.970790601227431,11.010425672297785,9.978075350396985,5.269688591730573,5.690041718963268
1570181108379712.0,11.750878225592707,7.7670886265006835,7.385627541649327,4.88887297458486,10.548301211747884,9.808777010683555,5.122772189544124,5.6450569999540114
1570181108379712.0,11.81817208799027,7.895160455741333,7.490154078639309,4.852069382621033,10.56672715405963,9.781718655482976,5.038808416709044,5.6006424038993465
1570181108402707.0,11.906986949708939,8.058904927669984,7.576238511339173,4.7795445336852715,10.131351151023289,9.645834953915452,4.899464018623717,5.558472912775731
1570181108402707.0,11.96975067520532,8.20805565835338,7.6596653905548395,4.746001622491284,10.158614563822203,9.654280659969478,4.82829454028372,5.503542084559679
1570181108404714.0,12.049589915308854,8.377999517878184,7.739439441378367,4.675427239293469,9.734844153354182,9.553773901074802,4.700885747856993,5.436292957858061
1570181108404714.0,12.095542873671574,8.519607051932022,7.8354818617931326,4.650791042756423,9.759708477350882,9.582586996129798,4.6332343968480485,5.364742155530125
1570181108416830.0,12.16744596502841,8.674665019823012,7.914060929025085,4.59554723499661,9.356213429252836,9.46436972418086,4.507891608181949,5.297224751575984
1570181108416830.0,12.222355116437146,8.788690109108858,7.9810397109221265,4.578953348252952,9.394962893113334,9.44636182675436,4.442843568273174,5.220408896345497
1570181108425595.0,12.284939650434909,8.875829614549811,8.039257862088533,4.529701911563112,9.018348874261541,9.296627900951105,4.318058484053092,5.12776014204063
1570181108425595.0,12.33811130967575,8.899856122006222,8.116520302835585,4.522180864872922,9.062621615016244,9.280828371338282,4.2528624716847485,5.024716752935407
1570181108440551.0,12.413855510837328,8.900653832203902,8.205232782413132,4.484502487666237,8.695072334077635,9.133394152443875,4.137216875003582,4.928489817785938
1570181108440551.0,12.460217278038929,8.891095877494898,8.322223653210488,4.4872014051528755,8.735722174146137,9.103598507866439,4.081180161769468,4.841241514392497
1570181108446534.0,12.507484637133755,8.91854538183399,8.452149053896465,4.462629399849029,8.38593437403326,8.936301979393864,3.9749207631913617,4.7683459816459015
1570181108446534.0,12.542638789191052,8.957465852475073,8.59890009626699,4.469762407310411,8.437467277919371,8.897754845761314,3.9261835654906605,4.709366660225619
1570181108463553.0,12.587250905694706,8.995668520735546,8.754934496650002,4.439671847662278,8.097615979820912,8.740622843058304,3.823563761180704,4.6699363100687545
1570181108463553.0,12.606116987640437,8.989424679550902,8.919160113111941,4.442838687432313,8.136398720413068,8.733980003092002,3.774156479538804,4.649462563013294
1570181108464690.0,12.641756219990668,8.969150013095003,9.071801460022789,4.422599857504038,7.7990211783203565,8.61823140192332,3.674159679059606,4.64663968466019
1570181108464690.0,12.681957993936022,8.94868328881345,9.228314172460939,4.440205239757171,7.8334205003752935,8.622470372188934,3.626545284859181,4.656797379137897
1570181108476696.0,12.7400312971147,8.943324001038503,9.386627913858488,4.427039245636908,7.503828021715722,8.49384735267249,3.534224648787117,4.67942089373994
1570181108476696.0,12.773553335232295,8.946749501773306,9.539312120915186,4.438471322111796,7.54374739356478,8.501195775457479,3.4950134709137917,4.703226067073896
1570181108485496.0,12.78448604938498,8.951961351456141,9.680210824999154,4.415577668679601,7.240949537601592,8.373078401155315,3.4083969003267693,4.720876020353517
1570181108485496.0,12.776104206143684,8.934475933994452,9.829572796466215,4.418968000033621,7.292769783372288,8.346731231797444,3.3680559414168303,4.737954737267372
1570181108500452.0,12.76488373495371,8.916554666175925,9.97096258924769,4.3877856278255125,7.000919624510821,8.164629937821013,3.2830775919795006,4.7624961986337
1570181108500452.0,12.742030988172017,8.917154028368232,10.064237960621364,4.3859373279512806,7.050579152428357,8.096057348036293,3.2460575056898624,4.791456180836777
1570181108506380.0,12.713093234995304,8.924436374334373,10.094440017596026,4.357548976140748,6.780792833083298,7.890883574651659,3.16624156333969,4.82417087490248
1570181108506380.0,12.657314588006225,8.905685757284889,10.085105695490624,4.36109045724974,6.850635928613913,7.815932780927815,3.1314480000722633,4.870902385839345
1570181108523564.0,12.609221473159462,8.862661085747963,10.067919882666581,4.333465191456624,6.600691574293399,7.611460782145689,3.0579256392068825,4.9377398745126735
1570181108523564.0,12.57998734604225,8.811798895358912,10.058957928082684,4.341131799863097,6.667327421463453,7.537851825777884,3.0309139665649223,5.022533182325528
1570181108524329.0,12.552609540748161,8.74866175062947,10.053011586947658,4.329846795060891,6.434640514086638,7.335083503430792,2.9682159057431314,5.119300836627649
1570181108524329.0,12.503224353048276,8.683361884465524,10.037716005160148,4.347653803249706,6.520505160504282,7.263725760828629,2.9507372102036475,5.222939497054884
1570181108545561.0,12.445953038046405,8.626330974999286,10.010119191101257,4.325986826849169,6.316256149652672,7.073172647180915,2.898070650354749,5.320432514648806
1570181108545561.0,12.39676720064761,8.59556779169542,9.950902474476868,4.326092288691601,6.407191829888256,7.0150139810293375,2.8779310406695755,5.396713567153798
1570181108547271.0,12.37357672469121,8.58804705830177,9.860081705398265,4.302581306385061,6.198748422423443,6.8234529173956275,2.8144245700450354,5.461882945331108
1570181108547271.0,12.37434499198149,8.587745756629447,9.740888101113311,4.318639168619235,6.270961800954381,6.753760231684415,2.7871000307347242,5.531972237725833
1570181108560240.0,12.386243348009689,8.557724481431542,9.614932216418651,4.321319421477284,6.066958314194505,6.565216971773787,2.7318150786676516,5.59840961381077
1570181108560240.0,12.386002704676725,8.50820642018449,9.47461338844391,4.35811827451971,6.153549804423317,6.5056671263430434,2.7173745643323146,5.643570423212653
1570181108567211.0,12.366449122144298,8.464497905791506,9.32425319491413,4.356657847777078,5.964497331878371,6.319157151829592,2.66462512557578,5.661974038104803
1570181108567211.0,12.349295854102646,8.452176636809542,9.171997615143843,4.37485945090174,6.040151729284408,6.251859318970708,2.637453487487617,5.673044405404851
1570181108583183.0,12.349605385447717,8.44591005350461,9.038208103245827,4.369970819659177,5.851718472153245,6.0652415399916935,2.578836107702512,5.684370202056416
1570181108583183.0,12.356237734382773,8.427765757351256,8.910416980782841,4.39182983306945,5.9277442418404105,6.003269902957512,2.5531891394115864,5.691902867545632
1570181108584467.0,12.36230322801655,8.388927997136701,8.79098268838202,4.371950662546471,5.74575863542036,5.822285582489659,2.498107268922476,5.703872714588232
1570181108584467.0,12.384767418523051,8.35727619805073,8.66496264705173,4.371997555501276,5.827842670520985,5.759299328787531,2.477486046605443,5.732507141542664
1570181108606234.0,12.43333099476522,8.335617449880724,8.542509741644109,4.3431273286411365,5.665080674994104,5.579861797170393,2.4346913148287,5.775015557391005
1570181108606234.0,12.483242595040664,8.339213421830651,8.418761122896253,4.344178502848812,5.750014533484185,5.5182878087697445,2.420328728997606,5.8260258228309745
1570181108607338.0,12.516056241077553,8.362297300025446,8.307442968751408,4.314048864547856,5.589767878904239,5.346806497415648,2.3834486960890744,5.881741440196728
1570181108607338.0,12.556664781582528,8.396761296160076,8.198065029100434,4.310373064252289,5.678658297872746,5.298400042850585,2.380040666740722,5.940667530179089
1570181108620281.0,12.599218582452517,8.401517490001426,8.088290580288321,4.274267125645316,5.543071382587772,5.1496209396404895,2.3598416270366758,6.008289898616245
1570181108620281.0,12.620975853848847,8.404014899944753,7.955028595464164,4.262087809294196,5.646707216690319,5.114998994013279,2.363079163609841,6.086725771515016
1570181108627336.0,12.636705532580946,8.413342354808458,7.8186987125425915,4.218531657710722,5.520042954394934,4.97421151561679,2.342442392129299,6.15629867689981
1570181108627336.0,12.66330419844512,8.434873250667914,7.67923392083413,4.2091171485437355,5.629857838053778,4.948849314392863,2.3459743922211986,6.210086806620526
1570181108643203.0,12.696942235077639,8.466573775170183,7.549944658049465,4.179567661991926,5.522388554166642,4.822219525856687,2.3347660332047306,6.267860785271797
1570181108643203.0,12.736499135605435,8.51415561384106,7.422653569734206,4.1866876567148,5.628032045688015,4.798394658191423,2.3459182310928903,6.346788145393515
1570181108645004.0,12.772231307891774,8.533857393062288,7.309068593356685,4.166874622075198,5.498731035441013,4.670967305405889,2.343870389949017,6.442000333862226
1570181108645004.0,12.814951757271999,8.537502843270003,7.198760251220102,4.177060699965101,5.584589926698598,4.648097962401889,2.358867412848214,6.544938571181978
1570181108673137.0,12.867686303261532,8.544793714303793,7.107038617560706,4.165069067443988,5.452645735496937,4.5232486475672395,2.3496004925497047,6.6498381583110175
1570181108673137.0,12.93386938192881,8.589357426059903,7.018888718481927,4.183858993765185,5.536594722599413,4.4962860375695595,2.354249289514105,6.751112264306801
1570181108674925.0,12.996386122726658,8.653852904399981,6.937586496117157,4.172038382127049,5.406718935493242,4.370407371105838,2.341922245081478,6.842887306874695
1570181108674925.0,13.05679964669657,8.72886529012203,6.852320456660233,4.1890154869501375,5.488827949359756,4.342746369504942,2.3435584574422554,6.9444943680799796
1570181108679194.0,13.13386984180544,8.777090515871999,6.773180704259524,4.183780517781577,5.367130142245573,4.218488700634672,2.327942220321891,7.059261240002211
1570181108679194.0,13.21707945528795,8.796377859253742,6.687833893720772,4.203500850533015,5.464706257995749,4.188804717849051,2.324448985928292,7.176642790761783
1570181108687888.0,13.259433315378413,8.75927365735218,6.611561375678384,4.187245540706822,5.368311243181467,4.063290048369601,2.3017388274617567,7.301787405202177
1570181108687888.0,13.282819240331685,8.693509400087459,6.533239399056426,4.1970385181652405,5.476654924699965,4.025776243305049,2.28968904710234,7.445845575678987
1570181108703069.0,13.29940040811272,8.597460489459516,6.46071173816304,4.18411486414825,5.377493644712507,3.891878686214075,2.2640477321921444,7.595526137583651
1570181108703069.0,13.318848039937901,8.509751576016415,6.382693910857688,4.1995644998115536,5.468928664836738,3.8487464522313295,2.253686299717335,7.739674865631878
1570181108709495.0,13.32910159265424,8.427481674438953,6.315089883589608,4.1919489357234,5.3369546396311485,3.7161232317252946,2.2349072289378173,7.8836576744707685
1570181108709495.0,13.348426228365314,8.36702093670303,6.2505281215311275,4.219584208491897,5.392327192319593,3.674333304940741,2.2312895854602894,8.020645078967114
1570181108725800.0,13.391875105053048,8.315668320675114,6.197654131542449,4.2235862582919,5.245716268095509,3.5525594674830194,2.213046384733506,8.139519548798207
1570181108725800.0,13.456121896529755,8.29761634895715,6.141380732967781,4.254071566736465,5.2973795711466005,3.5222216760942198,2.2049733297662897,8.25669724955948
1570181108727782.0,13.506044320661921,8.288302304863556,6.095042419763937,4.255148936563679,5.1490680024207505,3.4132626813705644,2.188589757151541,8.386230256974759
1570181108727782.0,13.56766571789835,8.301971866404475,6.052053997286985,4.277631217792102,5.201731883483455,3.3895438636995476,2.184400273812786,8.524811856011226
1570181108738751.0,13.634011829702589,8.30282328551971,6.019398590110537,4.269560483680336,5.062284889322855,3.290054614284212,2.169763476054003,8.647472461271663
1570181108738751.0,13.707468662549752,8.291434994897937,5.973453718114593,4.280323345371892,5.117179739527437,3.2725097175186835,2.1615015745848134,8.738579582969
1570181108748727.0,13.799024628866643,8.252409391258482,5.9169887976777895,4.243712729311908,4.974188030769838,3.1886277139736015,2.1455729415826057,8.816206584040602
1570181108748727.0,13.92555557900805,8.220224689441107,5.847769049822719,4.226393502751113,5.0237013392297145,3.1906624114869726,2.14301839546749,8.899339030527269
1570181108763686.0,14.053635581017392,8.187876952294516,5.785536018104286,4.18018903185035,4.880858610643342,3.1291015667178876,2.1367928307319715,8.960854828430195
1570181108763686.0,14.189499080001385,8.182913621466987,5.7180738801812305,4.162618320362148,4.923561727928754,3.1319896191664767,2.1353217395223387,8.978415401175418
1570181108764683.0,14.321932289580282,8.183622323698149,5.657472742216839,4.121394099737137,4.7767266072691985,3.0666930923436597,2.127430176645457,8.980642710806581
1570181108764683.0,14.4127092680269,8.192315017310634,5.597162778186458,4.118832305336277,4.823130494659637,3.0726099021058824,2.1249817610639727,8.989200865783937
1570181108785854.0,14.425204967755866,8.168688780970944,5.545075980410961,4.098584678995242,4.694004107734919,3.015526686095409,2.113298921350876,8.996610074413356
1570181108785854.0,14.438378027111723,8.14935433683113,5.487610014176207,4.109496116231057,4.757234423122345,3.0155181979094148,2.104101686726902,9.003100530700653
1570181108787621.0,14.478939645081011,8.122176455684713,5.440642964752688,4.091092240929834,4.6412555931453,2.955423148412628,2.0946335456261496,9.00298848630351
1570181108787621.0,14.536316603774187,8.091705063516947,5.395621485929324,4.101239800392942,4.707233643738513,2.9539300927210657,2.0939723070539253,8.981110637239452
1570181108799660.0,14.565108316796202,8.037854744723806,5.359078889405689,4.08040972738853,4.5902198995295,2.896929203576696,2.0984385781906587,8.939060231366325
1570181108799660.0,14.594060607660364,7.994664376874538,5.3167277998778335,4.085549156709553,4.6469097735956035,2.8953215309669464,2.111545577209391,8.90725865641653
1570181108808566.0,14.622361938927934,7.941633069054386,5.276431469344625,4.068990923213891,4.528242546307792,2.8445038863760725,2.1306235781060257,8.897203237471459
1570181108808566.0,14.673164719923532,7.900513066815168,5.229561794836435,4.0857525843140605,4.588732952751387,2.8464131654394844,2.1536333002148274,8.90078264443418
1570181108823646.0,14.728443802984149,7.859292527637133,5.187937388741622,4.075103913880536,4.471978100167702,2.8007705827287728,2.1808059924486654,8.92081280116262
1570181108823646.0,14.784405843139847,7.842331665277743,5.141605176449181,4.092088655293726,4.522670767517198,2.802020570942859,2.2084213784027624,8.96300777266322
1570181108825089.0,14.814227579943523,7.821523874321447,5.105329390165708,4.090576704144206,4.398038468418862,2.7673047590441358,2.240095077386481,9.011963569599827
1570181108825089.0,14.851180298522472,7.816817593675879,5.073377585633714,4.127701638206831,4.447041707466707,2.784449515984504,2.268943507235931,9.036975468710683
1570181108845474.0,14.893273810380819,7.798626692213263,5.055926408652371,4.146272398219895,4.333413289167362,2.7746797833150727,2.2934507971359612,9.040892675532424
1570181108845474.0,14.97429976668664,7.790803775784581,5.038638807531954,4.198137494230401,4.393953119187599,2.8074270103173045,2.307577307097694,9.046415869905266
1570181108847466.0,15.067074394471321,7.784463029219093,5.030593107049173,4.226906431461707,4.291569372732036,2.8154795474611083,2.326030626790079,9.058128753469171
1570181108847466.0,15.150133919655255,7.796234693831432,5.019106841689255,4.271106613311114,4.356951616947812,2.8590147328942668,2.3444313209805197,9.065222573214204
1570181108859570.0,15.142606943687548,7.784824844971918,5.003656235255042,4.261128599259222,4.2528254385347415,2.8801665371610667,2.367385197311927,9.053016804850209
1570181108859570.0,15.096300205740706,7.774006129098234,4.967718843318131,4.261787267174976,4.306059933436495,2.933650732692637,2.386885581236701,9.015524844661996
1570181108868426.0,15.029616552727868,7.74092270427002,4.924316996574937,4.233907113815849,4.194303510880024,2.970801656973804,2.413063155383507,8.965178116340315
1570181108868426.0,14.951423055107623,7.701835117104361,4.869882511857344,4.235780565667057,4.244780720090095,3.0354470611066198,2.438319450174716,8.929423990855208
1570181108883582.0,14.85123256341601,7.646882938244552,4.818832833579914,4.206279800232686,4.134023336851057,3.089656588002759,2.4736229317647247,8.922261689182495
1570181108883582.0,14.771547009827525,7.609860633133995,4.7628834894723715,4.202865694440334,4.183497384105792,3.1709825061186665,2.5057979296245914,8.941814842843613
1570181108884964.0,14.676963484892417,7.558301548026475,4.713527561224806,4.173512815395284,4.078684794212043,3.2433134853968637,2.5464871808738367,8.985055617137046
1570181108884964.0,14.616362676627702,7.508401747914854,4.660953697328801,4.175686771426933,4.1350599695241685,3.3334896995011434,2.5820837824693723,9.045995254729466
1570181108905537.0,14.579742472124874,7.4405362819363585,4.61251905231199,4.147884167107607,4.0309947400175865,3.4097843747570207,2.619198870820124,9.11365665056245
1570181108905537.0,14.573931676454057,7.385738656565917,4.5569880030890575,4.146162012876296,4.0776560904504935,3.494245181908419,2.6436350657923477,9.176538330532013
1570181108907302.0,14.5585093196514,7.325846549096555,4.504126718007288,4.107001031564686,3.9657776825751947,3.5375186182120215,2.6741920247548014,9.233964190626018
1570181108907302.0,14.550249518800467,7.287136531310652,4.446470621294825,4.09249554750472,4.003657642104331,3.569701885987909,2.7002674613675843,9.280314492061715
1570181108919272.0,14.50280550997724,7.241725912270583,4.398513578065068,4.050176945684907,3.8856196833376364,3.581425126649284,2.734742740374275,9.30512150094996
1570181108919272.0,14.455981230101068,7.210536676072017,4.352372857088103,4.038802690711249,3.9212513301366214,3.613212220109172,2.768045319306449,9.322653782678097
1570181108928246.0,14.400830500281113,7.169590631728521,4.317307513514251,4.000758998737462,3.81110718541951,3.621935844258433,2.815677477757671,9.355641062952406
1570181108928246.0,14.376824239531205,7.141183597443744,4.281135245430066,3.9972643202734313,3.8558994403193,3.6406717179301964,2.8607322986025943,9.411969106827847
1570181108943283.0,14.34912488411595,7.107648913718435,4.251338847605974,3.966077918283833,3.753686890665007,3.64569596830972,2.919620258978457,9.484607148387857
1570181108943283.0,14.34719298021233,7.09531762237267,4.2197067400732475,3.968295119423621,3.801894751562062,3.6692709628625924,2.9764269526328233,9.56887291602671
1570181108944853.0,14.34957619173119,7.079390591887221,4.198039156055348,3.952245122150604,3.7131400712404994,3.673904145098269,3.048363217996891,9.659872483288753
1570181108944853.0,14.363264453160756,7.082407093749018,4.173454717165829,3.9700649749603043,3.7743410785314304,3.6924996183534,3.121236555119816,9.74526881874464
1570181108965485.0,14.328114681810174,7.0705694688284915,4.148469853103494,3.944489081673103,3.6886748863993266,3.6979215302392774,3.207217806916863,9.821696209910101
1570181108965485.0,14.263424905396807,7.0615421754783165,4.115962359094656,3.9363272467117434,3.7429795703382736,3.723671269413322,3.2868043061973093,9.89863850965461
1570181108966155.0,14.14271043658259,7.033855024743211,4.089486897133468,3.899456644955565,3.6559131253385555,3.7444124639243106,3.379602567747506,9.991023657107117
1570181108966155.0,14.017319073302218,7.012693015855912,4.055797792266772,3.895283152095207,3.706723509241084,3.7878708311058364,3.458668869215928,10.100950796244934
1570181108987096.0,13.857061221077547,6.9732620160960765,4.025882519610384,3.8624181339244377,3.6166953530689385,3.825951407754766,3.5212358694846593,10.217787179267912
1570181108987096.0,13.689140048986841,6.935342299272989,3.994157165165971,3.8568735883510628,3.6652730900633363,3.884045622515664,3.5629788129132636,10.309823065517255
1570181108988085.0,13.484580968096843,6.876718600952048,3.963451828715317,3.814020413807496,3.575464733424256,3.938444502940088,3.615535989630051,10.35917650955351
1570181108988085.0,13.28925841604789,6.832279035782067,3.923082177195199,3.798524829488821,3.622958956626986,4.014514630921084,3.666999541780664,10.41111773253663
1570181109003048.0,13.074497461994433,6.784921522938285,3.8864872847822896,3.7557262581859097,3.537309465037437,4.094138437564923,3.7282902146933283,10.50323103671911
1570181109003048.0,12.880159338597647,6.755739367611326,3.847084127010396,3.743641173357185,3.5879897849336735,4.195421821103832,3.7880760950266192,10.624153704042316
1570181109003048.0,12.682992084696117,6.721670933407336,3.8146475723593043,3.700994797583365,3.508537274568384,4.282232609707029,3.8460401778339257,10.753914333884293
1570181109003048.0,12.522518332890103,6.702005891692948,3.7775082121690824,3.6900652181049973,3.568066887779687,4.357380790555046,3.886080293717963,10.872664262376533
1570181109025187.0,12.362910315979077,6.668825612390612,3.741903922897953,3.650034261637364,3.499821536547462,4.386041903106012,3.927542156232965,10.973895723807871
1570181109025187.0,12.239050407456116,6.652270990570435,3.701086368349824,3.6392980624490328,3.560018876487791,4.415380394292646,3.9694159139060443,11.088350119156539
1570181109025987.0,12.118877437134397,6.6313406222342675,3.667376129911195,3.597391257306508,3.4882699585580177,4.439222796897829,4.02031012285155,11.22132275916143
1570181109025987.0,12.034091380294072,6.6218839467774595,3.630373661911264,3.585117436095428,3.5485194575850154,4.480993310788993,4.0653744323262195,11.321423668984348
1570181109047931.0,11.947772838078496,6.598697359533199,3.5947227425170523,3.54050428565126,3.4849394995205025,4.4859458834954475,4.094011982295747,11.371355201158474
1570181109047931.0,11.894692356775938,6.587338786053679,3.551762628646408,3.523744365283185,3.543541897042126,4.489437732861591,4.106451818367171,11.405188122039718
1570181109047931.0,11.839373675627684,6.5633994190510405,3.513454249046249,3.4764850659709485,3.46944518235279,4.465065976546771,4.121435321312586,11.449242904340062
1570181109047931.0,11.809314289469496,6.556233884068619,3.47148778610331,3.457999408701177,3.522102245588918,4.457175891840886,4.135075321368429,11.509909572177659
1570181109061890.0,11.765411733193543,6.551245751614303,3.4344476681335965,3.405519219680215,3.446870391399662,4.424677224530759,4.146087109502768,11.579134843782272
1570181109061890.0,11.734043791546393,6.571945919352551,3.39335920347908,3.37968109288162,3.490757460982978,4.402168983145918,4.155122187153696,11.632074483903004
1570181109062891.0,11.674170751161505,6.579283400511229,3.357565041425101,3.3227140385544947,3.4040595507036278,4.349088228859657,4.153199408522654,11.659716100714233
1570181109062891.0,11.616181387626845,6.575196397390468,3.321914789897078,3.298684731478872,3.441239971886278,4.319093103127633,4.141619560318962,11.683851148716103
1570181109084863.0,11.53170272203624,6.537764259713126,3.295601582529296,3.247338030494883,3.3561550765646455,4.272339755611845,4.122834939528518,11.696430868725121
1570181109084863.0,11.455761651381904,6.506217789182546,3.267865319012518,3.2216239743857993,3.3954104993976824,4.251564768300294,4.091499875587589,11.658319154475738
1570181109085825.0,11.344649216449755,6.460554750239482,3.244500106501832,3.1604140977305897,3.3126925501079407,4.206639182426142,4.041411933219324,11.58213273943652
1570181109085825.0,11.225216231634512,6.415213714037762,3.215520889016985,3.1287281690845714,3.352221374757189,4.186070841826978,3.9895834087076376,11.509917558110818
1570181109107766.0,11.074768117018866,6.3456663706678365,3.190267050620939,3.0677360188540197,3.267133153875003,4.150403466841227,3.9327661927151265,11.456492854961317
1570181109107766.0,10.944731363186987,6.287705335004204,3.1637350649492255,3.0378181177088157,3.3019783905833373,4.1417814615719,3.874125368988756,11.412438521529307
1570181109108047.0,10.806923252602648,6.220989613252482,3.1437758563619806,2.981728735920939,3.218431457692936,4.111623028464145,3.810679587209555,11.371157799125488
1570181109108047.0,10.697057228685651,6.166432177297627,3.1195557884590017,2.958521780263634,3.2569350828847106,4.102880786077502,3.759191444968245,11.338797890067125
1570181109122726.0,10.58205655983235,6.10060163922563,3.0995543606804317,2.908826984698747,3.179933346032084,4.076955813284433,3.713808835744392,11.33254794276439
1570181109122726.0,10.4884151023732,6.047542588390148,3.077043963052568,2.890570001385616,3.2248416043484327,4.080674305221096,3.6764521411669935,11.352142513532277
1570181109122726.0,10.382997462191721,5.981719403306358,3.05911860337199,2.8420380028018974,3.153200297064182,4.076118390771311,3.6329551368709434,11.389870819413886
1570181109122726.0,10.31253431758929,5.926063693661685,3.0378796287212912,2.8195144093405884,3.1978752052858623,4.105729592796267,3.5966122709672477,11.442190974683564
1570181109144667.0,10.245177791413388,5.857576057101126,3.0228298263645175,2.7666798493323714,3.129718255014674,4.131510559023516,3.5620549700630977,11.496293584878993
1570181109144667.0,10.195703029735197,5.800676404502196,3.0045897082707755,2.743301429592994,3.1777043942017626,4.189515436061679,3.5313665281850635,11.535016883445765
1570181109145666.0,10.11959846106967,5.732762759803378,2.987521390659546,2.6923812330976546,3.1064712859241355,4.232472040575097,3.499201703029449,11.5469126364142
1570181109145666.0,10.051237873891814,5.683533312052651,2.9650712565586455,2.6700753949339497,3.143310744352042,4.286439088243539,3.4819395217154985,11.534479735491681
1570181109167644.0,9.9665370618166,5.6341172301746125,2.948483440145674,2.6212479914141875,3.061659330475676,4.314794941993617,3.473358082011481,11.51765728434783
1570181109167644.0,9.909065810160847,5.60513506251889,2.932934007382746,2.6045140314078723,3.091390879716836,4.354247674050111,3.4728944532932977,11.495542641845997
1570181109168604.0,9.84957948771804,5.566790456622792,2.9252195336849973,2.5619317531274493,3.009326360908784,4.3638990556613075,3.465287706646517,11.452973583204741
1570181109168604.0,9.82016152303098,5.538221697352227,2.912110856308728,2.5474752155262435,3.0436328079044968,4.388657418183956,3.463022034931406,11.399177813022426
1570181109182620.0,9.791720682369794,5.495925024178495,2.8978122896385297,2.50579652156354,2.973405977824279,4.394827879710339,3.4600714806602855,11.368051253176834
1570181109182620.0,9.787631584532447,5.465676513087073,2.876467142567208,2.493291650702905,3.0186925422027464,4.413916152163312,3.4539627994298114,11.36559328723255
1570181109183569.0,9.75705011358825,5.4215380794822705,2.8577442295620292,2.4560048145738747,2.9580032678423724,4.388829295810067,3.433021818685755,11.362522539261777
1570181109183569.0,9.71817736940865,5.378951543325043,2.831535982311144,2.444320720980857,3.0073955059750244,4.371375030691249,3.406659700068653,11.32928472284886
1570181109204515.0,9.643313577782381,5.315572259578283,2.8041697379240857,2.402459250976924,2.9425005139606686,4.327671165766058,3.371314049740938,11.268416950819194
1570181109204515.0,9.575011529542163,5.261563554146477,2.7707690640127036,2.387311915000414,2.978465196305082,4.302302844817138,3.338570563277674,11.199876849010836
1570181109205506.0,9.483881727491479,5.194712555586294,2.7404128670573096,2.34658521895787,2.905181963933223,4.251833588163699,3.304457628762641,11.135719712632168
1570181109205506.0,9.402051631167673,5.137111813264265,2.707630169029173,2.3320134736629163,2.9389475576809407,4.228155359560715,3.280115276130837,11.069766842492452
1570181109227523.0,9.305501007308052,5.068456589696197,2.681893796964904,2.2910569875407325,2.866220821370428,4.183990709925288,3.2594216228957222,11.002011844313778
1570181109227523.0,9.23100458784841,5.0145357646932815,2.657017558832915,2.278871566891253,2.900635132111973,4.170239213071257,3.2520654688792745,10.927338756755377
1570181109228444.0,9.142468480257447,4.952631832306786,2.638284353711429,2.243509544069741,2.827436803255258,4.132838649485044,3.25003019425705,10.838105906463039
1570181109228444.0,9.072445971462841,4.904336288773415,2.6165722227775148,2.23545952287732,2.8550920095798724,4.112682513942414,3.2559842573773716,10.748612254007876
1570181109242409.0,8.997705003306773,4.847071466776631,2.599520069193244,2.2030888403199356,2.7769686182912343,4.068860202094097,3.261868506513722,10.67337609272049
1570181109242409.0,8.950204654663796,4.805108409587898,2.580354540213316,2.197402773933564,2.804221146070689,4.055083295892894,3.266885020313052,10.606186966960061
1570181109243401.0,8.904213562979269,4.758020294142959,2.5666693745992952,2.167415927111534,2.728497481243323,4.013636797027344,3.261758214130429,10.540918313383463
1570181109243401.0,8.897141759869562,4.73019393908542,2.5515286318780444,2.161704547239353,2.7552029620904195,3.988669586789899,3.263191981577807,10.47979703780502
1570181109265493.0,8.887134017218079,4.697868854786577,2.541165240784642,2.1318931490674706,2.681949460451186,3.935300097330636,3.2610313575185352,10.425104736358389
1570181109265493.0,8.876514429176225,4.67602474329766,2.52785768452849,2.1284469748353385,2.71113757386618,3.905312722976376,3.2469392910186,10.35833465647572
1570181109265493.0,8.819958345663212,4.636082390051595,2.516613645339408,2.100231480110135,2.6402714326943424,3.847150219617737,3.224802006221448,10.283431202444836
1570181109265493.0,8.762628774015706,4.600397859956667,2.4994831792177137,2.0945055310610847,2.669282791795081,3.811721211834704,3.212423556712933,10.217724876660672
1570181109279310.0,8.691168716430393,4.550138048829486,2.4837438797952998,2.0638779673983163,2.5986701553044718,3.7596154895236573,3.200931236194872,10.17201834080217
1570181109279310.0,8.638973512482638,4.507385680478538,2.4621899922482675,2.058490088317721,2.626079898519804,3.742381136056096,3.1946422161312396,10.156745653282108
1570181109287208.0,8.580900816878277,4.449981139347365,2.441045978155413,2.032824883772655,2.560560953680813,3.7117494621133083,3.1924837059510702,10.177304903930464
1570181109287208.0,8.544705125706402,4.402914473405174,2.4147963745771994,2.032058300155135,2.596258679588716,3.709718492320125,3.1936289394981436,10.195719104430664
1570181109310229.0,8.488913314886457,4.34940509970371,2.3916397244141225,2.0100421288878145,2.542506043770123,3.693621948112192,3.1839899714111777,10.158874705249342
1570181109310229.0,8.437962968756516,4.309512989341464,2.3639939124935165,2.0134327699050356,2.586554828391241,3.7085866438999773,3.17643638842045,10.069722517674961
1570181109310229.0,8.35598304596242,4.255364291193144,2.3379228919611035,1.9942262082894033,2.544476815621488,3.712464529025667,3.173789215361804,9.965701631859735
1570181109310229.0,8.271660739852779,4.208667975562694,2.308062427432461,1.996860863584323,2.5987097343191277,3.74756227670778,3.1792909563326393,9.859622477725507
1570181109325387.0,8.167025067880969,4.153122991775027,2.2833517346663714,1.9792267392095495,2.5696721108865552,3.776615128908769,3.187710224775824,9.755119657995426
1570181109325387.0,8.08017442414072,4.111529710395998,2.258661913260429,1.986842907683643,2.6368578777280653,3.841857135534262,3.201750747968722,9.657039674235694
1570181109325387.0,7.980922057779735,4.0634375175921535,2.240006638503223,1.9769475068917097,2.625657362378312,3.8982240783837976,3.209685605943565,9.55945893050049
1570181109325387.0,7.898223904569238,4.028814708262617,2.219624920417461,1.99161664793903,2.7067836631155813,3.957791524415221,3.20612224184647,9.447869631603297
1570181109347330.0,7.8040619855357685,3.987569588719371,2.203426172834136,1.9871779560568412,2.7011995318385877,3.9562356113304857,3.1884056266031804,9.33347453755988
1570181109347330.0,7.729214443376136,3.9644191104455206,2.1848510102653815,2.005120264598138,2.769235409173991,3.9352892674873843,3.1712157432103076,9.230354143383126
1570181109348132.0,7.649138621008082,3.9428765935737577,2.169885391650634,2.0013408769819163,2.73470215888206,3.87246787979737,3.157798370666565,9.143746001716885
1570181109348132.0,7.596261993504532,3.94280335625064,2.152683914518955,2.0153923200642696,2.7776159962765843,3.829939259719729,3.150100531746307,9.079453234574288
1570181109370068.0,7.534528705989727,3.9366270211182774,2.141241439730204,2.008765212012225,2.7277344230179845,3.764504281963775,3.1388585783615044,9.041269324316781
1570181109370068.0,7.485500108805475,3.9342765405371942,2.1281739747656214,2.0228643537359363,2.75876343467901,3.7181742478121813,3.1325158125313175,9.022255296013357
1570181109371157.0,7.419963110893073,3.912208606111502,2.116245951162269,2.0134023303749444,2.6991971003090796,3.645864505065458,3.129965112054875,9.00895311543184
1570181109371157.0,7.36390257654646,3.8955355863391143,2.0996556378315567,2.0208765217189892,2.727458112960299,3.5970680625444404,3.1316440301291535,8.981795089058808
1570181109385030.0,7.28804672322807,3.868564167384436,2.087017861537666,2.00806542490975,2.6689123749332135,3.5249023025181505,3.1354837318216,8.9531371953272
1570181109385030.0,7.222107407971314,3.846324718856777,2.071570147074624,2.0175907649581926,2.6975184154597067,3.4779765801475144,3.141503272754079,8.949368316815052
1570181109386069.0,7.141183317063272,3.8093628560191823,2.0576072158462764,2.008175527913773,2.6381073846880483,3.411723963173002,3.1448432615894872,8.972164325810468
1570181109386069.0,7.074512456281433,3.784592606923666,2.0401107617088923,2.017823598942383,2.6639472483573394,3.3727482599315244,3.1518207285287367,9.007852409008645
1570181109408074.0,6.997072265128291,3.755800356835809,2.02638237209154,2.008618599114491,2.601257415551649,3.315886790569315,3.1604263357701754,9.045104494502736
1570181109408074.0,6.940590511254907,3.737914860540513,2.009363060872665,2.018491012687953,2.6213671278233095,3.2836054472122482,3.174564393848066,9.069556461990738
1570181109408074.0,6.878094637900466,3.70996333226268,1.995353477368518,2.007724128804375,2.551297764211116,3.2320730071961425,3.194778697129642,9.090908752406104
1570181109408074.0,6.838084104381567,3.6914473089417106,1.9813444984012953,2.0164978978136197,2.5687971378049665,3.203926677067945,3.2206192722535643,9.124656206403106
1570181109429907.0,6.799683727011839,3.661002093644337,1.9731509759305619,2.0032642351746466,2.5022210941807956,3.156621052714724,3.2530200620070224,9.179366068492403
1570181109429907.0,6.789109432100366,3.6370902375265652,1.964189326807737,2.0068727333574237,2.522390521549954,3.1309633757080375,3.2787219509337504,9.24295944833727
1570181109430958.0,6.772504070872981,3.6038145258757206,1.9597527960387666,1.9921341927030058,2.458503702054028,3.0883279018705325,3.2792944828383237,9.290452629425507
1570181109430958.0,6.77537634357322,3.5821787878189686,1.9518930012518225,1.9969381213584987,2.481140805104464,3.0650752508425656,3.27206274537025,9.325086596819357
1570181109445085.0,6.7784807436527,3.555357558106068,1.9438925766434887,1.9826470500593112,2.4207095665709444,3.0261649946404954,3.2717925542098434,9.358616801101128
1570181109445085.0,6.8048094985029906,3.5429259478712414,1.9323349577205806,1.99026578025174,2.442568231410919,3.009789027283911,3.2742577055669213,9.40429675746607
1570181109452858.0,6.825246652048834,3.5285358151143873,1.9264801488027892,1.9804422539847182,2.3802554399307976,2.984063708405471,3.276093730867034,9.47466215938392
1570181109452858.0,6.869303947307573,3.53265200946967,1.9230390559147978,1.9867897607321812,2.4004786413495283,2.97936251686117,3.2853896051236267,9.56172805425143
1570181109467865.0,6.918499996975429,3.5364696675274496,1.9270658364710298,1.972172201544122,2.337572737629597,2.967671013768924,3.303495186817236,9.666553079089406
1570181109467865.0,6.994189787760651,3.5505358260502824,1.9299201613551225,1.9756875899099173,2.355912473928699,2.9775203524664344,3.328181884691367,9.78731364089487
1570181109467865.0,7.076556099001146,3.556662924840788,1.932805825752826,1.9579803239491194,2.293729274102056,2.984629159492621,3.357086923150068,9.912395551409311
1570181109467865.0,7.177070671251832,3.5734197258134555,1.9306859616813379,1.9567565235264706,2.3135568885400404,3.0120398175613636,3.389530780354472,10.019484911561412
1570181109489953.0,7.2410024518201475,3.5766126384449524,1.9309187503040262,1.9335647881289817,2.2543708898982375,3.0378129384750747,3.4264813524393745,10.093191837735192
1570181109489953.0,7.286642682831602,3.5801395670741933,1.9292509135821125,1.9265523972341698,2.275310639756838,3.0769499373669875,3.4680838125328455,10.12557692969091
1570181109490750.0,7.299609311301575,3.57010283626567,1.931065724968833,1.9023828439538226,2.222354462316376,3.1146380851846827,3.510558787012241,10.123126692293226
1570181109490750.0,7.310486389049947,3.5682903162086497,1.931751286348132,1.9003334898755657,2.250797613372381,3.1687433188641414,3.5483506289468076,10.10423263926824
1570181109504819.0,7.306612120797158,3.5618180514109623,1.9368602017434096,1.8832408527780287,2.2082956574153827,3.2250649242796725,3.57263146043926,10.074058339237364
1570181109504819.0,7.320250275761381,3.5674292465379325,1.9417264966237884,1.8865430367376557,2.2443282346769653,3.293378787178308,3.58290924040518,10.040119800136564
1570181109505708.0,7.329417720514249,3.567332461283541,1.9497784740108892,1.8693016420432937,2.2091175384602426,3.3673530199738293,3.586114616690143,10.010811810687029
1570181109505708.0,7.35343726085815,3.5764420460845154,1.9541652782914094,1.8659092810588502,2.2480706408875255,3.4573752227887784,3.5841567149780738,9.976403085589617
1570181109527643.0,7.364447039261577,3.5770892067707023,1.9592045966429212,1.8426094329934564,2.215199955078493,3.5560158723771593,3.5804514589634775,9.934275992637236
1570181109527643.0,7.379859575156108,3.5862230446277312,1.9611864478539776,1.8380396920833502,2.2538954554538413,3.6673838796150697,3.5852602084505114,9.880168346498305
1570181109527643.0,7.370215352165704,3.583290234888738,1.9643806629684013,1.817199939877016,2.2232366287089813,3.786591028908964,3.5995525945583173,9.826024746238001
1570181109527643.0,7.365927668735388,3.5799636442633087,1.9626991622635857,1.8168149648677587,2.265222002002126,3.9213003565665483,3.625771317823407,9.793716971927713
1570181109549750.0,7.352239139359682,3.56240232329187,1.9617957145592109,1.7993082243008391,2.2442198792977495,4.065002309363608,3.660125823479572,9.795227330954017
1570181109549750.0,7.351579264136915,3.5523322614073605,1.958493318009003,1.7966677844702281,2.296166781211782,4.210398063541786,3.695976445619277,9.82175031418006
1570181109550662.0,7.3397915015040445,3.5317290657995843,1.9583050819531846,1.7747115292911384,2.282472943216687,4.325381481874132,3.731222627968386,9.83473466938923
1570181109550662.0,7.3359655625198945,3.516531119084235,1.9562833020083907,1.7724483501818795,2.3353091550744134,4.409478776850268,3.7693695731210766,9.800261026962291
1570181109565544.0,7.309131648661564,3.492884482749854,1.9561963210208362,1.7553059801785118,2.3256102605001296,4.461683181414086,3.804470128330802,9.734103847116975
1570181109565544.0,7.281414914525632,3.4758668483898045,1.9551506895000683,1.7564225572071719,2.3798892134831906,4.488232190442379,3.8342605447173934,9.658165139887439
1570181109565544.0,7.234768707548694,3.4480588396060114,1.9603322095336024,1.7392028678799958,2.3556786614419334,4.461009292067168,3.8598018989530267,9.580739672111095
1570181109565544.0,7.202773545735541,3.426993309843003,1.9652495451722796,1.7377355483148902,2.386680085491911,4.4203578183652406,3.8864632305413997,9.503954081707661
1570181109587482.0,7.15942504691497,3.398031118011109,1.9678661751075808,1.7206143039103052,2.347634749087932,4.362396715313764,3.9143774423507933,9.43370127420145
1570181109587482.0,7.122509891725108,3.3780202018295324,1.9623838388504813,1.7221700294333022,2.374199472794294,4.319268480832239,3.937834596515575,9.374616448468753
1570181109588482.0,7.070593927497985,3.3519937325771347,1.95778554701971,1.7078840181572918,2.332963229856211,4.266077171471831,3.9383459914295824,9.322323721108157
1570181109588482.0,7.031536829455435,3.3378783733094513,1.9519395546543945,1.711115879886318,2.357402541311846,4.220844403622937,3.922783469936605,9.264260156118205
1570181109610450.0,6.980196381990368,3.3206895158056824,1.9484833103514894,1.7008444701388201,2.316111850782918,4.147387467250558,3.894762872422223,9.199158407489582
1570181109610450.0,6.94490494012574,3.316337866667164,1.944485089461708,1.7105563990645682,2.3402740916164437,4.083223705649516,3.8632456069851524,9.139127028216448
1570181109610450.0,6.907440136033138,3.304812810456692,1.947122915928062,1.7065136430353736,2.2985183498012316,4.006961756661521,3.828487025597359,9.091308332019352
1570181109610450.0,6.884447695839633,3.2995285443482207,1.9501926072321192,1.7175244570404529,2.3233088395324404,3.9528035875917595,3.8010608253525375,9.050077648910623
1570181109625433.0,6.845755245036662,3.2855815815874236,1.9547540657662303,1.7112965324688363,2.2854474245026997,3.8857814682598613,3.776163391454027,9.006892550300195
1570181109625433.0,6.809498887966427,3.2769689632595496,1.9555999059214335,1.7194242236770556,2.314103600394239,3.8350428983725613,3.7566285297164903,8.941796802226026
1570181109625433.0,6.7507688231982454,3.257248386600126,1.9584546911376608,1.7095115889022163,2.277515493287379,3.7656313345079275,3.737350455158522,8.8638490113299
1570181109625433.0,6.701660511449779,3.244466411417514,1.9607033762315886,1.713384050048716,2.303593714006008,3.712528099561785,3.725401435635996,8.79425707255757
1570181109647479.0,6.64206434248042,3.2251728534419173,1.9646039892983538,1.6995391984967627,2.2676366591450643,3.6485947524649185,3.716065653623051,8.739025154385644
1570181109647479.0,6.5936762304472785,3.214312623136501,1.9632390166533689,1.699304834769492,2.3001026444496997,3.609481746755753,3.715156985999583,8.68778032694687
1570181109648332.0,6.5324895122894775,3.197680524205519,1.9635409476255132,1.6824679067770771,2.278248559180705,3.558475778249626,3.7128064986664167,8.629707118515984
1570181109648332.0,6.485760784631837,3.191478026146948,1.964317816037005,1.6810707165905332,2.3220730855611778,3.5191625754842613,3.7163770097095874,8.572908263497519
1570181109670372.0,6.435153841489457,3.1771456427913334,1.9676856478124036,1.665638612536121,2.2968287093336746,3.4619891488431755,3.714077671359393,8.535924748161118
1570181109670372.0,6.404548376720984,3.168653328176743,1.9661436072288114,1.6655744791294465,2.323536026147179,3.420596550638738,3.701043311271373,8.520939572389622
1570181109670372.0,6.3661146567253155,3.150794443408779,1.9619058703145371,1.6491604137090985,2.2819796151592375,3.3668633945164435,3.6741107696766937,8.521476002413083
1570181109670372.0,6.336792554599096,3.1368675830011408,1.9498694952882456,1.6471901795530937,2.2976083459021504,3.3319022789223713,3.6439932878579677,8.53016869145848
1570181109684445.0,6.293924314862695,3.1122776608071163,1.936916337694133,1.6302005016239784,2.244683196471265,3.2864788550533706,3.6052167435730857,8.53994708024377
1570181109684445.0,6.266135431351761,3.0955142512482685,1.9214475636205357,1.6300240003107422,2.252235692950652,3.2586881809259833,3.5722703162721197,8.547432481397557
1570181109692218.0,6.233136304296874,3.0742842065138745,1.9075532126924608,1.6166152917573364,2.199726362516784,3.2255021926522005,3.537926961319519,8.555021557342085
1570181109692218.0,6.220844028149852,3.0613250193341432,1.8906048794594428,1.6172523012048776,2.2131441681026605,3.2141495680603227,3.505760112442483,8.547432209175467
1570181109707211.0,6.208920809123244,3.038149487418336,1.875517906294629,1.6039020898787355,2.168368024491444,3.1998753847940042,3.467110807700026,8.519661791945994
1570181109707211.0,6.208057330689188,3.019324429295496,1.859036647828963,1.6065360492038272,2.184343688027572,3.2037407050959823,3.430901486272603,8.487132871842933
1570181109708398.0,6.18498055394134,2.992847104734613,1.8443599290847124,1.596582096757611,2.138109454241216,3.205317625032489,3.393735012568531,8.461521658578825
1570181109708398.0,6.167337043471686,2.9758273712673193,1.8273460866474833,1.6037371404696847,2.152372981035762,3.224612458776377,3.3691328089485784,8.4457639910169
1570181109730201.0,6.135592068736702,2.9559674603967796,1.813174199995278,1.5983366728882955,2.1093276742392635,3.2458401743722303,3.3520462101378197,8.440853120039893
1570181109730201.0,6.108650428814848,2.9484460684571583,1.799070863353249,1.6050560338280995,2.1264709502370107,3.282327750031134,3.3489990862271055,8.448622895673854
1570181109731100.0,6.064425978965438,2.934279711644383,1.790586521961125,1.5951732425116958,2.0898987504016917,3.3171512099521308,3.3412234186318694,8.46479906769027
1570181109731100.0,6.027704237972126,2.9239111710388093,1.7837460867875796,1.5974934094544577,2.1156875802192023,3.367117434967033,3.3216019909051004,8.46493468790421
1570181109744065.0,5.978547647039585,2.9050544393502347,1.7827582191900022,1.5852166180714062,2.088636910120844,3.4240913194110543,3.2845988244741604,8.45134731007295
1570181109744065.0,5.942180764558681,2.894187841482528,1.7813526786453429,1.5846978034310373,2.1190575917198617,3.4992652500420003,3.2493827817076766,8.440158516175202
1570181109752236.0,5.8976630479586545,2.8799237366452823,1.7809346057878082,1.5702615315442032,2.1008983460340156,3.58166367509612,3.2166886254147795,8.434017107750448
1570181109752236.0,5.864969125760947,2.8772673961471633,1.7797747127324528,1.5703752033606835,2.1414531566471684,3.677638561359535,3.197290036290151,8.423495751412027
1570181109768002.0,5.822675527505267,2.872853285926035,1.7832646119283988,1.559529626942702,2.1348079577393477,3.775287204694135,3.1838460988045565,8.415832660747942
1570181109768002.0,5.79482300194424,2.8800272074648494,1.7871117119054323,1.5638324530494323,2.1843960669164866,3.8572803059127456,3.176032936974572,8.415232172850168
1570181109768002.0,5.756907941709965,2.883240004719628,1.795129835550452,1.5564900272955933,2.1805610956898285,3.8937094208330003,3.1618319662786796,8.404188594544738
1570181109768002.0,5.729338677514027,2.8955458086710757,1.8040084534843732,1.5625230061417124,2.219934900763205,3.9152705943382657,3.150261239765611,8.37343605431369
1570181109790163.0,5.691393042683147,2.9023834305344467,1.818491210581336,1.5575167386680915,2.2011974396037015,3.926109088039864,3.1330341785188365,8.326568930492304
1570181109790163.0,5.6641365845606675,2.9147161809530706,1.8343781651803264,1.5671840410886182,2.2298859807407845,3.9384448447151255,3.115493137944788,8.263705812710212
1570181109790942.0,5.624511233519707,2.921199730098154,1.8500766692675015,1.5661203604624598,2.211159236886077,3.946330707801055,3.095100034933997,8.187053566593148
1570181109790942.0,5.596647603526136,2.93477924301458,1.8580114880283738,1.5791124632238411,2.245978706715003,3.9661031796930324,3.079176805975979,8.106210771487055
1570181109803953.0,5.564845281844751,2.9436689316842855,1.8640339734301934,1.5832005240406553,2.2311649672050935,3.982053659606361,3.0637572107469286,8.036357952450711
1570181109803953.0,5.550279957946819,2.961424985881628,1.868593531146415,1.6022027774505214,2.267216669475493,4.006524926206637,3.0572642084335957,7.977823391966642
1570181109812919.0,5.520611232623379,2.9657660039462077,1.8729491878099738,1.6135374303630916,2.256062703911533,4.018924121720421,3.0510330907638163,7.922339131463782
1570181109812919.0,5.494296731827324,2.964047113647461,1.8699069463667048,1.6373706006225757,2.2900878396944795,4.0302554422731305,3.04476586121746,7.863975045608318
1570181109827070.0,5.457063073522559,2.9483444291007506,1.8667928625747898,1.650142785189316,2.2703760340434247,4.030074395518352,3.0353675796630157,7.808826065333391
1570181109827070.0,5.4292757833035195,2.937269707241635,1.864915851224204,1.6750871473334348,2.2986582844857293,4.034386949757383,3.0330836764804223,7.74909196761529
1570181109835056.0,5.3913818980048855,2.920573486151147,1.8675813503470777,1.6868615321181746,2.2791882752900223,4.03134443817203,3.0310445318817205,7.681923065822783
1570181109835056.0,5.369897739123349,2.9121406520554265,1.8691227113386086,1.7027842789732335,2.310821382070668,4.038348316751071,3.030029749402531,7.618239622456192
1570181109850014.0,5.347452380691652,2.9018245183810705,1.873007740528495,1.7032619309610142,2.2948512604612232,4.037313333746382,3.0315048083394354,7.569181100803272
1570181109850014.0,5.341655193339558,2.9009128421229877,1.874392851508549,1.7152226662785677,2.3253729228908186,4.048421447055211,3.042235576170405,7.526176247309999
1570181109850790.0,5.320780467036411,2.891043283585312,1.8738832189748762,1.7124246517604915,2.306807842230546,4.061754851076374,3.054799758733292,7.464898657081632
1570181109850790.0,5.304846702213255,2.8853465499537525,1.8687133260906141,1.7171777391119707,2.337792736007513,4.095608266091916,3.074343283777551,7.385737644534439
1570181109864011.0,5.281822984753014,2.8738365863346176,1.8650388427431674,1.7121747051104677,2.3263573265116784,4.129537332070252,3.09824031419098,7.313965737244639
1570181109864011.0,5.270362238301415,2.8678909218304356,1.8593971742713062,1.7229309583699264,2.3658455726327614,4.166830399406742,3.1272688782417872,7.256678242035558
1570181109872732.0,5.243585123165181,2.8562905310520748,1.8541981662891778,1.7258950709444787,2.3581133042543216,4.191329318231027,3.161937307789401,7.212390346273824
1570181109872732.0,5.224032398796133,2.853373241712002,1.8482845198076399,1.7416859362251493,2.396779636196064,4.23085437610981,3.204213891380938,7.181835351778132
1570181109887682.0,5.198583529802598,2.8465500312834804,1.8478366522047949,1.7475567436453348,2.390295916934592,4.2753486001692345,3.2483790157447903,7.1683170190813685
1570181109887682.0,5.18583935934404,2.845508224189456,1.8476080196420792,1.7626014371692584,2.432440191931091,4.3325254286355595,3.2835586402725747,7.149843519822426
1570181109887682.0,5.15614588277598,2.8350436491894957,1.8502617261710683,1.760401558757229,2.4232421346134436,4.3600627953930875,3.2932445667420303,7.104556507680157
1570181109887682.0,5.128360334302583,2.8286215302330024,1.8534072602677956,1.7647321784391703,2.455045318679432,4.363374454336951,3.2929629191488226,7.043672966667629
1570181109909628.0,5.089997299018434,2.8156556559683157,1.8588153880232507,1.7529533885820785,2.433351179716789,4.340678130071665,3.2953040861738914,6.986196684755908
1570181109909628.0,5.06554811421395,2.808553052794161,1.8594528340802343,1.7491862066987822,2.4574565745790258,4.3294104891719245,3.3027925017182587,6.937112800066553
1570181109910646.0,5.034646746093905,2.7958690069122785,1.8582540582590636,1.734706336646555,2.436694109723963,4.309736184057556,3.3147628808122307,6.895617933810565
1570181109910646.0,5.016127460808293,2.7918941660710317,1.8535333889081622,1.735273976560544,2.4668240537420356,4.296385205234216,3.333795036888086,6.858582978198318
1570181109924579.0,4.989840285951365,2.7852574904170195,1.849208738751844,1.7278017010800573,2.448565399143018,4.265871661959365,3.352314620096121,6.834671349873397
1570181109924579.0,4.976901688452569,2.785547912079434,1.8417120879448177,1.7328158564970624,2.478724795598835,4.248150128513322,3.3724503026807593,6.8293451795243305
1570181109932558.0,4.962392041461177,2.778884647172724,1.8344113088666123,1.7229646284988678,2.4561273174242695,4.222374127723016,3.3838016039795757,6.847230711806837
1570181109932558.0,4.9641044246308255,2.775392127766128,1.82338427163995,1.7223033297430534,2.4768555228748927,4.206607662670429,3.3814396518707652,6.870116135104331
1570181109947519.0,4.953177343303627,2.7604898744941786,1.8120666523648137,1.7089024157004709,2.443802306755232,4.179504596347014,3.3684478646440423,6.867812232548061
1570181109947519.0,4.945532919147752,2.7465291822136333,1.7989768139625062,1.7063062048018638,2.460331411862975,4.169871007907464,3.3589015949007797,6.847584615341352
1570181109948516.0,4.926933771862506,2.7256530917406487,1.788621735396019,1.6938381938317013,2.4304427060340035,4.153984415759837,3.355984038380015,6.830431848315102
1570181109948516.0,4.917026046674086,2.712728605161833,1.7753098574448014,1.6956021461004729,2.453027285632972,4.1556160073556905,3.3652054495683696,6.80649958741909
1570181109970500.0,4.892669820179115,2.6975769796581863,1.7622284277742057,1.6873341047836077,2.4248247658222044,4.151754159362634,3.3791657937841713,6.769368410029425
1570181109970500.0,4.8744497868050685,2.6909025814469936,1.7461038338384998,1.690016633800859,2.4465255024521473,4.163671097232228,3.393872677519442,6.731531255725536
1570181109970500.0,4.844750825665633,2.677247141267286,1.7290683859976583,1.6786947863213022,2.4146911859352747,4.154934196231028,3.394691863022733,6.694230111847523
1570181109970500.0,4.818633228956931,2.666043861257572,1.7090101476098722,1.6781469518121706,2.429864778386042,4.1415456954335985,3.381107956550902,6.636501688346397
1570181109993586.0,4.778873955483791,2.6494361202726524,1.692581603366668,1.6678297822707662,2.3900686718921262,4.0941501664091735,3.3617839863788914,6.563736457506135
1570181109993586.0,4.749548686083497,2.6430340385359856,1.6773381653641934,1.669983962832727,2.3981970752381643,4.04786294701644,3.3503228238308145,6.492235250660723
1570181109994395.0,4.711126331006852,2.6373451721027625,1.6659164393492152,1.6602229325050921,2.354409970655903,3.9902130600813903,3.3418542993253615,6.42158234939657
1570181109994395.0,4.683694968445242,2.6439461168510445,1.6560239728999817,1.6608305144916466,2.3633428751502175,3.95498442702654,3.3380484885912773,6.348287232038647
1570181110007578.0,4.653292890875634,2.6527836590489393,1.651965276833275,1.6490862988740065,2.3198396821331784,3.913759525894304,3.338190017024094,6.27839551807802
1570181110007578.0,4.639518848167725,2.6748075228700423,1.6487943224835322,1.6492933164657402,2.325635734247878,3.8893682929265587,3.346513863274485,6.217184979031649
1570181110008359.0,4.623038052240406,2.6983961744649636,1.6495622700615995,1.638319862228908,2.276236649362583,3.856910230926084,3.3565680554485926,6.16606473790108
1570181110008359.0,4.61670512882051,2.7274907477330586,1.6508859507388627,1.638378454705087,2.2781319487856146,3.8464403120673394,3.3745569602094934,6.1169548449140985
1570181110038577.0,4.598242744176616,2.742114369754398,1.6542024712123682,1.6280560347481974,2.2299891417955053,3.83187690081171,3.4009939271394747,6.065825970673975
1570181110038577.0,4.58867957375949,2.7509029996323373,1.6540972972785404,1.6296615722854173,2.2382981172128384,3.839791292513489,3.4333703892572127,6.018964623231562
1570181110039276.0,4.573257036494329,2.7496853422519276,1.6530040411339277,1.6175505459085207,2.199038722365783,3.8417080966977513,3.4572731634541203,5.983083791902503
1570181110039276.0,4.574084825477325,2.7559461486318857,1.6488618226619955,1.6136451494193023,2.212424539924973,3.852689893485413,3.4770152002036476,5.956683952700979
1570181110053345.0,4.574567822108531,2.7613056384925176,1.6463199745908834,1.596172002814901,2.1739600757652466,3.839126965934001,3.492565639874214,5.939938704842426
1570181110053345.0,4.586184279373369,2.7750473744962796,1.642716216444096,1.589344559722144,2.1864623476631895,3.8353744938094327,3.502678638614349,5.929534602332083
1570181110054239.0,4.589509955247396,2.7893983147095622,1.641966194923043,1.5706006868045368,2.148668169728891,3.824271141569443,3.502766628863072,5.9197474325371156
1570181110054239.0,4.60349368784168,2.8149538941747556,1.6400230770869366,1.56296778260097,2.1633516924832206,3.8290029959968197,3.4990328892371685,5.9049660728232025
1570181110067330.0,4.604959024188311,2.829730113513081,1.6376866632651046,1.5436084609315308,2.1254913706439376,3.8213580043016964,3.4938290199619915,5.895154277138539
1570181110067330.0,4.6104171744317775,2.8340292105995046,1.632927337851753,1.5354210541875195,2.135582887744863,3.834407745708727,3.496470793425178,5.9004287311310195
1570181110068206.0,4.607505453678299,2.820634033471983,1.6292719056959928,1.515584514908888,2.095961166140519,3.8417867922178424,3.4996354594350043,5.9158824292901615
1570181110068206.0,4.612990049278816,2.8084366288936646,1.6204476619630515,1.5070334071556397,2.1072906764413233,3.8454343917976206,3.5032795072966327,5.9295006193527895
1570181110090139.0,4.60714817271277,2.7909584714080107,1.6094083227176887,1.4863078809271983,2.0623527967208464,3.8028255855513127,3.496350485683624,5.942270896320481
1570181110090139.0,4.607180496259603,2.7776738972529236,1.597328318525713,1.4747066297657585,2.0630576954029447,3.759091633355957,3.4829660492824805,5.957619456170815
1570181110090139.0,4.598242280262136,2.758585853884764,1.5890136470635543,1.4507726240799996,2.01219750417389,3.6990523584463206,3.4641702657128324,5.974740311732437
1570181110090139.0,4.595898068758856,2.7455588786104244,1.5795403068806981,1.4383706563131922,2.0108125719805106,3.651651414440664,3.450537758145368,5.9948748264527385
1570181110113297.0,4.580226977713835,2.726812022459984,1.5720018955347979,1.416015963343982,1.9581029243194135,3.5914832919484634,3.4368247203004163,6.012211848479501
1570181110113297.0,4.568233896532596,2.7112022226519623,1.5647926294774228,1.405263299704382,1.9562897347427264,3.551832814055085,3.4254405331165567,6.014058237319554
1570181110114078.0,4.543746921123123,2.689039979128049,1.561908627329657,1.3833757622811607,1.9082047326389215,3.502713977790667,3.410608544741585,6.011963147694933
1570181110114078.0,4.528257897571322,2.672617884232168,1.560643999706401,1.37336937284833,1.9139041941244053,3.4700630395645624,3.398696335301621,6.022793839701154
1570181110128039.0,4.506165775993097,2.6539540649195583,1.562819559349113,1.355968066098538,1.8743740851500006,3.424685688716535,3.385496890544993,6.051833127112345
1570181110128039.0,4.490460627774838,2.644066684718273,1.5632420062543793,1.353463109027816,1.8835246127510865,3.393946031363857,3.374151154363214,6.082432357451189
1570181110128039.0,4.460734062750229,2.6323490381123538,1.563126855034889,1.3452237135654925,1.8444602385536797,3.3503933328314446,3.3584499818706837,6.092489394728851
1570181110128039.0,4.435901156263407,2.6294945324703956,1.5609174943189381,1.3485206903871052,1.8513807982710062,3.325326500650951,3.343249285632797,6.084093122126235
1570181110150210.0,4.4030177758225,2.625317645618426,1.5596159865993602,1.3413512007152635,1.8123626954043972,3.2882949073799685,3.314754309114727,6.0660922592263296
1570181110150210.0,4.379852121844807,2.626266718788539,1.5539578262302272,1.3424098306612273,1.8206717735622955,3.2631118439127738,3.278533481806582,6.043307390817187
1570181110150985.0,4.349852235686001,2.6209298536693213,1.5480707700508556,1.3348415598182017,1.7848078075992935,3.2243199411499126,3.2348239131759913,6.016534933973408
1570181110150985.0,4.32766285477231,2.620295777687341,1.5420595989630757,1.3405702909700332,1.7960880508115962,3.201499470674988,3.1949479967895718,5.974285070544946
1570181110173177.0,4.295179616450243,2.615187813972338,1.539761601688501,1.3426305262105263,1.7689578622118085,3.1723831449687974,3.1507771441046466,5.920393609795704
1570181110173177.0,4.272332885249073,2.617727359304073,1.5360353369792197,1.356371004600231,1.790275062671865,3.1643922262353414,3.108154546958106,5.868067754787102
1570181110173926.0,4.245952669998387,2.621943894239461,1.5315661309573025,1.3601338025012806,1.7753756590172953,3.1446775272274277,3.0627974098738386,5.827779055584242
1570181110173926.0,4.234678584830501,2.636982653089633,1.5258130508917305,1.370605322777129,1.8074068693801073,3.1321339369209955,3.025551434899693,5.802699535331799
1570181110187878.0,4.22506780553485,2.653848607720876,1.5230438531664194,1.3706872621760706,1.8057533858407129,3.108330470813978,2.9913453785827615,5.791288991095882
1570181110187878.0,4.232126921535831,2.683264071597801,1.5198542403226296,1.3759461603528427,1.846032202427188,3.0998581333326376,2.962611329264371,5.784045986511099
1570181110187878.0,4.232474908055565,2.715827788764929,1.519185182990683,1.3717032143929875,1.8466906393824165,3.0844218875911507,2.9352237202012748,5.768694790113493
1570181110187878.0,4.241058752378566,2.7611445677298776,1.517902975467307,1.3772351325336876,1.8819030484159016,3.084518595972477,2.920272566569214,5.748310478298812
1570181110210165.0,4.249657889767708,2.812609757942744,1.517606041855051,1.3765839667546804,1.8776079570448823,3.0797028414311853,2.912037212541052,5.740887896016335
1570181110210165.0,4.277196372715376,2.8737868196281644,1.5142702002462,1.3844719884194256,1.910490821221611,3.0936551200985223,2.9046772579550537,5.74630494323094
1570181110210826.0,4.297674882467427,2.922443462361906,1.508683463452588,1.3858132602993911,1.902314503318654,3.104875770827734,2.879388588342989,5.742797616339138
1570181110210826.0,4.314197883041021,2.9576059634046645,1.5002111443403952,1.3983049195140491,1.9269617029860744,3.129420668814469,2.8493717212350256,5.7229976252527335
1570181110233987.0,4.3150678784442755,2.9748995889789374,1.4957840510025828,1.4077053829695483,1.913589853875078,3.148524469153709,2.8180677934326757,5.707856102229766
1570181110233987.0,4.327207750617979,2.9935208176670556,1.495380124115005,1.4267539699876453,1.9391115935455214,3.180480690415943,2.790580007549864,5.70333827773318
1570181110234772.0,4.338504642306085,3.0077682614452206,1.5013204466598224,1.441541198790328,1.9334125738467705,3.2101250583867253,2.761725446400103,5.695249663521768
1570181110234772.0,4.355597284508415,3.018825757411145,1.5033020550058207,1.4640292255434972,1.9672010174945782,3.2438028743044702,2.73631340664822,5.681731706170444
1570181110247718.0,4.356056980593937,3.01324836554903,1.4979963159677856,1.4763128503026186,1.959803529904353,3.2463498541593454,2.7133741153998625,5.6753528371521185
1570181110247718.0,4.3610643886819265,3.0062949623678237,1.4871868275655162,1.492384921490393,1.98331130136229,3.246962064107928,2.70046000280195,5.681315650990402
1570181110247718.0,4.360685626959591,2.994498023986297,1.4794411336679685,1.5007452447896812,1.967455179526812,3.2413323482791867,2.6920097368232785,5.696672815039856
1570181110247718.0,4.368221076990781,2.9883846941137624,1.4735831174640621,1.515136543145516,1.9862092990382085,3.244084510974046,2.6883003799182927,5.716596301256828
1570181110269659.0,4.364160893221176,2.97600812741778,1.4724994686141233,1.5234192765262968,1.967761254708863,3.2368336369878765,2.6810589452466846,5.742896817501735
1570181110269659.0,4.359634258675094,2.9654512403801956,1.4725635934464392,1.537374789121012,1.9855861458323476,3.2380937257979383,2.6750303825356716,5.7626469288501765
1570181110270657.0,4.339741281059127,2.9498177635467564,1.4713791264780873,1.538705879466788,1.9670501493438943,3.2272878003592638,2.6701381610341013,5.764743974807229
1570181110270657.0,4.326103855070323,2.940821626084237,1.4653133045975226,1.5435834558232813,1.9845223159646366,3.218415879459586,2.669481006599061,5.764561204610288
1570181110293444.0,4.304823620142127,2.9275387188690463,1.4596813302820424,1.5424639237132145,1.9635386031427289,3.1935829645438387,2.6724272575387444,5.778342676242724
1570181110293444.0,4.290373730001268,2.9165721173219414,1.4527550333655377,1.549029940177364,1.977495908137839,3.1757821330501024,2.683756433025794,5.8077895603622425
1570181110293594.0,4.2708605457103275,2.8995114411985323,1.447171740813755,1.5522414118757637,1.9556120052197383,3.151994280968331,2.6967778252525285,5.841306011272861
1570181110293594.0,4.262181320662656,2.888229814130088,1.4406756982305786,1.567293244515392,1.9699580523662117,3.140585347196658,2.7078322858291664,5.864523078986853
1570181110307563.0,4.240924812305148,2.8729550065560026,1.436194861026123,1.581905545338992,1.9503343971103178,3.1246041494851204,2.7210701389622747,5.880462818660401
1570181110307563.0,4.21957842016234,2.8636008011003526,1.430235115424884,1.6066568034759967,1.9669325088798875,3.1228863779920237,2.742207577379334,5.895011254164557
1570181110308556.0,4.187748035881244,2.8495337192360912,1.421807109588193,1.6260229207750858,1.9473141591359593,3.1202377204691265,2.763396956265623,5.908996081296295
1570181110308556.0,4.160880382069772,2.837791852048638,1.4089899351744575,1.6513859242444553,1.965070384790927,3.132092950270933,2.781321908137978,5.915873010954348
1570181110329686.0,4.124599430898868,2.8217332432067272,1.3977111149838315,1.6708167077861336,1.9538369248448264,3.1461493206746303,2.7952359265583877,5.914146329484649
1570181110329686.0,4.097865698344251,2.8130890838663047,1.3858343533808009,1.6949407069908957,1.9819878739426857,3.1790427529907483,2.8036947607890155,5.911929323989508
1570181110330499.0,4.064642910637977,2.799232902443693,1.3750395875036199,1.7130653478055478,1.9811709782489513,3.2199313867864863,2.8112277702940656,5.919056215874752
1570181110330499.0,4.040105804854383,2.7891984998616586,1.3650157990252092,1.7389670104145996,2.0192014871812933,3.2782664834794257,2.8262600133210785,5.9388643823310865
1570181110353692.0,4.011307912989814,2.7759434283532314,1.3593557887084018,1.7601490725713804,2.026593362358087,3.3295420640948477,2.847869752049955,5.9702687355493405
1570181110353692.0,3.997688482602581,2.770622239159403,1.3553754621178757,1.7878724128674748,2.062464563848095,3.3775884412899253,2.8729581444561183,6.016505659211455
1570181110353692.0,3.986338710170262,2.763264244844256,1.3555377030746518,1.8094314006950196,2.0544368177159065,3.4169711141227084,2.902880229586677,6.074646290911226
1570181110353692.0,3.985278588105815,2.7584441664409347,1.3575488837191747,1.8399450840408385,2.072143058430602,3.4668972575954085,2.933073827309659,6.11216623016133
1570181110367609.0,3.969845407892282,2.7466211005892283,1.361488506442957,1.8702367287942738,2.053027490311416,3.515054211975731,2.9614631913096447,6.106714346307468
1570181110367609.0,3.9527553410333782,2.7417481317328365,1.3642166026162743,1.9106610311387449,2.0689120274700294,3.569081444124136,2.9903600537356807,6.07447765393293
1570181110368398.0,3.9211169534020387,2.737077219023228,1.3692565827591217,1.9413687111632134,2.0504902914978875,3.6033466834300807,3.021720680539691,6.035669761696402
1570181110368398.0,3.8923125058700214,2.743384022164426,1.3766225345836567,1.9690672994836391,2.068269492503389,3.618291784240109,3.0525258231991437,6.000167026164969
1570181110390422.0,3.85299785643905,2.750289603763003,1.3874121242696549,1.9796656955158565,2.0504059077429617,3.6022088486175377,3.081291227614353,5.977801417420408
1570181110390422.0,3.821016391842235,2.763105381614862,1.3972776217356957,1.9925412230090698,2.061022858385501,3.581362824085743,3.1131080103211772,5.970695471106414
1570181110390422.0,3.7854933919521714,2.771633071288366,1.4084966228391897,1.9963156961496344,2.029316963840943,3.542301172326534,3.1539913475038506,5.975515999663591
1570181110390422.0,3.7626547572405222,2.783537320504689,1.418813448524449,2.003511510950063,2.0302760620353664,3.5087939796546976,3.197321045885891,5.983931278221396
1570181110413606.0,3.7369179714569003,2.7878286394239957,1.427986450644121,2.0002755606337947,1.993129786654577,3.4644705691759747,3.2420688210264283,5.987553270438724
1570181110413606.0,3.7202782328377073,2.794201182889637,1.4363275855309745,2.001877533732161,1.9922488661378985,3.4235182950457155,3.2898865618000848,5.988676897118778
1570181110414280.0,3.6979789652004293,2.797470603403379,1.4485901657462168,1.9909696797362126,1.959836113562315,3.372171089184209,3.3453400964923405,5.994437298013529
1570181110414280.0,3.684395787355034,2.8080640491260396,1.4624388936615762,1.98517168063474,1.9676336037057702,3.3368069283966113,3.405604512528235,6.001797481211212
1570181110428360.0,3.6627060011579036,2.8130787013144136,1.477075384728452,1.9683651062833722,1.9395579539705452,3.2988764893955875,3.4725436447745914,6.008455232223247
1570181110428360.0,3.65048537710894,2.819992507838495,1.4924235252518128,1.9599447752390249,1.9442394257382631,3.2729406189677053,3.5461727430218444,6.025490886101213
1570181110428590.0,3.638530215561867,2.8236069627145994,1.5105665604745275,1.941950825175367,1.914537718611619,3.2382793002515093,3.6149706177900525,6.0496315395804645
1570181110428590.0,3.6391313160379837,2.8326466816971547,1.5254353244049506,1.926491428946942,1.9226706546909438,3.214565592428095,3.650862346627782,6.061328361415695
1570181110450365.0,3.6356114705121354,2.8344054316585527,1.5398285682457524,1.897465480701248,1.9007277821194077,3.1824978928691303,3.655892170498419,6.068709733637504
1570181110450365.0,3.6405557439289153,2.838199219903079,1.5554188222581065,1.8788674207505354,1.9162902192049664,3.1581944549602494,3.6565360337549295,6.083088298220261
1570181110451176.0,3.6383369254428874,2.837833664816148,1.571181846236094,1.8521177683371153,1.8971820620664517,3.1229947872949646,3.6673037464853238,6.1050305724128515
1570181110451176.0,3.6412758250585355,2.8426635418529536,1.5856601196754812,1.8327813338872447,1.911492708986657,3.098491436904456,3.6875679539519597,6.135017860959926
1570181110473240.0,3.6348438859745857,2.843237103650421,1.6017618493117003,1.802236477634054,1.8965640336269147,3.0705109634233283,3.71664043496725,6.172482406870218
1570181110473240.0,3.634076816287267,2.850526160157479,1.6180012945396762,1.7816619222709755,1.9189839079176547,3.0576577486722085,3.7553861003081415,6.2254271447881875
1570181110474114.0,3.6294637773600167,2.8549918583438836,1.6374085361405808,1.7524873831227268,1.9106723933349574,3.043199866518493,3.800237995602842,6.301181548781488
1570181110474114.0,3.6348395824733855,2.8625917286946634,1.6573577092053002,1.7322990445565287,1.9353184808058952,3.0472100235485255,3.837996146001267,6.3693961716291625
1570181110487315.0,3.6306192215413358,2.8632999709018088,1.6778640432069132,1.7018210133471512,1.9271667391609675,3.048416687309449,3.8551096656348953,6.3945998930920736
1570181110487315.0,3.627778264017584,2.8641134461055597,1.6984947638982917,1.6816780641279547,1.9495218734798263,3.047671111593836,3.8565691729048863,6.397720451201131
1570181110488083.0,3.616199633243282,2.857283981366386,1.7202180476967353,1.6547772957555684,1.9365319759442734,3.0258024005554196,3.85601363346205,6.4073654602625085
1570181110488083.0,3.610724864794177,2.856171942041849,1.7413316787614925,1.6415805288559224,1.9498724713140987,3.0062203647543924,3.8565338871184696,6.414749765504042
1570181110510024.0,3.5999126052921855,2.8508068669923796,1.763996687782893,1.6233900403571104,1.9236919702664403,2.975911611722813,3.8548665169948895,6.41327587094784
1570181110510024.0,3.597555081564707,2.8455242942596364,1.7848820167663861,1.6160982843595397,1.9290936470160787,2.9490217530339597,3.8551075984918985,6.408048090835296
1570181110511018.0,3.593674290646482,2.832251794586957,1.8059385644201376,1.6002015912930134,1.9028375187644775,2.9129541074532312,3.8588869919115614,6.409404803457475
1570181110511018.0,3.602992461553029,2.8247056162469093,1.8277987174227361,1.5964504450137673,1.9092802503177457,2.889371305017299,3.8682297611887004,6.413315315815951
1570181110533190.0,3.6049468181109834,2.8126993169934518,1.8500959580140244,1.585170620650994,1.8825033863862324,2.8654124010195012,3.8749507110407015,6.4062350354268425
1570181110533190.0,3.6105989325066434,2.803770921626962,1.8652843434616329,1.5811903870851425,1.8875692576242011,2.852640502575363,3.876220483632982,6.395978637117553
1570181110534053.0,3.6125146215782986,2.7899660082262616,1.8702927891697305,1.5631498573796845,1.856900851839566,2.836625114767508,3.88075806159208,6.390020574451417
1570181110534053.0,3.6206339663372,2.782564356568464,1.864144197801871,1.5499608036299442,1.8562273641543303,2.829060550602906,3.8864252578373786,6.3803430329378275
1570181110556030.0,3.6160027336904297,2.770760305996633,1.851114421933,1.5254327024690322,1.823037623006933,2.817458182131209,3.8749842612259897,6.368796674645132
1570181110556030.0,3.615397864274413,2.7617432416705485,1.831730554703959,1.510007830545676,1.8244609140902197,2.8169636532089237,3.8606983449016483,6.3687234856266715
1570181110556030.0,3.6129241233139036,2.7473086139881913,1.812917957531558,1.4854587962507215,1.796358914430459,2.8201151563055684,3.8512950001807527,6.38169420042109
1570181110556030.0,3.6164047845013982,2.735108220216296,1.7963516982087104,1.4713604351502083,1.801413283909796,2.8340659062584983,3.8384869782956956,6.389806492678276
1570181110569864.0,3.6075512418012905,2.7134395547763854,1.7825270124363253,1.450543945613104,1.7775387027368275,2.8488186370070445,3.813612543572419,6.391342692436673
1570181110569864.0,3.6024215567921853,2.6933639747762483,1.7647879264322297,1.4409402182758788,1.78806294003685,2.8742896016453727,3.788088143575479,6.400539976867963
1570181110570855.0,3.591965478176866,2.669104917064836,1.7435384390059856,1.4246402286466773,1.769876577531174,2.9047889247386087,3.7681235352891385,6.413928109078898
1570181110570855.0,3.5885522311153646,2.65096171554462,1.7184529664508081,1.4196905172604977,1.7798942180983417,2.945818689044247,3.759746949351244,6.417756561197281
1570181110593794.0,3.5774831914276013,2.627289455819392,1.69331226845337,1.406349176687543,1.7595895010933946,2.9919306155673726,3.760646828916331,6.417117949127178
1570181110593794.0,3.569762380590815,2.6064133269130876,1.6683298274145442,1.4007115636264684,1.7716505939974658,3.0483028903234173,3.772624241111104,6.425645347482819
1570181110593794.0,3.5552835131564664,2.579778616925237,1.6470313891730877,1.3862684898009094,1.7583109703751925,3.1059597802798216,3.7924206519198695,6.443812274146903
1570181110593794.0,3.5479478246148504,2.5592492688296615,1.626705582234704,1.3821789831033429,1.7733055845451495,3.1609483104993434,3.815783755391022,6.458580959025134
1570181110606911.0,3.535598857090398,2.537910700776178,1.610579901553237,1.371507041749198,1.7591470247084258,3.2069725599010463,3.8240216606428086,6.468398057419535
1570181110606911.0,3.5318035280484614,2.522876505537812,1.5973393608465827,1.369487354405738,1.7728778817361455,3.253691368057063,3.819752613211004,6.484745387984065
1570181110614762.0,3.5234370510636697,2.501951218455351,1.5865046877578668,1.3576684261516947,1.7633344127957549,3.3016532407530232,3.8094528665529332,6.51209092318032
1570181110614762.0,3.5211812899155674,2.4855346172160813,1.5739157361028686,1.3536753822435932,1.7845729318729422,3.3543962461990846,3.802467267734113,6.545432806716366
1570181110629752.0,3.511967643704525,2.464610838486885,1.561066326820572,1.343015733250714,1.7850619251600455,3.4025047990494697,3.7930118770892842,6.581660168567372
1570181110629752.0,3.5079048844787266,2.449331528866828,1.548268684225362,1.3443809493022323,1.8130716125605681,3.4442225506163817,3.780577160239521,6.62534547069636
1570181110630695.0,3.4977127076380246,2.4311833154797537,1.5398525635262783,1.3426130670100422,1.8170433782796136,3.478433625012872,3.760317031521481,6.666725416547236
1570181110630695.0,3.494079417803154,2.417626540026411,1.5335125498360005,1.3521610626755687,1.8465069011815265,3.5173327915248924,3.7371772672933106,6.683457264571919
1570181110653711.0,3.487468727877706,2.40030765196793,1.532242631375244,1.3537116708014605,1.8536037312035751,3.5597678453472494,3.712137515972149,6.689478537495282
1570181110653711.0,3.4927128278713617,2.390624389868503,1.5358069814973803,1.3616897540993464,1.8860286952322538,3.601067627760586,3.6947880163597064,6.704910127623014
1570181110653711.0,3.497929314650921,2.3785941433664965,1.5445726265261364,1.3629435499243083,1.8961859950679496,3.6105181719302992,3.683514966126621,6.727083269536777
1570181110653711.0,3.5089659604623895,2.370180406989538,1.5538152172350386,1.3720389278932141,1.9301425150914475,3.5978130391748127,3.686372478273335,6.747913940101224
1570181110666641.0,3.507269873845486,2.3548705340347316,1.5627518483129665,1.3716679340317894,1.9436624355660894,3.579004535721962,3.699050373589829,6.755975799684753
1570181110666641.0,3.507739644112213,2.341477443704812,1.5675390635014868,1.3775583925980275,1.9868120760870225,3.573107740570407,3.721252322081252,6.748830520102293
1570181110675342.0,3.5020045062890865,2.3208846667614598,1.568598874583675,1.3735092096204575,2.0090442266218616,3.564203800799924,3.749287355095097,6.736681083928175
1570181110675342.0,3.497405930986196,2.3049256771734985,1.5642679092655307,1.373737880378415,2.041945569320491,3.550362820904877,3.7726352274509956,6.720281431613606
1570181110690549.0,3.4831662344798957,2.287272976484673,1.559731038773179,1.3663853472564649,2.0399847781658376,3.524437237940332,3.7699123020675676,6.697132811901655
1570181110690549.0,3.4766168144787915,2.276831342963828,1.5555903093359487,1.3698517655045679,2.0606807479577482,3.4992870618949565,3.758953965051302,6.678831850751702
1570181110690549.0,3.467762199739855,2.263634333895136,1.5532108468898558,1.3682122787882982,2.051837719096051,3.453380671859266,3.7477147744516506,6.67405695569049
1570181110690549.0,3.465835022185964,2.256592568694806,1.5510192740129642,1.3734785195001573,2.0606742816720605,3.403474267506874,3.7400884506101693,6.6812784896632955
1570181110713472.0,3.4576924994624294,2.2465967798702695,1.5500757767196243,1.368375324015034,2.0400013876669134,3.3507007064709895,3.7314654707371764,6.698243573984219
1570181110713472.0,3.455713985156306,2.2405949764647493,1.5478450082501187,1.3672718833820192,2.0442079736906242,3.3100828062851697,3.7262240129643804,6.712973500693719
1570181110713472.0,3.4507622589682745,2.229586420478173,1.5477071321484879,1.3561846629228547,2.0216313085442335,3.2671808434991307,3.718397957272326,6.721323923480058
1570181110713472.0,3.4573141926105198,2.2250565618888465,1.5496829711178985,1.3519827437788585,2.0251331014144354,3.232692144944081,3.7119355476678346,6.739644853457306
1570181110726438.0,3.464795405643289,2.219929801708999,1.5565101869334579,1.341988291577596,2.0018477183488024,3.197754106598156,3.7038075351962596,6.783229242458612
1570181110726438.0,3.4801828472220024,2.2220564948981814,1.5658530496915029,1.3400233893727764,2.0047832856888546,3.174059547730496,3.7050191655080176,6.8501744801405655
1570181110735419.0,3.488874175491399,2.218875617995509,1.5763108517966806,1.327486276699788,1.9822897594053255,3.148358443154464,3.707234592963686,6.9241995809858485
1570181110735419.0,3.5059760159913584,2.216508893193339,1.5849620369931805,1.3205196729151036,1.9898269189088593,3.129302030654403,3.7066016915484723,6.999764332335242
1570181110750431.0,3.5235040542608234,2.2099610440775805,1.5950871400692286,1.3059585778992626,1.969997289002652,3.1000520986626143,3.6857412323282657,7.065441590913164
1570181110750431.0,3.547715020284115,2.2121957863918187,1.6060728639836868,1.2985994458639145,1.9727741170167463,3.0737320358992477,3.6386290954366096,7.097758788494676
1570181110750431.0,3.5645477753975037,2.2129510949640525,1.6179055079779086,1.2848264475407571,1.9471098414430994,3.0452896767395106,3.563765462622158,7.108887998839707
1570181110750431.0,3.580182313836035,2.2168048871995776,1.6282931003882937,1.280240454550889,1.9484397117582615,3.0243732443573106,3.4858366426066363,7.1084748620604845
1570181110773585.0,3.5809260665627614,2.2145621479129187,1.6402228356721775,1.2694369470473328,1.9228791478384906,3.001135805835231,3.406483389588024,7.095150877000521
1570181110773585.0,3.581672931812021,2.213785924442433,1.6512685231630662,1.2636048866187524,1.9264222653618992,2.9868875035982407,3.333614128212059,7.079737903329577
1570181110774318.0,3.5751572931683957,2.2060522866027883,1.659900471994651,1.2494236861658512,1.9095252354379624,2.9734282966549572,3.260939343928375,7.066920894107306
1570181110774318.0,3.5754021892659735,2.201948541325197,1.6621393013685168,1.2440076336464707,1.922149173340198,2.9679523409154123,3.1994808984366725,7.056898035432826
1570181110786286.0,3.5685652601478677,2.1916996889144884,1.6588541705327868,1.2331446596748015,1.905985513180437,2.9630135269664395,3.139166148271797,7.050609495035134
1570181110786286.0,3.5644375907071493,2.182103740024361,1.6497621293760094,1.2311831358817986,1.9115678509283518,2.9655555018724775,3.0822405187748485,7.045921919958369
1570181110795282.0,3.556915024301835,2.1667345534435154,1.639307088976658,1.226805342940038,1.8914575008646028,2.9694068882122733,3.0214372434250816,7.044880185144047
1570181110795282.0,3.5551975204778725,2.15593319217019,1.6272165900687923,1.232792278903883,1.9002703682366273,2.98023058865927,2.9622489703673724,7.048322934494252
1570181110810264.0,3.5412883748813617,2.1405280151265615,1.6161084534068972,1.2330717234714763,1.8875736608180924,2.994055685195754,2.899420312547632,7.051805649161378
1570181110810264.0,3.5268664729949233,2.1293178798628483,1.606851673589478,1.2394243905716282,1.903740076565895,3.017431514506782,2.8470950104605826,7.053270997103646
1570181110810264.0,3.5037529600279975,2.1152985520614105,1.6023378198609366,1.2425799873830758,1.9013684403148734,3.0478887893112234,2.7991032998090963,7.052386019622465
1570181110810264.0,3.4841482076762476,2.1055965122962563,1.5976229799688912,1.2563049334933571,1.930614540036595,3.08512631267693,2.7575651058884563,7.050467141707793
1570181110833329.0,3.4584660629989368,2.090862987424691,1.5916419815313585,1.2669744870815824,1.9349941027499773,3.1114086410571784,2.7136877241719004,7.057328690698125
1570181110833329.0,3.441086438291183,2.081432401373549,1.5841447171791263,1.2834350156143284,1.948913204867563,3.120559977644253,2.675088207557309,7.082862972187046
1570181110834158.0,3.4232500585266394,2.0678447138734097,1.5803717693270005,1.294757022151647,1.9230167284388264,3.1222607400235747,2.6378937049005122,7.130471178662216
1570181110834158.0,3.4143417582382787,2.057271551193326,1.5806057094300658,1.312050360593082,1.9169694237308579,3.1292376503748645,2.608560572651345,7.185139372491472
1570181110847306.0,3.40031592515952,2.0437930942052143,1.5852531569291897,1.320598052606437,1.8850271740823583,3.140769367637877,2.581483917913045,7.2196883947846135
1570181110847306.0,3.39089839476994,2.0360771428958127,1.5885516224228264,1.3312640338306607,1.8799323956599476,3.160761814013173,2.5641849893960242,7.2260374329407195
1570181110855342.0,3.3745069321992776,2.023287762339263,1.5898214025087956,1.3370008030837508,1.8516117404221224,3.188177006554553,2.552599715869292,7.222106395612134
1570181110855342.0,3.3630806948266834,2.0150543590523995,1.5904114671676957,1.3502126287953604,1.8497425090072466,3.218925657550523,2.5505761228154613,7.226226796800465
1570181110870297.0,3.348443536955232,2.005956806303275,1.5945902847774094,1.3595256204653092,1.8266922260549552,3.250569966172159,2.5541736886270834,7.243624542801386
1570181110870297.0,3.34674914487297,2.0026436628023125,1.598958008333606,1.3754529613195137,1.8308640148540425,3.2803369917665925,2.565636374069184,7.277061575877895
1570181110871255.0,3.3451333784623007,1.995321262349803,1.6019564694111463,1.385339542948896,1.813563619531138,3.303454567942454,2.578146124452089,7.3133062491893455
1570181110871255.0,3.3442667886328854,1.992879461905688,1.603009894115633,1.3985347148564322,1.8221040837439992,3.3257426713333054,2.5944589808747187,7.325870186231526
1570181110893002.0,3.330745016708339,1.9876623503933484,1.6086001727498025,1.4033821648926055,1.8124817794216541,3.3517924047946845,2.6115462171676893,7.3278725601862345
1570181110893002.0,3.320150181377269,1.9886372151359726,1.6180883503994192,1.4110555796594186,1.829032240507647,3.379967226159738,2.6328944105153176,7.339619858363163
1570181110894106.0,3.305533242287216,1.9877767138632116,1.628570664426175,1.4120868384585972,1.828202565281133,3.41351660336372,2.657368993259023,7.361397608117038
1570181110894106.0,3.2987910074956583,1.9903818264324193,1.6367551262800453,1.4191578937803055,1.8541474705944212,3.4530981199325192,2.6851477328992903,7.391874337967607
1570181110907003.0,3.286319389342011,1.9851212022941997,1.645681508544928,1.4218132771740808,1.8641653059063332,3.500520696887439,2.716123137363424,7.4235616301414105
1570181110907003.0,3.280643662402957,1.9783254212123251,1.6509780262645277,1.4303057479059984,1.8939356000553407,3.552794191452693,2.7552683541768688,7.453584531096342
1570181110915157.0,3.274075684263677,1.9642539748387227,1.6530414090248688,1.4304944153478742,1.9042807708798608,3.613459593105308,2.8025718611043846,7.491464191950467
1570181110915157.0,3.2764067299621225,1.9530847351545015,1.653180622201118,1.4343798615739203,1.937218035373174,3.681830443734336,2.851939796917078,7.522958132669343
1570181110930115.0,3.2724524971455793,1.9348971209258807,1.6528230500222187,1.4328783587854448,1.9511915069597305,3.7596369569581967,2.8897763676253017,7.508195382305606
1570181110930115.0,3.2672244051213646,1.918796003891994,1.649622433880272,1.4375732918710962,1.9818752080816255,3.8400309538987623,2.9223980099366464,7.450539034036063
1570181110930903.0,3.2490725660412467,1.8994442477383233,1.6460637172538437,1.4358297588294526,1.9937340706814606,3.9222886998680684,2.9589059842048715,7.389409282642183
1570181110930903.0,3.231979336647239,1.8851092674440801,1.640637853217782,1.4385006602977666,2.026141366376919,3.996317003394109,3.001852860158827,7.339745399607382
1570181110953064.0,3.206152436493436,1.8679759418875697,1.6345848119005422,1.4316262231941659,2.0419006064759233,4.062735903606615,3.050646629142254,7.302232263122724
1570181110953064.0,3.1810719205010916,1.857026845736101,1.6277357489156195,1.4283405916737786,2.0788291576910147,4.1307756200873795,3.100795774044071,7.276067877760148
1570181110953843.0,3.146748327800104,1.8444180411184743,1.623436851683784,1.4203198381899174,2.101620766773065,4.212051019706772,3.146379008787173,7.255817229222804
1570181110953843.0,3.1168670143184705,1.834595150813896,1.6172780737306578,1.4202051468518557,2.152506542218194,4.306344906727926,3.18956989877327,7.229833238970709
1570181110975773.0,3.0837816975923587,1.8174824813779444,1.610478038605018,1.415395725419112,2.1901343433220863,4.399089802534836,3.229408484578801,7.1981573937275405
1570181110975773.0,3.0612701141547043,1.8041481723931914,1.6027463524028687,1.4170291125564365,2.234250696324984,4.457630410044769,3.2705630779402277,7.177636630140552
1570181110976770.0,3.038160620568028,1.7897181606892387,1.5950203391677706,1.4090540040014756,2.2322871092776086,4.461497032673013,3.3058318529103436,7.171896685565275
1570181110976770.0,3.0235913974514323,1.7816336566781819,1.585151568506151,1.4030175898880537,2.235069902572416,4.423993320681103,3.3246560503257956,7.170404435733428
1570181110989879.0,3.0087578868354834,1.768623924868435,1.5744486363975578,1.390188538134531,2.208950753335501,4.367660940152476,3.32989139095808,7.172875441674608
1570181110989879.0,3.0044313799688664,1.7557044829979662,1.5614503328976508,1.384437357635127,2.2035934505646653,4.3174496796070185,3.328566906832114,7.169433752257997
1570181110991048.0,2.9951217983878786,1.7368628935922148,1.548785673936723,1.372716797963941,2.1770262245331513,4.274948302099596,3.3157346721898855,7.150850500814823
1570181110991048.0,2.987609354883438,1.7232364780239713,1.535748798407635,1.3665730492542174,2.1743431507359547,4.243327556397187,3.3003940959300238,7.123127530331342
1570181111013696.0,2.9752047593388156,1.7086882574207998,1.524963767482152,1.3524446216557693,2.1444681530321454,4.213034137901847,3.289218970572681,7.09445280215584
1570181111013696.0,2.970684986789002,1.7000622330133945,1.5137409850466235,1.3441650212483114,2.13738763074955,4.1887845322437816,3.2880733585536817,7.065734437983201
1570181111013696.0,2.960398179943392,1.6884211003475091,1.5044307376136599,1.3305709685750085,2.1060241997459213,4.164487146241414,3.2906444812206557,7.032337737560197
1570181111013696.0,2.9514290866608444,1.6804362404078623,1.4961532507046842,1.3254514988351949,2.099509551835857,4.145242222644918,3.29088347245583,6.987285156215758
1570181111035721.0,2.9351477403739348,1.668474659959104,1.4898654676510719,1.3178101880031565,2.069926050669814,4.125607995555171,3.282681180794778,6.928320379065006
1570181111035721.0,2.9250719779253145,1.6617571065294314,1.4838838644456644,1.318878427707925,2.065737148741925,4.110983008299343,3.2730537065883807,6.858961882022101
1570181111036611.0,2.9111879203991795,1.655004765307555,1.4792077372296997,1.315329586397331,2.03586717889157,4.095473122018798,3.264256140855332,6.786651173696585
1570181111036611.0,2.90418556876386,1.6549456252721464,1.4733844684076505,1.3195780188848991,2.0329171445005696,4.090489689339261,3.2586662402508453,6.717579656958641
1570181111050578.0,2.896558878448867,1.6529933725212906,1.4693604162914637,1.3177840982600786,2.0081916335565095,4.090520562987705,3.2461594943996466,6.652803767910848
1570181111050578.0,2.8991833824165676,1.65639694940038,1.4642699249684497,1.3170062925396844,2.0083534059502473,4.099882566545469,3.2267429978226767,6.586633520071007
1570181111050578.0,2.899594070954144,1.660647304476096,1.4572574839238572,1.3060651721432635,1.982443758001026,4.113746092488275,3.1984264357819727,6.5138718092764245
1570181111050578.0,2.9049102224229917,1.6720833797011905,1.4479150645054815,1.3013456367131275,1.9815261321218753,4.136609074347231,3.1715441632402976,6.436517459735515
1570181111073563.0,2.9028910812665973,1.67827708268589,1.4413966539435725,1.2921443014280676,1.9597240421998015,4.159739550950954,3.1513168304101193,6.363527865691136
1570181111073563.0,2.8994921295022347,1.684584723687469,1.4378957038720939,1.2910393829852465,1.9659020983796223,4.187155877303757,3.144241647899644,6.301783426645528
1570181111073563.0,2.8851465971742574,1.6854579109606609,1.4383141501923788,1.2864213589970106,1.9513091705399954,4.209733392706773,3.143360298507517,6.254882104966909
1570181111073563.0,2.874396203043856,1.6886785692502475,1.4392762764260565,1.2878041968280232,1.9638064799261268,4.236879083845187,3.147254694957207,6.222574611784425
1570181111095645.0,2.857040577121378,1.688270605472395,1.4408485603819683,1.2799398063148342,1.9559842681686348,4.267221884393626,3.1392547147913428,6.198921927377913
1570181111095645.0,2.835849809481626,1.6900305532927635,1.440780962568947,1.2754223486763137,1.9734083525336852,4.3045858937340356,3.10886823902703,6.166136372977556
1570181111096458.0,2.8032481352909464,1.6871123212185621,1.4408367656539756,1.265313417541867,1.970653941088168,4.345636263421758,3.065373855378453,6.117569572383122
1570181111096458.0,2.776189644556815,1.68799557255969,1.4416833509896438,1.260592007603332,1.9953432231519341,4.40429000774515,3.029860992379857,6.059188775371219
1570181111109417.0,2.746677727078497,1.685586484732894,1.4453940667779357,1.2502606199156732,1.9999754949872584,4.4574667510291786,2.9996412269092714,5.998843691370051
1570181111109417.0,2.725488898685195,1.6835504706676974,1.4487933586136774,1.246361828076867,2.0232927215532386,4.477555298736057,2.9787977693561043,5.947665658190061
1570181111111011.0,2.7039353673316358,1.674354252885814,1.4514564086203159,1.2370464581281395,2.0105268716510993,4.4490974061621085,2.965540951498986,5.909936612262748
1570181111111011.0,2.6905619499198656,1.667494744648917,1.4489903625407936,1.235737947356753,2.010101450485658,4.404267064559157,2.963119692671536,5.884316642415978
1570181111133573.0,2.674401773649842,1.657416012336974,1.445273823062776,1.2318801552976502,1.9814181624009861,4.353562174378967,2.967841187342175,5.867152600431152
1570181111133573.0,2.665977984342852,1.6479836598730297,1.4410780077003285,1.2343566401886585,1.9763940618550637,4.31074677247749,2.9800558053334436,5.84985628573528
1570181111134353.0,2.6590614256239844,1.6326852862109553,1.4369364451687492,1.2326433409992035,1.9472714849887762,4.26025105631297,2.9866467688560205,5.833031990816661
1570181111134353.0,2.659046370314605,1.621855287069331,1.432274479568896,1.2391613102810408,1.9431958991379257,4.213820523457939,2.986742901368417,5.815977527972077
1570181111155512.0,2.6514605238198583,1.6108855613242539,1.4281424974423609,1.2428776940733086,1.916355466231033,4.16397916190993,2.9833956796481416,5.801999625643784
1570181111155512.0,2.646529108581188,1.6073596039665403,1.422172796337787,1.2502982275655976,1.917958773201764,4.124539896464096,2.9823509430520647,5.79443774334785
1570181111156296.0,2.638107537804437,1.6034352433763397,1.4174596377339872,1.2479751997769142,1.8976585813851237,4.086441434988149,2.9806957775016945,5.790126187755715
1570181111156296.0,2.6362177691625392,1.6025133435543988,1.414693701080507,1.2472652921380598,1.8993406135692612,4.06408762046828,2.982514691628987,5.7873045600643325
1570181111170310.0,2.631563661835901,1.5973059719134326,1.41390261474307,1.2414815240081236,1.8750862983530228,4.03713822540956,2.9756422259716766,5.786242716696704
1570181111170310.0,2.6300153231046304,1.595244839631183,1.4101527836982333,1.2443834369315159,1.8735506052325992,4.004741047175805,2.9538540779575895,5.794367880874474
1570181111170310.0,2.622524079883526,1.5924923670296893,1.406531878726078,1.2457798892297987,1.8489412248492603,3.9644716965202784,2.9212599931018617,5.807214060501582
1570181111170310.0,2.618277258346713,1.597743120466165,1.4035252903809896,1.2529899738848629,1.8530200244331227,3.94010042955434,2.888442898876051,5.811438172488425
1570181111193196.0,2.6086993238625746,1.6033445807075446,1.4018507794934374,1.2544266682822756,1.8371664850805849,3.9167152943639514,2.854066971753388,5.819807769806009
1570181111193196.0,2.601941796448632,1.610938085049205,1.4006158588306432,1.2591640511812048,1.842965978907836,3.8995465067743593,2.825767767244768,5.837733470494613
1570181111194188.0,2.592183206510485,1.6141854889681753,1.4031400235891023,1.2585256336724746,1.8205503135223235,3.881119573420888,2.8012583845560854,5.856286766382406
1570181111194188.0,2.590946350431901,1.6204269663323738,1.4072855902718346,1.2650903994394567,1.8192700866432838,3.878346193229513,2.7818239222264682,5.877964588399305
1570181111216181.0,2.591397039210541,1.6234869088626163,1.4121935394336382,1.2687122514637623,1.7978907934725392,3.8810243281778445,2.765202604922722,5.906480724053355
1570181111216181.0,2.6000811891489786,1.630719877268496,1.4158644821944513,1.275918282047031,1.803570845874914,3.8982919859289007,2.758434030724384,5.944054985690792
1570181111216181.0,2.608570450104713,1.6355591947116455,1.4193214124392883,1.2757468218139685,1.789456040992933,3.9175153965743776,2.7608368858946766,5.994414284767341
1570181111216181.0,2.6272930457950516,1.6415532322283586,1.4216669548343168,1.2791614572693335,1.8002558888216127,3.9472433871108654,2.773255931161568,6.064114486188948
1570181111230301.0,2.6528298666560852,1.6437412157790074,1.4255553776397643,1.2779679897488374,1.7922401621402058,3.9821147119617146,2.7926593375864854,6.147539273677377
1570181111230301.0,2.691012526108027,1.6494634053031476,1.4303649086141181,1.281238298110872,1.8089980899478237,4.033315338999154,2.8203557605556244,6.228432097720778
1570181111231215.0,2.727154567275956,1.6537750623298741,1.436539964427023,1.278652994627884,1.8056411856958081,4.084797370279411,2.849881087551991,6.301958846251069
1570181111231215.0,2.7623509241908804,1.6627655814981606,1.4392048837345384,1.2818112209214243,1.8243562475597384,4.132060455852123,2.8757444872808082,6.361153125778642
1570181111253253.0,2.7918221160128995,1.668668657616208,1.4385304516605717,1.2813464187778285,1.8189368333225922,4.141758359289866,2.895558988037116,6.409412754092982
1570181111253253.0,2.8277573149268926,1.6736362740189699,1.4363474685249094,1.2843899062147575,1.8273629711246162,4.121648700497459,2.9151267056151773,6.463733006793162
1570181111254031.0,2.8672383555976197,1.6714439539277965,1.4365176626501512,1.2823862067590526,1.809014516629582,4.078873518062887,2.927328302550728,6.515420244716571
1570181111254031.0,2.916842443388512,1.6695465879191458,1.4367070495315764,1.286727045412726,1.8102154759091553,4.034957921617158,2.9278054314193027,6.543381439563677
1570181111275969.0,2.9669454733313763,1.6619672523406934,1.4361492050392737,1.287450439876626,1.7898568366157979,3.977513715045347,2.924738727598481,6.562182083382826
1570181111275969.0,3.01340087829056,1.6551959423485358,1.4319698547560147,1.293710385230439,1.7936524977087323,3.9246593764388966,2.9277007694054142,6.589129643777055
1570181111275969.0,3.0419640352450057,1.646062458018789,1.4275197645152742,1.2929057932052028,1.7770198899148655,3.8691681949249004,2.9306106662909346,6.619795719356735
1570181111275969.0,3.065059730312917,1.6413700534764972,1.424075685706669,1.2936155258353956,1.7800207114937079,3.823866810632091,2.93279299285562,6.649998026470043
1570181111290165.0,3.0787453383766534,1.6364450506188861,1.4244826765588618,1.2892478466916437,1.7597246747266821,3.7704301791556576,2.935414288813033,6.6788431768174
1570181111290165.0,3.0900960426624104,1.6364822238114773,1.4257119520691943,1.2893867758269366,1.7603659798328306,3.7233761939689454,2.942285161131001,6.706419653618395
1570181111290930.0,3.093458584470541,1.633113349076613,1.4259411424288568,1.2830791515419124,1.7404290537519846,3.6717519782664167,2.952033500794163,6.728132100889074
1570181111290930.0,3.0978947987873955,1.6321305620359046,1.4256918390666677,1.279301055718552,1.740577248973415,3.631045734414681,2.9682912188685,6.74248230054431
1570181111313106.0,3.1014664715475626,1.6309586550848703,1.4282173818189974,1.2693476173218907,1.7202774888811672,3.588042219623664,2.9881881233513217,6.761457245460898
1570181111313106.0,3.112773644605113,1.6351198662021706,1.4286263693436563,1.2655319256842705,1.7234712462652422,3.5559466854947117,3.0079966574258634,6.785536335443437
1570181111313876.0,3.1213792325224405,1.6371258790800232,1.42653427701951,1.2581451058057909,1.7099235753131068,3.520252112188578,3.028142120252553,6.808126406874164
1570181111313876.0,3.1332091241477347,1.6411464585066626,1.4213243211515587,1.255689893634721,1.7179000059995004,3.49432688103364,3.0530450838677194,6.837676865241044
1570181111336080.0,3.144543428957857,1.639395701393254,1.4123665580863305,1.2490443734524064,1.7072786301394405,3.46415964848657,3.0828488379720227,6.886986588195916
1570181111336080.0,3.163827092489535,1.6377225311506423,1.399913455315075,1.2493221659879348,1.7187521334276865,3.442026122843315,3.117286389751384,6.948494522716721
1570181111336809.0,3.172760708334713,1.6352740262941592,1.3902457328501645,1.2468594884790776,1.7154243622863883,3.4191262172568657,3.15173673950892,6.991315317498021
1570181111336809.0,3.1691583909409413,1.6394760060044444,1.3837341585761584,1.2502341409834403,1.73438589995857,3.4100799011757577,3.1772758168439386,6.993808998940666
1570181111349815.0,3.1479293507400463,1.642158750838086,1.3823146547340597,1.2493963795847425,1.7392927579554918,3.3981054337023013,3.1816406872048177,6.968754621105778
1570181111349815.0,3.1263907763775833,1.645681178263882,1.3827701114621347,1.2513097234771196,1.7604846429476724,3.386461858639203,3.1745548395191716,6.938791842510929
1570181111357758.0,3.104043742320138,1.6461705613504263,1.3837302843677106,1.246042189664286,1.7516514628237176,3.354488246170755,3.1651374905856837,6.906388218049045
1570181111357758.0,3.088681341462129,1.652103726820264,1.3841557163527736,1.2456766592835549,1.753635310185034,3.320563481280544,3.157531032320486,6.868371561857441
1570181111373734.0,3.072462468874428,1.6583010564050598,1.3849896375226483,1.2418491041606512,1.7374504722492927,3.282725732691895,3.151111031210899,6.836286816243868
1570181111373734.0,3.0623514135351866,1.6679868213913596,1.3827036512175217,1.2439889518257605,1.7380816525519054,3.252941810201445,3.1461621237647415,6.808123032856896
1570181111373734.0,3.0457551670610035,1.6749022808831993,1.3804016460448225,1.2428284925805604,1.7186990960208648,3.216319306357246,3.1383280628677093,6.772405191921294
1570181111373734.0,3.0284381890737953,1.6819599074587672,1.3798301712344387,1.2451090269107739,1.7179933849523352,3.183882441507379,3.1341764337488405,6.731633173550722
1570181111395923.0,3.0037146365968956,1.6850543681266792,1.382156550367587,1.2420018132859245,1.7002560979187655,3.144967351484532,3.1355127352772594,6.690772026496083
1570181111395923.0,2.9816126993516305,1.693264002527421,1.3830165521621502,1.2425705283665376,1.702013268467264,3.1105849843518167,3.1401220486094163,6.6538517410622635
1570181111396661.0,2.958120497303212,1.7031054238305718,1.3827031365505054,1.2380653639214103,1.6899086089790452,3.0715187963115627,3.141914284506928,6.629286087822394
1570181111396661.0,2.9427193019777516,1.717776898391826,1.37977549947568,1.239879549843414,1.6986845223193998,3.03894171140843,3.1397148463134816,6.622964752897006
1570181111409760.0,2.9272083583526345,1.7266047951823613,1.3738043613887698,1.2391684455915564,1.6966944437576947,3.001216400261037,3.132453716972844,6.635600668568541
1570181111409760.0,2.920141157604996,1.7314525892029369,1.3634499878561712,1.2438238860513176,1.7161496469506676,2.970826825457645,3.128701644858701,6.650488883601465
1570181111410614.0,2.9117862328739075,1.7313889386224977,1.3536331987586376,1.2453218515808846,1.7216902892722725,2.9411764049075653,3.121546605333232,6.651306140557568
1570181111410614.0,2.9069692289729754,1.7350107329366853,1.3456627837206077,1.251090477637394,1.7411808283442267,2.9206529808797015,3.102398699718815,6.634861227773948
1570181111433665.0,2.893770577991331,1.734960008973867,1.3399006639409996,1.249490338918401,1.740497886310393,2.9001780867831863,3.07221061463805,6.600483048611818
1570181111433665.0,2.8830908864085556,1.7357012207435838,1.3342930901986834,1.2498569471921583,1.7506326831919132,2.888369974961326,3.0454101294036415,6.55781124564481
1570181111433665.0,2.872483243964833,1.734430565681641,1.33246337522783,1.2458369608886095,1.7434425205294708,2.876860719097118,3.0197821177006317,6.515627615432787
1570181111433665.0,2.867812146327491,1.736981997951504,1.334104408026599,1.2450972896090624,1.7531374470859273,2.870285809540774,2.994515158200825,6.4735815714628435
1570181111455823.0,2.8566096149463727,1.7356465540658519,1.3372738558425787,1.2364873683732533,1.7528406301634742,2.8664667774201273,2.9697996978128556,6.427824339615158
1570181111455823.0,2.842646689920755,1.733323964114738,1.3384130140455586,1.2306831194159213,1.7689678344082023,2.8712676957101553,2.9483141911914243,6.360297633787631
1570181111456489.0,2.8182729957109975,1.726847950591851,1.338406497505854,1.2211723341966179,1.770232306319295,2.882398259554035,2.930475443922491,6.2695137585114304
1570181111456489.0,2.7949269443315083,1.722275745167526,1.334719333919983,1.2183342368372352,1.783967114067924,2.903867044657463,2.919688797326301,6.17617401679655
1570181111469614.0,2.766325151472556,1.7137129107075904,1.3307484245487464,1.2145490872280083,1.780094426587803,2.935116216127149,2.908551168196562,6.094085096136937
1570181111469614.0,2.7412452756218415,1.7076582515179355,1.3271891209858968,1.2172548769311056,1.7877314542206948,2.977089341314845,2.90207140989442,6.029057169637804
1570181111478428.0,2.7140721874929405,1.7017049095493708,1.325044012667266,1.2165381364015726,1.7810288996003496,3.026724426376203,2.894036329446485,5.975830980035504
1570181111478428.0,2.694763302338727,1.702740925608175,1.3220654936020477,1.2217926458312207,1.7885768039372416,3.0821689732970428,2.8771830911718497,5.913684473152957
1570181111493388.0,2.674582724387711,1.7028286490866433,1.3189522592634806,1.2248427888940066,1.7846443075608347,3.147098454902401,2.858774859410708,5.84242116321662
1570181111493388.0,2.661052512650674,1.7046217106783854,1.3152720347812275,1.230276477847458,1.7959403438906094,3.220067810127528,2.851905547792647,5.777335203972485
1570181111494386.0,2.647454880047487,1.703074626611039,1.3124524989593607,1.2268955692432442,1.7977239567811796,3.3039899209207464,2.8529904555816232,5.719702885613082
1570181111494386.0,2.6402843385752353,1.7039458144502722,1.310289943644237,1.2244630205193063,1.8164006215906334,3.3961251830866623,2.8587674038552833,5.665974461565846
1570181111515526.0,2.631242008866936,1.7038210834775578,1.310318118134565,1.2175523293973853,1.8292326569414226,3.501168161247164,2.8683816447057393,5.624702494280603
1570181111515526.0,2.629139837051371,1.7076665115464673,1.3091602075015611,1.2162362695447337,1.8613248819652513,3.613191057635167,2.8855758852520466,5.599608999605143
1570181111517325.0,2.6237812897442043,1.7071777369289591,1.307534602106393,1.2129187879694976,1.8904850871147878,3.736270093412625,2.9064198894772812,5.573623298587525
1570181111517325.0,2.6180528313047113,1.7054378526482952,1.3039100877466185,1.2154912143670118,1.9355388766934996,3.8536848095144514,2.926141214162298,5.532156982969455
1570181111529441.0,2.605647395384749,1.6979308575456096,1.2993463508973062,1.214907610997588,1.9695931073464872,3.9495503556550777,2.941101290546578,5.485942239495955
1570181111529441.0,2.5972394707139776,1.6906116667501838,1.2922434962938132,1.2183909263406403,2.0081282455798477,4.022270749322709,2.957196135095651,5.443655959613228
1570181111538277.0,2.584341970055694,1.6789648101495045,1.2834660585238629,1.2162312346422297,2.0278116296091473,4.097506039976059,2.9746288400069125,5.409951186061353
1570181111538277.0,2.5728501167176283,1.6686299925839647,1.2717465029154396,1.2174748835297857,2.0561431275924025,4.183094295199054,2.995395308459644,5.379753730842098
1570181111553321.0,2.5577804841547866,1.6535009323121346,1.2602515882297243,1.2166962460350632,2.0783640467051554,4.280280626253749,3.0208567534861928,5.336331722164197
1570181111553321.0,2.547984793900744,1.6400372059960273,1.248350978361632,1.2218778827022914,2.115194146495817,4.363354741620303,3.0482342531087276,5.282786233792445
1570181111554224.0,2.531820968400769,1.6243569971362513,1.2371521897156486,1.223283449118917,2.1328909350099194,4.4151281607450175,3.071662875203643,5.226334742892032
1570181111554224.0,2.5149991917834242,1.6128703473144268,1.2265936314399457,1.2279042934742859,2.1494939900955945,4.4419514692184645,3.092659037869513,5.164528429641386
1570181111575177.0,2.4942246113629585,1.602446215639412,1.2176584965949322,1.2298142450099514,2.144008012476284,4.456813323238715,3.117356168224985,5.104968277675101
1570181111575177.0,2.4804207757459085,1.5991945838362736,1.2083572255790738,1.2377202375547092,2.150862942898584,4.4671253018321435,3.1490204001122852,5.057588780732634
1570181111577163.0,2.4685473251553844,1.596977309480401,1.2019606398288798,1.2424413015396754,2.1479077587554314,4.480906967707588,3.1841489384373176,5.025492936931698
1570181111577163.0,2.4653416686343648,1.6000209507785992,1.1987568332685525,1.250217605417947,2.1589032635396386,4.496750396800683,3.2237049580267856,5.0002497141024635
1570181111589435.0,2.459179835299132,1.602836611558702,1.1981450428292821,1.254129060142266,2.1507715056302663,4.511670784115336,3.269221238271669,4.974795585704977
1570181111589435.0,2.4576307579277366,1.6087088566864767,1.196165560449923,1.2618103674094323,2.149059747199643,4.5297162528538,3.3226758337245075,4.954459778132067
1570181111598109.0,2.4574950219567837,1.6107469908534933,1.1931002225701957,1.2621520456659716,2.1299621236536934,4.5585277089401295,3.367264119639333,4.944348158019276
1570181111598109.0,2.4609203412170784,1.612939092368526,1.1875784734828365,1.2624105327679054,2.1294557602361808,4.600635720001039,3.377555971275262,4.9392640524097295
1570181111613245.0,2.457766643600075,1.6099879797698031,1.1833701921467679,1.2561973989791346,2.1207124926133893,4.653928916888879,3.353378717823151,4.936242719669037
1570181111613245.0,2.458017372500459,1.6085012290462457,1.1816906099191213,1.2522059712032034,2.1303651305237143,4.71041511648262,3.3214746236156145,4.938026750106464
1570181111615062.0,2.455724152095231,1.6046919894066756,1.1829828517081136,1.2443142050986973,2.1257548963604243,4.763856896505383,3.296020933570729,4.942155870557393
1570181111615062.0,2.4546203722145847,1.6020277342126994,1.1840458133185958,1.2414527189599915,2.136993228951365,4.811687599581484,3.2730589393028153,4.948128047728144
1570181111636057.0,2.449007213692672,1.594146193927245,1.185431892438778,1.2356572446147387,2.138079703564005,4.841893256998654,3.2402087770545305,4.966156505937779
1570181111636057.0,2.450193176133944,1.5865768938899134,1.1864788791386418,1.235119528227743,2.155768738333385,4.866025750545006,3.2079149669987452,5.003058175953475
1570181111637007.0,2.4540787609276578,1.5738838073719033,1.185369046342381,1.228273856952386,2.1559703138180875,4.899356010746568,3.1809825552836766,5.056684852854201
1570181111637007.0,2.4629193658682964,1.561014478428524,1.1795985069444352,1.223463369456458,2.1684914710366026,4.939812937395177,3.1583805760250643,5.1163325308749
1570181111649168.0,2.464819077530981,1.5442788229456599,1.1739979238361482,1.2158758606429065,2.165784087336424,4.9822449990424325,3.1375615582416954,5.172832769581845
1570181111649168.0,2.467180256940144,1.5303537527882396,1.1684908878542146,1.2137598189517302,2.178877196265755,5.0337813490613375,3.121151812710819,5.231736171292469
1570181111657949.0,2.4680474486276385,1.5145173337160667,1.1644870607796778,1.2090471550565494,2.179109525237648,5.085401981725517,3.106003142635713,5.3066922505564085
1570181111657949.0,2.47666533192319,1.5027201468290832,1.160889213881193,1.20912890592254,2.1920737277160316,5.116440460974487,3.091694953385286,5.403991259539642
1570181111673134.0,2.486623681693872,1.4919342695830746,1.1556473612549205,1.2015782337670058,2.180335536067626,5.111359293730057,3.073053401717959,5.524331610850291
1570181111673134.0,2.4984194347865167,1.487930085962351,1.1468940981738278,1.1966407635782743,2.178418704559291,5.09751627729423,3.056926922442209,5.645438266301422
1570181111674899.0,2.502340897514784,1.4846190788649414,1.1376135784348156,1.189600031513694,2.16161805525472,5.092873628944199,3.0426614556410794,5.74251505075921
1570181111674899.0,2.509727590652151,1.4858116969393653,1.1268895373724521,1.1865036580715174,2.1626969165196055,5.1050191553792414,3.030888271524578,5.826422968470741
1570181111703057.0,2.514861849852546,1.4856301934486449,1.1155958511158937,1.1782709454825764,2.151235827276201,5.126146152035709,3.016531594087897,5.896498560441006
1570181111703057.0,2.517457664376339,1.4877973616824822,1.103001577731882,1.1733414301462608,2.1608527325309295,5.1568234503157555,2.997190238708659,5.945559166422955
1570181111704821.0,2.5155849582468655,1.4892015865040222,1.092168588966522,1.161847105799201,2.1594565552385068,5.192749660033501,2.9734175062582064,5.98990591142446
1570181111704821.0,2.520943001740117,1.496230044551174,1.083766843720917,1.1527273110397604,2.1769939043430337,5.242673996225333,2.9506561725245337,6.034121444665325
1570181111708838.0,2.523053281406277,1.5027633434402614,1.079624048133528,1.1409314386196039,2.184081616833507,5.2937749941455925,2.9285633896849266,6.070697801897079
1570181111708838.0,2.5211519577416093,1.5097006181513168,1.079517839849906,1.1359725533203884,2.210678945321774,5.3440406344809155,2.9101602684969348,6.083582774148063
1570181111717786.0,2.509935721081126,1.5110664864641152,1.0836275495203627,1.1293195543751355,2.225207246668658,5.386263183375221,2.888034896690702,6.067823427697578
1570181111717786.0,2.5017104815445097,1.5132168917705846,1.0878088521926241,1.128729238646623,2.259081333208173,5.426594630485622,2.8652851125646754,6.048450906350971
1570181111732970.0,2.492541762648579,1.510765066525926,1.0920620391349893,1.1234190826082022,2.2762312747021722,5.456662621081699,2.8466766470386613,6.041160512130711
1570181111732970.0,2.4883746046382185,1.507444518230296,1.0964150670486386,1.1197457813478566,2.2987392942163676,5.467223867700917,2.8385905945614613,6.039713579328489
1570181111734820.0,2.4827656323219047,1.5018983136594917,1.1012083644270094,1.111708500892467,2.2909248841441916,5.44017993688699,2.831155898458288,6.0410928007995714
1570181111734820.0,2.4809354177825353,1.5023241177144444,1.10419360812515,1.1063147208520676,2.2934117639683103,5.405880409501068,2.816897144814492,6.046758616102394
1570181111763686.0,2.475657283752043,1.5025369814891492,1.1059509233218194,1.0959711109425962,2.276871826076639,5.363581422651283,2.801662336962153,6.051695466025964
1570181111763686.0,2.4729346326618087,1.5029070129698467,1.1051552747257478,1.0897720714054984,2.2751134395560753,5.317095785319649,2.7949936149273813,6.0529828360560325
1570181111764896.0,2.4687165745406228,1.498373980589907,1.1032684333464415,1.0789763616436003,2.2552425837501135,5.262314568068033,2.795031745119496,6.053839384308835
1570181111764896.0,2.466310802980913,1.496185251063625,1.1003009685525684,1.0722656142072478,2.255149676600518,5.217136108864691,2.8006491286929207,6.0390377448095025
1570181111769647.0,2.4595204142917777,1.4943826973149517,1.0982385696343913,1.0649292060914326,2.2352281551444335,5.171486915940189,2.805404464735587,5.999932651451543
1570181111769647.0,2.4582697986794475,1.496810906497028,1.0967507672081336,1.064983874812577,2.2293240790746505,5.137298370164706,2.8091133316434367,5.955978039216945
1570181111778688.0,2.4559349426150665,1.4948951517154252,1.0955974991378505,1.066143421161878,2.202164793807022,5.104726092285879,2.813412600973821,5.924260917605627
1570181111778688.0,2.4591067985289863,1.4930126000364219,1.0956147608297737,1.0753422174343354,2.195474132515726,5.085870248641947,2.8225845483006835,5.896331017877016
1570181111793638.0,2.4637150168015407,1.4887092026312212,1.098910975977936,1.0819691651257468,2.1708393712707053,5.060944396876794,2.8340486885516984,5.856451287357635
1570181111793638.0,2.468905082229285,1.487478979411394,1.1020535326356231,1.086685593239617,2.1648979519097193,5.036804841399494,2.841675767823346,5.81107425888952
1570181111794716.0,2.462459089934342,1.4846432292323453,1.1044912208920028,1.0849233356671082,2.1398319417615252,5.001150376072245,2.844135824910131,5.770883768580903
