timestamp,emg1,emg2,emg3,emg4,emg5,emg6,emg7,emg8
1570180183620340,1,0,-1,4,27,11,8,1
1570180183620340,0,-1,-2,0,1,-1,0,-1
1570180183620340,-1,-1,-2,-5,-39,-9,2,-1
1570180183620340,-1,-1,-2,-5,-16,-10,-7,-2
1570180183624422,1,0,1,-2,-8,-7,-5,0
1570180183624422,0,-1,-1,4,18,7,7,1
1570180183628323,-1,0,-1,2,20,7,-1,-1
1570180183628323,1,0,-1,0,-4,3,4,1
1570180183630419,-1,-1,0,-2,-7,-2,-4,-1
1570180183630419,-2,-1,1,0,3,2,-3,-2
1570180183642319,0,1,1,1,11,4,4,-3
1570180183642319,-1,1,-1,-1,-3,-1,-2,1
1570180183654254,1,0,1,4,27,10,-1,0
1570180183654254,0,0,-1,-2,-16,-2,-1,2
1570180183662237,-3,-3,-3,-10,-39,-21,-5,-4
1570180183662237,2,0,1,-1,2,1,2,-2
1570180183669215,-1,-2,0,-1,-11,-1,4,0
1570180183669215,-1,-1,0,1,17,10,4,-2
1570180183695190,3,0,0,2,13,-1,-8,0
1570180183695190,-1,0,0,-1,5,-7,-4,-1
1570180183696143,0,0,0,-1,7,1,-6,-3
1570180183696143,-1,-2,-1,-3,-23,-13,-4,-4
1570180183713194,0,0,-1,-3,-2,-2,0,2
1570180183713194,-1,-1,-1,3,8,4,5,1
1570180183747004,-1,-2,-2,-3,-31,-18,-6,-3
1570180183747004,0,0,0,1,6,0,-5,1
1570180183748261,0,-1,-1,2,0,0,3,-1
1570180183748261,-1,1,0,-1,13,4,-4,0
1570180183751037,1,-1,0,-5,-14,-2,0,-1
1570180183751037,-1,-1,0,-3,-2,-3,0,0
1570180183751990,1,-1,0,1,1,-1,0,0
1570180183751990,0,-2,-1,-1,1,-1,1,-1
1570180183759021,-1,0,0,1,11,6,-2,-1
1570180183759021,-2,-2,0,0,-1,1,1,-2
1570180183765266,1,1,1,1,12,4,1,2
1570180183765266,0,-2,-1,0,4,2,0,-1
1570180183781134,-2,-2,-4,-8,-50,-23,-5,-3
1570180183781134,2,3,-1,-1,-1,-1,2,0
1570180183796074,-2,0,0,-2,-3,-1,-4,-2
1570180183796074,1,-1,1,2,23,6,2,2
1570180183796877,-1,0,-2,-1,0,5,0,-1
1570180183796877,0,1,1,-2,2,1,8,1
1570180183819072,-3,-2,-3,-5,-21,-10,-10,-4
1570180183819072,1,0,-2,-1,-8,-4,3,3
1570180183820913,0,-1,1,4,18,4,0,1
1570180183820913,-1,-2,-1,1,-2,2,1,0
1570180183841751,2,-1,1,0,24,6,0,0
1570180183841751,-2,-1,-1,-3,-32,-10,-6,-3
1570180183843742,3,1,1,1,21,10,6,4
1570180183843742,0,-1,1,1,6,0,-2,-2
1570180183855843,-1,-1,-2,-5,-18,-7,-1,-3
1570180183855843,-1,0,0,-1,-7,0,1,0
1570180183865025,0,0,2,2,12,1,-2,-1
1570180183865025,-1,-1,-2,1,2,1,-2,-1
1570180183879646,1,-2,-2,0,2,3,2,2
1570180183879646,-1,0,-1,-1,3,-4,-5,-2
1570180183880724,-3,-2,-1,-2,-12,-4,5,2
1570180183880724,-1,-1,1,0,16,4,0,0
1570180183901590,-1,0,-1,-2,-32,-7,1,-1
1570180183901590,-1,0,-1,-2,3,-4,-3,-2
1570180183903583,0,0,-1,2,6,2,-4,-3
1570180183903583,0,-2,-1,1,-2,-2,-1,-2
1570180183915553,-1,0,1,3,17,6,2,1
1570180183915553,0,-2,0,0,8,1,2,0
1570180183925236,-1,0,0,-2,-8,-2,-5,0
1570180183925236,-2,0,0,-1,-4,0,2,0
1570180183939646,-2,-3,-3,-3,-7,-6,-3,-4
1570180183939646,0,0,-3,-1,-3,-2,-4,-3
1570180183940842,-1,3,1,3,12,4,2,0
1570180183940842,1,1,-1,-2,-14,-5,-5,0
1570180183961632,1,0,-1,1,21,4,2,1
1570180183961632,-2,-1,0,-1,-18,-2,0,0
1570180183963469,-1,-3,-2,-3,6,4,0,-2
1570180183963469,1,-1,0,2,-3,0,-5,0
1570180183975391,-2,-1,-1,-3,-8,-4,1,-5
1570180183975391,0,-1,-1,-1,-1,-6,-4,2
1570180183984514,0,-1,0,-1,2,-1,-2,-3
1570180183984514,-3,-1,-4,-1,1,-2,0,-1
1570180183999326,-1,0,1,3,10,4,-1,2
1570180183999326,-1,-1,-2,0,1,1,4,-1
1570180184001388,1,-1,-4,-4,-4,-6,-4,1
1570180184001388,1,-1,-2,-6,-3,-3,-1,-2
1570180184021271,2,1,2,3,9,3,-3,0
1570180184021271,1,-2,0,-3,-31,-4,2,1
1570180184023265,0,0,1,1,14,4,0,1
1570180184023265,-1,-2,-3,-4,-22,-11,-6,-4
1570180184035465,0,-1,-2,-2,4,-3,-1,0
1570180184035465,0,0,-1,1,13,8,2,-3
1570180184044208,-2,-2,0,2,0,1,1,-3
1570180184044208,-2,-1,-1,-2,1,2,-3,1
1570180184059175,-2,-1,-1,0,-2,1,-2,1
1570180184059175,0,-1,0,3,14,7,2,0
1570180184061256,-1,-2,-3,-4,-22,-11,-5,-2
1570180184061256,-2,-3,-1,-2,7,2,-1,-1
1570180184082109,0,-1,1,-2,-9,-3,1,1
1570180184082109,0,0,-1,-5,-6,0,0,-1
1570180184083224,3,1,1,3,19,2,-3,3
1570180184083224,3,3,3,4,-10,-2,-2,-1
1570180184095408,1,1,-2,1,0,2,5,2
1570180184095408,-1,-3,-3,-3,10,4,-4,3
1570180184104100,0,-1,-2,1,-7,-2,2,-1
1570180184104100,-2,-2,-3,0,5,-1,-8,-4
1570180184119197,-1,-2,-4,-7,-18,-6,-4,-2
1570180184119197,0,3,4,2,-6,-6,-3,-3
1570180184121001,1,3,4,3,5,5,2,-1
1570180184121001,-1,0,-1,1,6,1,2,-1
1570180184142129,-1,-1,0,0,1,1,2,-1
1570180184142129,-1,-2,-5,-2,2,0,2,-1
1570180184142944,-1,-3,-1,-1,-3,-2,-1,0
1570180184142944,1,2,0,1,-5,2,2,0
1570180184154914,-3,0,-4,0,5,-1,-2,-2
1570180184154914,-1,0,1,0,-5,-2,-1,0
1570180184164883,0,-2,-2,-4,-2,0,-2,-2
1570180184164883,0,-2,-1,0,11,5,3,3
1570180184179006,-2,-3,-4,-5,-28,-7,-1,1
1570180184179006,-1,3,4,2,0,-6,-3,2
1570180184185883,-2,0,-3,-2,-7,-2,0,-3
1570180184185883,-1,0,0,-1,3,-3,0,2
1570180184201995,-1,-2,-1,-1,9,5,1,-2
1570180184201995,0,-1,-1,2,11,3,-1,-1
1570180184203219,-1,-2,0,-2,-8,0,-1,0
1570180184203219,0,0,-1,-4,-14,-4,0,0
1570180184215916,0,0,1,3,-1,-1,-4,0
1570180184215916,-2,-3,-3,-1,1,2,5,-2
1570180184224770,-3,-1,-1,0,14,2,-1,-1
1570180184224770,-1,-3,-4,-3,-9,-2,0,-4
1570180184238689,2,3,5,2,0,-3,-4,0
1570180184238689,0,0,0,1,3,-2,-7,-3
1570180184246720,0,0,-1,-1,-1,-2,-2,0
1570180184246720,0,-1,0,-2,-3,1,3,-1
1570180184260848,1,-2,-2,1,10,3,0,-1
1570180184260848,0,0,0,0,3,3,3,-2
1570180184269605,-2,-4,-5,-4,-12,-6,-2,-2
1570180184269605,0,0,2,-2,-2,-2,0,0
1570180184284766,0,2,2,3,6,0,0,-1
1570180184284766,-1,1,0,-1,0,1,1,0
1570180184285566,0,-2,-1,0,8,3,-2,1
1570180184285566,-1,-2,-1,-3,-5,-2,-1,-2
1570180184299722,-1,-3,-2,-5,-8,-4,0,-2
1570180184299722,-2,-5,-3,-3,-7,-3,0,-2
1570180184301582,0,1,2,-1,2,1,1,1
1570180184301582,0,1,0,3,6,2,-4,-2
1570180184321660,2,-1,0,2,6,2,1,2
1570180184321660,-1,0,-1,-1,2,-1,5,-11
1570180184323463,-4,0,2,-1,-3,3,10,-13
1570180184323463,0,-2,-1,0,-1,-9,-14,2
1570180184344587,-1,0,-1,-4,-12,-1,-1,-1
1570180184344587,-4,-3,-6,-1,3,2,6,-2
1570180184345405,1,2,3,6,10,5,4,1
1570180184345405,1,0,0,-6,-7,0,1,0
1570180184359372,2,5,8,7,1,-3,-4,-2
1570180184359372,3,0,2,1,-4,-2,-5,4
1570180184360361,-1,-3,-5,-4,3,2,-1,2
1570180184360361,-1,0,2,3,0,-1,1,1
1570180184381518,-5,-5,-4,-3,0,-3,-1,0
1570180184381518,0,1,1,-4,-14,-4,-4,-2
1570180184383306,-2,0,0,0,-2,-1,0,4
1570180184383306,-4,-2,-3,-2,2,1,3,-2
1570180184404298,-2,-3,-4,-2,3,2,0,-1
1570180184404298,1,-1,2,4,3,1,-2,1
1570180184406241,0,-2,-2,-3,-9,-4,-4,0
1570180184406241,0,-1,-1,0,6,0,0,0
1570180184418468,1,-1,0,-2,-2,-4,-3,1
1570180184418468,1,-1,0,-2,-12,-5,-2,2
1570180184425394,-1,-2,0,-2,0,-3,-5,-1
1570180184425394,1,-1,-1,1,5,3,3,-1
1570180184442195,0,0,-1,2,9,4,2,0
1570180184442195,1,1,0,1,3,0,-4,-1
1570180184443222,-3,-2,-1,-3,-8,1,3,0
1570180184443222,-2,-2,-1,-2,-7,-3,-4,-4
1570180184464109,-2,-1,-2,-3,-2,1,1,-3
1570180184464109,0,-1,-1,0,2,-1,-1,4
1570180184466081,0,0,1,2,6,2,-1,-1
1570180184466081,0,2,-1,0,-4,-2,0,1
1570180184478046,-1,0,0,-1,-1,-2,-1,1
1570180184478046,0,0,-1,-1,1,-2,0,-1
1570180184485028,1,1,0,-1,-1,-3,-2,1
1570180184485028,-1,-1,-3,-1,3,-1,1,-1
1570180184501983,0,1,0,0,0,-2,-1,-3
1570180184501983,-2,-1,-2,-4,0,1,-1,1
1570180184503173,1,1,-1,-2,-9,-4,-3,3
1570180184503173,0,-2,1,-1,-1,2,2,1
1570180184524110,-1,-2,0,0,-1,0,1,-2
1570180184524110,0,-1,-2,2,5,0,-1,1
1570180184525918,-1,0,1,1,1,-3,-4,-1
1570180184525918,-1,1,1,-1,-2,1,2,1
1570180184538992,-1,-3,-2,-1,-3,-1,-1,2
1570180184538992,-1,-1,-2,1,7,3,-1,-1
1570180184544874,-1,0,0,2,8,1,0,0
1570180184544874,0,-1,-2,-5,-19,-4,2,-3
1570180184561952,2,0,2,-1,-4,-1,-1,-2
1570180184561952,0,1,1,-2,-3,1,-2,0
1570180184562821,1,-2,-2,1,4,4,2,0
1570180184562821,0,-1,-2,0,6,-1,-4,-1
1570180184583764,0,-1,-4,-2,0,-1,4,3
1570180184583764,-2,-1,-2,-1,-4,-2,2,0
1570180184585760,1,1,1,1,1,0,-1,1
1570180184585760,-2,-1,-1,2,7,1,-1,-1
1570180184598726,1,-1,0,-2,0,-2,-2,-3
1570180184598726,-4,-3,-2,-3,-8,-10,-12,-3
1570180184605706,0,0,-2,0,3,3,6,1
1570180184605706,2,1,1,1,-3,0,0,0
1570180184621668,0,-1,-2,-2,-1,-3,-6,0
1570180184621668,1,-2,0,-1,-1,0,2,-1
1570180184623657,-1,-2,-3,0,-4,-3,-4,-3
1570180184623657,0,2,0,1,6,1,-1,2
1570180184644601,-2,-1,-1,-1,0,1,2,-1
1570180184644601,-1,0,-1,-1,-5,-1,2,0
1570180184645649,-1,0,-2,-3,-4,-1,-1,1
1570180184645649,0,-1,-1,1,-1,-1,2,-2
1570180184658566,0,-1,-2,-1,-3,-3,-1,-4
1570180184658566,0,0,-1,0,0,-2,0,-1
1570180184665547,-1,-2,0,1,2,0,1,-2
1570180184665547,0,0,0,0,6,0,-1,-2
1570180184681507,-2,1,0,-2,-5,-4,-1,-2
1570180184681507,-1,-2,-3,-5,-11,-4,-1,-3
1570180184683498,-1,0,-2,-2,-1,-3,-1,-4
1570180184683498,-1,-1,0,-1,-2,-1,1,0
1570180184704450,2,1,-1,1,4,4,1,-2
1570180184704450,-1,-2,-2,1,8,3,5,0
1570180184705439,1,0,-1,-1,-9,-1,-4,5
1570180184705439,-2,-2,0,-2,0,0,0,0
1570180184726383,0,1,0,0,2,1,-1,-1
1570180184726383,0,0,1,-1,4,2,-1,-1
1570180184728730,-1,-2,0,-1,-3,0,2,-2
1570180184728730,-1,0,-3,-1,0,0,0,1
1570180184740346,1,-2,-1,-1,-3,-1,0,1
1570180184740346,1,-1,-1,0,-2,-1,-1,-2
1570180184749329,-1,-1,-3,-1,1,-2,-4,-2
1570180184749329,-4,-1,-1,-2,0,0,7,-9
1570180184764290,-4,-3,-3,-2,-1,0,6,1
1570180184764290,-1,1,0,-1,-2,-1,0,-3
1570180184765623,1,-3,-1,1,2,-1,-2,3
1570180184765623,2,0,0,0,-1,-1,0,2
1570180184787235,-2,0,-1,-2,-1,-1,0,-3
1570180184787235,-1,-1,0,2,1,2,1,2
1570180184788356,-1,1,2,-1,-2,-1,2,-4
1570180184788356,-1,1,1,0,-2,-3,-3,-3
1570180184809343,6,2,2,2,2,2,-2,8
1570180184809343,0,0,0,0,1,1,1,3
1570180184811164,-1,-1,-2,-3,-1,-4,-5,-3
1570180184811164,-1,-1,0,1,-1,-2,-4,0
1570180184832270,1,0,-1,0,0,-1,-1,-1
1570180184832270,1,0,0,0,-1,-2,-1,-1
1570180184833657,3,2,2,2,2,1,0,2
1570180184833657,-1,-4,-3,-3,0,1,-1,1
1570180184854078,-2,-1,-1,1,-4,-1,1,0
1570180184854078,-1,-1,1,0,-1,1,1,-2
1570180184856037,-2,0,-2,-2,-1,-2,-4,-3
1570180184856037,0,-1,-2,1,0,1,0,2
1570180184869006,-2,0,-2,-2,0,0,0,1
1570180184869006,-2,-1,-1,-2,-3,0,-1,0
1570180184875441,1,2,0,1,2,4,6,4
1570180184875441,-1,-1,0,-1,-3,-3,-6,-1
1570180184884144,1,-3,-1,0,0,-1,-2,1
1570180184884144,0,2,1,0,2,0,-1,-1
1570180184890234,-3,-2,-2,-2,-2,-1,0,-6
1570180184890234,1,0,-1,0,-3,0,3,1
1570180184906926,-2,2,0,0,-2,-3,-2,-4
1570180184906926,0,-2,1,0,3,0,-3,-1
1570180184908006,6,1,1,1,-1,-3,-13,18
1570180184908006,1,-2,-3,-1,0,1,1,11
1570180184929847,-2,0,-1,0,-2,-2,-1,-2
1570180184929847,-2,-4,-4,-2,-2,-1,-2,1
1570180184930837,-2,-1,-1,-1,1,-2,1,-4
1570180184930837,0,2,1,2,1,0,1,-1
1570180184944029,0,0,-1,0,-1,0,-1,-1
1570180184944029,-2,-1,-2,-3,-2,-2,1,-3
1570180184950855,-8,-5,-4,-4,-4,-5,-1,-15
1570180184950855,-1,1,2,0,0,-2,-3,-3
1570180184966940,3,1,2,2,2,2,2,1
1570180184966940,-2,0,0,0,0,1,-2,-3
1570180184968735,-2,-1,0,0,-1,0,1,-3
1570180184968735,-2,-1,-2,0,6,-1,-2,-3
1570180184989808,-1,0,-1,-2,-8,-6,-3,1
1570180184989808,-1,-2,-2,-1,-5,-3,0,1
1570180184991682,0,1,1,1,1,2,4,4
1570180184991682,-2,0,0,-2,0,-1,-1,-4
1570180185002884,-3,0,0,0,5,0,-1,-4
1570180185002884,-1,-1,-2,-5,-7,0,-1,0
1570180185011673,-2,-2,-2,2,-1,-1,5,-5
1570180185011673,3,2,1,4,2,-4,-5,4
1570180185026809,0,-1,-1,0,5,6,-2,-1
1570180185026809,0,-1,-2,-1,-12,-3,0,2
1570180185028657,1,-2,-2,0,2,3,0,3
1570180185028657,-1,1,-1,-9,-17,-3,-1,-3
1570180185049651,-1,-1,-2,5,6,-1,-2,0
1570180185049651,0,0,3,2,17,0,-2,0
1570180185051038,3,1,2,-1,-4,-1,0,0
1570180185051038,-1,-2,-1,0,-4,0,0,-1
1570180185063496,0,1,-1,-4,-4,-2,-2,-1
1570180185063496,-2,-3,-3,-2,-4,1,2,-4
1570180185071460,1,-1,-1,1,1,-1,-3,-4
1570180185071460,-1,0,1,-2,-11,0,-1,3
1570180185086579,-1,0,-1,1,10,-1,1,0
1570180185086579,0,2,0,2,2,-2,-3,-3
1570180185088755,-1,0,1,-1,-5,-3,-1,-2
1570180185088755,0,-2,-1,1,5,9,3,-1
1570180185109740,-1,-2,-1,-2,-3,-1,0,-2
1570180185109740,2,1,0,-1,-6,-2,0,2
1570180185110630,-2,0,-1,-2,4,-9,-4,-1
1570180185110630,-1,-3,-2,3,7,10,0,-2
1570180185124290,1,1,1,0,-6,1,4,2
1570180185124290,0,-1,0,4,17,6,1,0
1570180185130306,1,-1,0,2,-3,-7,-1,2
1570180185130306,0,1,1,5,4,-6,-1,-2
1570180185146472,-3,-2,0,-4,-4,0,-1,-2
1570180185146472,-7,-3,-1,-4,-7,0,13,-18
1570180185148261,2,3,2,-9,-18,0,1,-10
1570180185148261,0,-2,-3,10,23,-1,-1,0
1570180185169251,-1,1,1,-7,-20,-4,-1,1
1570180185169251,1,2,-1,7,16,0,1,4
1570180185171199,-6,-4,-2,3,7,6,6,-4
1570180185171199,-1,-2,-2,-4,1,0,2,0
1570180185183170,0,-2,-3,-3,-7,-1,-1,-4
1570180185183170,1,-1,-1,-6,-5,0,-5,0
1570180185190689,0,2,1,3,-2,3,-4,0
1570180185190689,1,-1,-1,-6,-5,-6,-4,3
1570180185207097,-2,-2,0,3,6,1,-1,1
1570180185207097,2,1,0,-3,-6,-1,-3,1
1570180185208096,1,0,-2,2,6,-3,-1,4
1570180185208096,-3,-2,-3,-5,-9,3,1,-3
1570180185229231,0,-1,0,7,12,-3,0,-1
1570180185229231,0,1,1,1,1,7,1,5
1570180185231034,0,-3,-2,-1,-4,1,0,2
1570180185231034,-1,1,-1,-1,-4,-1,-3,-5
1570180185244048,-2,-3,-2,2,13,1,-2,0
1570180185244048,-1,-3,-1,-1,-15,-12,-5,3
1570180185250981,0,2,2,3,13,5,-1,0
1570180185250981,-1,-1,-1,-6,-8,-4,-2,-2
1570180185267259,-1,-2,0,2,3,-2,0,-1
1570180185267259,-1,0,0,-5,-6,-1,-1,-1
1570180185267937,2,0,-3,-3,-2,0,-2,6
1570180185267937,0,-1,-2,-1,-1,0,2,1
1570180185289106,-1,-1,0,-5,-12,-2,-3,-2
1570180185289106,-4,-3,-2,2,7,-2,-1,-3
1570180185291009,0,1,2,-1,-7,1,3,2
1570180185291009,-1,1,-1,2,1,-1,-1,1
1570180185302892,-1,-1,-2,-3,-6,-8,-2,0
1570180185302892,1,0,-2,2,10,11,1,1
1570180185311826,-1,-2,0,2,2,-3,-2,0
1570180185311826,-3,-3,-2,-7,-5,-4,-3,-3
1570180185326992,0,1,-2,1,11,7,3,0
1570180185326992,-1,1,-1,-3,-10,-5,-2,1
1570180185328285,-2,-2,-2,0,16,10,1,-1
1570180185328285,-1,-1,3,-1,-16,-12,-5,-2
1570180185349721,-1,-2,1,5,7,1,1,1
1570180185349721,-4,-2,-2,-4,-9,-1,-3,-5
1570180185351178,2,-2,-3,1,11,8,-1,3
1570180185351178,0,-3,-1,-4,-6,2,1,2
1570180185363016,-1,0,-4,-3,-2,-6,-1,-2
1570180185363016,2,0,2,3,6,8,0,0
1570180185371962,0,-2,-1,-3,-8,-9,-2,-2
1570180185371962,1,0,1,1,4,1,-2,2
1570180185386749,-1,0,-2,-4,-21,1,0,-1
1570180185386749,-3,-2,-1,4,15,-6,11,-16
1570180185388611,-5,0,-2,-8,-12,5,-1,-6
1570180185388611,6,2,1,12,19,4,-7,8
1570180185409745,0,0,1,-2,-4,-11,-3,-2
1570180185409745,-2,-2,-1,1,0,5,1,4
1570180185411558,-1,0,1,1,-4,-7,2,-3
1570180185411558,-3,-2,0,0,0,6,3,-5
1570180185422521,-1,-1,-2,-4,-9,1,-1,-3
1570180185422521,3,1,-1,1,3,-4,-4,4
1570180185447458,0,-1,-2,-1,4,6,6,5
1570180185447458,-2,-2,-2,0,-1,-2,1,-1
1570180185448488,0,0,0,3,8,2,-2,-1
1570180185448488,-2,-1,-1,-6,-10,-5,-2,2
1570180185449532,0,-1,0,-4,-17,-2,-1,1
1570180185449532,1,1,1,12,20,0,-2,-1
1570180185469449,-1,-1,-2,-8,-8,-6,1,-2
1570180185469449,-1,-1,-1,-1,-3,-3,-4,1
1570180185470393,0,-2,-1,-5,-8,-5,0,0
1570180185470393,0,0,-1,-5,-10,0,4,1
1570180185483400,-1,-3,-1,-4,7,3,4,3
1570180185483400,1,0,1,2,-11,-2,-6,1
1570180185499323,1,-1,0,4,10,-2,0,0
1570180185499323,-2,-1,0,-4,-4,-3,-1,-5
1570180185507297,-1,0,1,-4,-5,2,-1,1
1570180185507297,-1,-2,-3,-5,-1,-7,-2,0
1570180185508388,-2,-1,0,5,7,2,-2,-3
1570180185508388,-2,-1,-1,-6,-10,1,2,1
1570180185529549,1,-3,-1,-1,-16,-10,-5,-3
1570180185529549,0,-1,-2,-3,14,8,-3,-1
1570180185530239,-2,-2,-2,1,1,-4,-3,-1
1570180185530239,3,2,1,-2,-1,-4,-4,2
1570180185543207,1,0,1,0,-2,4,-1,1
1570180185543207,-2,-1,0,-1,-4,-4,0,1
1570180185552176,0,-1,-1,1,1,-2,-3,-2
1570180185552176,-4,-3,-3,-5,-8,-2,1,-2
1570180185567246,0,1,0,3,3,0,0,-1
1570180185567246,1,-1,2,2,4,2,0,0
1570180185568445,-2,0,0,2,-3,-3,0,-1
1570180185568445,-1,0,0,-9,-15,-2,1,-1
1570180185589083,0,0,-2,0,6,1,-3,0
1570180185589083,2,2,1,9,15,4,1,0
1570180185591073,-2,-2,-3,-11,-14,-8,-4,-1
1570180185591073,1,0,3,14,29,9,4,2
1570180185603049,0,0,0,-4,-5,3,0,-4
1570180185603049,1,0,1,-6,-7,-4,-4,0
1570180185612017,0,-2,-2,1,-6,-1,0,-1
1570180185612017,-1,0,0,1,-4,-1,-1,-1
1570180185627124,0,0,0,1,7,-2,1,-2
1570180185627124,1,1,0,-1,-10,-4,-1,-1
1570180185628056,-1,-2,-1,0,5,1,1,-1
1570180185628056,-1,-1,-1,-2,-3,-3,-3,-1
1570180185649221,-1,0,-1,-1,-3,2,0,0
1570180185649221,1,-1,0,-2,-1,-3,-1,0
1570180185651013,-1,-1,-1,-2,-11,-1,-3,-1
1570180185651013,-1,0,-2,0,11,-2,-1,-6
1570180185662890,0,-1,1,8,16,5,2,3
1570180185662890,-4,-4,-2,-4,-4,1,4,-1
1570180185671897,1,-1,-2,0,7,-1,-2,1
1570180185671897,-2,0,0,-1,-8,-3,-3,-1
1570180185687025,-1,0,0,-2,-4,0,-1,0
1570180185687025,-1,1,0,0,-1,0,-2,0
1570180185689056,-1,-2,-2,-9,-15,-2,-2,1
1570180185689056,1,-1,0,7,16,4,0,-1
1570180185708761,-1,0,0,6,11,1,-1,-1
1570180185708761,2,0,0,-2,-4,7,2,0
1570180185716734,-1,-1,-1,-2,-3,0,1,-1
1570180185716734,-1,0,0,-5,-9,0,1,-1
1570180185731907,0,-1,0,-3,-3,-1,-1,0
1570180185731907,-2,0,0,1,-3,-2,0,1
1570180185733690,-2,1,1,3,7,1,2,0
1570180185733690,-3,-4,-3,-6,-16,-6,-2,-3
1570180185746658,0,-1,0,0,0,-2,0,-1
1570180185746658,1,0,2,-2,-4,-2,2,-2
1570180185748656,0,-1,-1,1,6,2,0,1
1570180185748656,-1,-1,-2,-1,-3,-2,-2,0
1570180185769600,0,-1,-2,-3,-7,0,-2,-2
1570180185769600,0,0,-1,1,0,-2,-4,-1
1570180185775792,3,2,-1,3,4,2,-1,-3
1570180185775792,-2,0,-1,1,-1,2,3,1
1570180185790598,-1,-1,0,1,-3,0,-1,-2
1570180185790598,-1,-1,1,0,-2,-2,-2,0
1570180185799524,0,-1,1,1,5,-2,-2,-1
1570180185799524,0,-1,-2,-1,-1,-2,-2,-1
1570180185806598,1,0,0,-3,-5,0,-1,-1
1570180185806598,0,0,-1,2,3,-2,-2,-1
1570180185808490,-2,-1,-2,0,0,4,5,-1
1570180185808490,0,0,0,-2,-2,-1,-1,0
1570180185829448,-2,0,-2,2,-4,-5,-4,-3
1570180185829448,-1,-1,-3,-2,-2,-2,0,-1
1570180185830726,-1,0,0,0,3,2,0,-2
1570180185830726,-1,-1,-1,-1,-1,-2,1,1
1570180185851830,1,-1,0,0,1,0,-2,-1
1570180185851830,-1,0,-2,-3,-4,-2,-3,-1
1570180185853369,2,3,3,-1,-7,-6,-5,-1
1570180185853369,0,-2,-1,1,9,1,2,2
1570180185866334,1,0,-2,-3,-2,1,0,0
1570180185866334,-1,-1,-1,1,2,-1,-1,-1
1570180185873314,-2,0,0,-6,-4,-1,-2,-1
1570180185873314,-1,0,0,2,1,-1,-2,-1
1570180185889283,0,0,-3,-1,-3,-3,-4,2
1570180185889283,0,-1,-1,-3,0,-10,-1,0
1570180185890272,0,0,-1,4,3,9,-4,-2
1570180185890272,-1,-3,-2,-3,-3,0,1,0
1570180185912264,0,-1,0,1,3,0,-2,2
1570180185912264,-1,-2,-1,-5,-12,-1,0,0
1570180185913213,0,-1,1,2,-1,-6,-2,-3
1570180185913213,7,2,2,3,2,-2,-14,16
1570180185926181,6,3,1,-2,-5,-1,-10,13
1570180185926181,-2,-1,-3,-2,1,3,1,-2
1570180185940482,-1,-2,0,1,4,-1,1,1
1570180185940482,0,-1,-2,-2,-2,1,2,-6
1570180185949249,-4,-3,0,-3,0,-2,4,-4
1570180185949249,1,-1,-1,0,0,1,-2,2
1570180185951186,-1,1,1,-1,0,-2,2,1
1570180185951186,-2,-2,-2,-2,-3,-3,-1,-4
1570180185972054,-2,0,-1,-3,-1,0,1,-4
1570180185972054,-1,0,0,2,3,3,3,-3
1570180185973051,0,-1,-2,-2,0,-1,1,-2
1570180185973051,-3,0,-2,-3,-3,1,8,-7
1570180185986021,-1,-2,1,0,1,1,1,-2
1570180185986021,2,-1,1,0,0,1,-3,0
1570180185993197,-3,-2,-1,0,0,-2,-2,-1
1570180185993197,-2,2,1,0,-2,-1,1,-4
1570180186009137,-3,-1,1,2,2,-1,1,-1
1570180186009137,0,1,-1,0,2,0,1,-1
1570180186010955,-1,-4,-3,-2,-10,-1,-1,1
1570180186010955,-4,-1,-2,-1,1,1,1,-2
1570180186032106,-3,1,0,-2,-5,-2,-1,-5
1570180186032106,-1,0,-1,0,3,-1,-2,0
1570180186033454,-2,-1,-3,-1,4,1,5,2
1570180186033454,0,1,0,-2,-1,-2,2,-2
1570180186045869,-1,-2,0,0,-4,-2,-1,-4
1570180186045869,-2,-3,-2,-4,-4,-1,0,1
1570180186053834,-1,-1,0,2,4,0,2,-1
1570180186053834,-1,1,0,-2,1,1,0,0
1570180186069793,-1,-2,-2,-4,-3,0,1,-4
1570180186069793,1,0,0,2,-2,-2,-8,3
1570180186070793,3,1,0,-1,-1,-1,-7,6
1570180186070793,-1,-4,-1,-1,1,0,1,1
1570180186091896,0,0,-2,-4,0,0,2,-2
1570180186091896,-3,0,-1,0,-5,0,3,-6
1570180186093734,0,0,1,-1,-3,0,-1,-3
1570180186093734,3,0,1,2,1,-3,-4,1
1570180186105700,0,0,-3,-2,2,1,1,4
1570180186105700,0,0,0,2,0,0,1,0
1570180186114675,-1,-1,0,-1,5,-1,-2,-1
1570180186114675,-1,-1,1,-1,-2,-2,1,-2
1570180186128846,-4,-1,0,4,8,0,3,-2
1570180186128846,0,0,0,-1,-1,-1,0,2
1570180186130633,-2,-1,-2,-1,1,-1,1,-2
1570180186130633,-1,-2,0,-2,-4,-1,0,-2
1570180186159686,-2,-4,-2,-3,-1,0,2,-3
1570180186159686,-1,1,2,1,1,-3,-2,0
1570180186160553,-1,1,0,0,-2,0,-3,-4
1570180186160553,-1,-1,-1,-1,-4,0,-2,-2
1570180186166576,-2,-1,-3,0,3,1,0,1
1570180186166576,-2,-2,0,-1,0,0,0,-1
1570180186172546,1,1,0,-2,0,-1,-3,-2
1570180186172546,1,1,1,1,-1,-3,-5,-2
1570180186189874,1,0,1,2,5,1,-2,-1
1570180186189874,-2,-3,-5,-3,-9,-1,-1,-3
1570180186190471,-2,-1,-2,-3,-4,-3,1,0
1570180186190471,-1,-2,-2,0,2,0,0,0
1570180186211688,1,0,1,-1,-2,-1,-3,1
1570180186211688,-1,-2,-3,-2,1,0,1,-2
1570180186219391,4,3,1,4,1,-1,-7,10
1570180186219391,0,-2,-3,-2,-3,0,1,5
1570180186225614,-1,-1,-2,-4,-3,0,1,-1
1570180186225614,1,0,0,5,6,0,0,3
1570180186234360,1,-2,0,-1,-1,0,0,-2
1570180186234360,-1,0,-1,-1,0,0,2,-3
1570180186249470,0,1,1,0,-5,1,-4,0
1570180186249470,1,-2,1,-1,1,-1,-4,-1
1570180186251026,-3,-2,-1,-1,0,-2,5,-5
1570180186251026,0,0,0,-1,2,-2,-3,-3
1570180186272391,-2,-1,0,0,-1,-1,0,-6
1570180186272391,-1,-1,1,-1,-3,0,-1,-1
1570180186274253,0,-1,-2,2,-1,2,1,-2
1570180186274253,0,-1,0,-1,-2,0,-3,2
1570180186285461,1,-1,-2,-1,-3,-2,-1,1
1570180186285461,-1,-1,-2,0,2,1,3,1
1570180186294193,-2,0,-1,-2,0,0,-3,-1
1570180186294193,-1,0,-1,1,0,0,3,-3
1570180186309337,-1,0,-1,1,-1,2,0,-1
1570180186309337,-1,-2,-1,-1,0,0,0,0
1570180186311158,-3,-1,-1,-1,-2,0,2,-3
1570180186311158,-2,0,0,0,-1,-3,0,0
1570180186332152,0,-2,-3,-1,-1,0,1,-1
1570180186332152,1,1,-2,-1,-1,0,0,0
1570180186333159,2,1,2,-2,-9,-5,-9,-2
1570180186333159,-2,-2,-1,6,10,-1,-1,-2
1570180186345278,1,-2,0,2,1,-1,0,-1
1570180186345278,-1,-2,-1,1,1,-3,-2,-2
1570180186354083,-1,0,0,-3,-2,0,2,-2
1570180186354083,-1,0,1,-4,-3,0,-3,1
1570180186377177,-1,1,2,-1,1,-2,-3,-1
1570180186377177,2,1,0,-1,1,2,1,2
1570180186378556,0,-2,-1,-1,2,-2,0,1
1570180186378556,1,0,-1,-2,-2,0,-2,-2
1570180186392056,-2,1,-2,-1,-1,0,-1,-1
1570180186392056,-1,-1,-1,-1,-4,-1,0,1
1570180186393433,1,0,2,3,2,0,-4,4
1570180186393433,0,-4,-3,-3,-1,1,1,3
1570180186405944,2,0,0,0,0,-1,-3,5
1570180186405944,-1,0,-1,-1,-1,0,-1,-1
1570180186414871,-2,-1,-2,0,2,-1,1,-4
1570180186414871,-2,-1,-1,1,0,1,2,-3
1570180186430135,-1,-1,0,-2,0,-2,1,-3
1570180186430135,-2,-3,-1,0,7,0,1,-2
1570180186443020,0,-2,-2,1,-4,-1,1,0
1570180186443020,1,-1,-1,-2,-5,0,-1,-1
1570180186451770,-1,0,0,0,2,-2,0,-2
1570180186451770,-3,0,-1,-3,-2,-1,-2,-6
1570180186452923,-2,-1,-2,2,5,1,0,1
1570180186452923,-1,-1,0,-1,1,-2,0,-1
1570180186465856,1,0,0,2,-4,-2,-5,3
1570180186465856,-1,-1,-2,0,2,0,-2,-1
1570180186474713,0,-1,-3,-4,-2,-1,0,-4
1570180186474713,-1,-3,0,1,0,0,0,-1
1570180186488680,1,-1,-2,-2,-3,-1,-1,-1
1570180186488680,1,2,1,0,-3,0,0,0
1570180186502691,-3,-3,-1,0,1,1,3,-3
1570180186502691,-1,1,1,-1,0,-1,0,-3
1570180186510829,-1,-3,-1,-2,2,0,1,0
1570180186510829,0,2,-1,-2,-1,-1,0,2
1570180186519589,-1,1,-1,-1,3,-2,-2,-1
1570180186519589,-6,-3,-3,-3,-11,-2,9,-18
1570180186525754,-4,-1,-1,-1,0,2,9,-13
1570180186525754,1,0,-1,0,-3,-2,-3,-1
1570180186541549,0,-2,-2,0,3,-2,0,1
1570180186541549,-1,-1,-1,0,3,-1,-1,0
1570180186550508,0,-1,-1,0,-1,-1,0,-1
1570180186550508,0,-1,1,-1,-3,-1,-1,-3
1570180186551507,-1,0,0,-1,-2,0,-4,1
1570180186551507,1,0,-1,-1,0,0,-4,4
1570180186572143,1,-1,-2,-1,-2,-1,-1,2
1570180186572143,-1,0,1,0,0,0,1,0
1570180186573660,-1,-2,-2,0,-1,-2,0,1
1570180186573660,4,2,1,1,0,-1,-6,3
1570180186585416,1,-1,1,0,0,0,-3,1
1570180186585416,-2,-1,-2,-1,-1,1,0,-1
1570180186594475,1,1,0,0,-1,2,3,-1
1570180186594475,0,1,0,0,1,-1,-3,1
1570180186616374,-2,-1,-1,0,0,-2,1,-2
1570180186616374,1,-2,-1,-1,-3,-2,0,-1
1570180186618324,-1,-1,-1,-2,-1,1,0,1
1570180186618324,0,1,-2,1,0,-1,0,1
1570180186632287,2,1,0,1,-1,1,-2,3
1570180186632287,-1,-1,-3,-1,-1,-1,0,0
1570180186633283,-1,0,0,1,-1,0,-2,-2
1570180186633283,-3,-2,-1,0,1,0,1,-2
1570180186655275,-1,-1,-3,-2,0,0,-1,0
1570180186655275,-1,-1,0,0,0,-1,1,-1
1570180186656228,4,1,0,1,0,-2,-14,10
1570180186656228,2,-1,-1,-2,0,-2,-10,16
1570180186669331,-1,1,1,2,1,-2,-1,-2
1570180186669331,-1,-2,0,-1,1,-1,0,1
1570180186671183,-1,1,2,0,-2,-1,1,-7
1570180186671183,0,-1,0,0,2,0,0,-1
1570180186692235,1,-2,-2,-2,-2,0,-2,5
1570180186692235,-1,-1,2,2,0,1,2,1
1570180186693228,-2,0,-1,-2,0,0,5,-4
1570180186693228,0,0,-1,0,0,1,0,-3
1570180186713069,-4,1,0,1,0,-3,-1,-5
1570180186713069,-1,0,-1,-2,-1,-2,-1,-2
1570180186722046,0,-2,-3,-2,-1,0,2,0
1570180186722046,2,1,0,1,-1,-4,-5,-2
1570180186729031,-2,-2,-3,-1,0,1,1,2
1570180186729031,2,2,2,1,0,-2,-1,-2
1570180186731030,-2,-4,-3,-1,-2,-1,1,2
1570180186731030,-2,1,0,1,0,0,0,-5
1570180186752099,0,-2,-1,-2,0,-2,3,0
1570180186752099,-1,-2,-2,-2,-2,-1,2,-2
1570180186752964,-1,0,-1,-1,-1,-1,2,-4
1570180186752964,-6,-2,-3,-3,-2,1,14,-16
1570180186773912,0,1,0,0,-2,0,-2,-3
1570180186773912,2,0,-2,0,-1,-2,-9,14
1570180186775905,0,-1,1,0,-2,-1,0,2
1570180186775905,0,-3,-2,-2,-2,0,-1,2
1570180186797094,2,-1,0,-1,-2,0,-2,2
1570180186797094,0,-1,0,0,1,1,2,-2
1570180186798603,0,-1,-3,-2,0,0,1,-6
1570180186798603,-1,-2,-2,0,-1,-1,-4,4
1570180186811826,-1,-1,0,0,2,0,2,-4
1570180186811826,1,1,0,0,-3,-1,-5,-1
1570180186812989,-1,-1,1,-1,1,0,0,-2
1570180186812989,2,0,0,0,0,-1,-5,4
1570180186835133,-1,-2,-1,-1,-2,0,-3,-1
1570180186835133,-2,0,-1,2,-1,0,2,-5
1570180186835744,-3,-2,-1,0,-1,1,2,-3
1570180186835744,2,0,-1,0,-1,-1,-4,6
1570180186848912,-3,-2,-1,1,1,-1,2,-1
1570180186848912,-1,-1,-1,0,1,-2,0,-2
1570180186855697,-3,0,-1,-1,-2,3,14,-16
1570180186855697,0,-1,-1,-1,0,-1,1,1
1570180186871853,1,0,-1,-1,-1,-2,0,0
1570180186871853,-1,0,1,0,1,1,0,-3
1570180186873649,-2,-3,-2,0,0,-2,-2,2
1570180186873649,-1,0,1,0,0,1,0,-4
1570180186894590,0,0,1,-1,-1,1,-4,0
1570180186894590,0,-2,-2,-3,-1,0,0,-2
1570180186900582,1,-1,0,2,-2,-1,-5,3
1570180186900582,0,-1,0,0,-1,-1,-1,-4
1570180186908753,-2,-1,0,1,-1,-1,-2,1
1570180186908753,-1,-2,-2,-2,0,0,-1,1
1570180186915720,-1,-2,-2,0,0,-1,-3,3
1570180186915720,0,1,0,0,-1,-1,0,-1
1570180186931491,-1,0,-2,-1,-1,1,1,-2
1570180186931491,-1,-1,-1,-1,-1,-2,0,-2
1570180186933482,1,1,0,1,-2,-1,-5,0
1570180186933482,-1,-3,-2,-2,-2,-2,2,-4
1570180186954625,-3,-3,-4,-3,-2,-1,0,1
1570180186954625,-3,-1,2,0,-2,0,3,-1
1570180186955580,2,1,1,0,-1,0,-12,11
1570180186955580,-1,0,-2,-1,-1,0,0,1
1570180186969028,-1,0,-2,-2,1,0,1,0
1570180186969028,0,0,-1,-1,-2,0,-1,-3
1570180186975609,0,0,1,-1,-2,-1,0,-5
1570180186975609,-1,2,1,-2,-1,1,0,0
1570180186992376,2,0,1,0,0,-4,-4,1
1570180186992376,-1,-2,-2,-1,0,-1,2,-1
1570180186993402,0,0,-1,-1,0,0,2,-1
1570180186993402,1,-2,1,0,0,1,-4,4
1570180187014482,-2,-2,0,-1,-2,1,1,-3
1570180187014482,0,1,0,0,-1,-4,-6,2
1570180187016266,-1,0,-2,-2,1,-1,-1,0
1570180187016266,1,-2,-1,-1,0,-1,-1,-1
1570180187028234,0,0,1,1,0,-1,0,-3
1570180187028234,0,-1,-2,-2,-1,-1,-1,1
1570180187035221,-9,-5,-4,-4,-2,0,10,-15
1570180187035221,0,-2,-1,-1,-2,-1,-1,3
1570180187052178,-1,1,1,0,-2,-1,-1,-2
1570180187052178,1,-1,-2,-1,-1,0,-3,-1
1570180187053161,-1,0,1,1,1,-2,-1,-3
1570180187053161,-1,1,-2,-1,-2,-1,-1,-3
1570180187074108,0,0,0,0,-3,-2,-1,0
1570180187074108,-2,-2,-1,-1,-1,1,3,-1
1570180187076208,0,-1,-1,0,0,2,-3,5
1570180187076208,-1,1,0,-2,-1,1,-1,-2
1570180187089083,1,-1,-1,-1,-1,0,-3,4
1570180187089083,-2,-1,-1,1,1,0,1,-1
1570180187095147,0,1,1,0,0,-2,-4,2
1570180187095147,-3,-1,-1,0,1,-1,2,0
1570180187112007,-3,-3,-4,-2,-1,-1,0,-2
1570180187112007,-1,-2,-2,-2,0,1,0,0
1570180187113002,5,1,1,-1,-1,-2,-14,13
1570180187113002,-1,0,1,2,0,-1,-1,-2
1570180187133945,0,1,-1,-1,-1,0,2,-2
1570180187133945,-2,0,0,1,0,0,-2,2
1570180187135942,0,-2,0,0,-1,2,5,-3
1570180187135942,1,-1,-1,0,-2,-1,-1,-1
1570180187147960,1,0,-2,-2,0,1,0,0
1570180187147960,-1,-2,1,-1,-1,-1,0,-4
1570180187162967,-2,-3,-3,-2,-1,0,3,-2
1570180187162967,-3,-1,1,0,1,-1,2,-6
1570180187172183,-1,-1,-1,-1,0,0,1,0
1570180187172183,-1,0,0,-1,0,-2,0,-1
1570180187173667,0,0,0,-2,-1,-1,-1,-1
1570180187173667,-1,1,0,0,-1,-2,-3,0
1570180187194049,0,1,0,2,1,-2,-3,0
1570180187194049,2,0,-2,-1,-2,0,0,-1
1570180187195780,-3,-3,-1,-2,-1,3,8,-9
1570180187195780,3,-1,0,2,1,1,-5,10
1570180187216967,0,-1,1,1,1,0,0,-1
1570180187216967,0,0,0,0,0,1,-1,0
1570180187218723,-2,-1,-1,0,-1,-2,2,-1
1570180187218723,-4,1,1,-1,-1,-1,0,-4
1570180187231906,-1,1,-3,-1,-2,1,1,0
1570180187231906,0,0,0,-1,0,-1,-1,0
1570180187233679,1,0,-1,0,1,-2,-2,1
1570180187233679,0,-3,-1,-3,0,0,2,0
1570180187254623,-3,-2,-2,-2,-1,-1,-3,1
1570180187254623,-3,-1,-1,0,0,0,2,-2
1570180187255620,1,0,-2,-1,-1,0,-1,0
1570180187255620,-2,1,-1,0,0,1,0,-2
1570180187267839,-3,-2,0,0,0,1,5,-11
1570180187267839,3,1,2,2,-2,-4,-12,6
1570180187276571,-2,-1,-1,0,0,-1,-1,3
1570180187276571,1,-1,-3,-2,0,0,-1,1
1570180187291702,0,-1,-1,-1,-1,0,1,1
1570180187291702,-2,-1,-1,0,1,0,1,-1
1570180187293727,0,0,0,0,0,0,-3,2
1570180187293727,0,-2,-1,1,-1,-2,-1,-1
1570180187314690,1,0,0,1,0,-4,-6,2
1570180187314690,0,-1,-3,-2,0,0,2,0
1570180187315885,0,0,1,-1,0,-2,-3,-1
1570180187315885,-1,0,-1,-3,0,1,2,-6
1570180187327499,0,-1,-1,-1,0,0,-4,2
1570180187327499,-2,-1,-2,0,-1,0,2,0
1570180187336440,-3,-2,-2,-2,-1,1,12,-19
1570180187336440,0,-1,-1,-1,-1,-1,0,-1
1570180187352414,-2,-2,-1,-2,-3,-2,-1,-1
1570180187352414,-1,-1,-1,-1,-2,0,0,0
1570180187353359,0,0,0,-2,-1,0,-1,0
1570180187353359,-1,-2,-2,-1,0,-1,0,1
1570180187374488,1,1,-1,-2,-1,0,-1,0
1570180187374488,-3,1,1,0,1,1,3,-5
1570180187375891,0,1,0,2,-1,-2,-5,2
1570180187375891,-2,-1,0,0,-2,-1,-1,1
1570180187388444,1,-1,-1,2,0,-1,-2,2
1570180187388444,0,0,0,-2,-1,-2,1,-2
1570180187397242,2,-1,0,-2,0,0,-4,3
1570180187397242,1,1,0,-1,-1,-1,-3,-2
1570180187412305,1,-2,-1,-1,-2,-1,2,0
1570180187412305,2,0,0,2,-2,-1,-2,-3
1570180187413203,0,-1,-2,-1,-1,-2,-1,2
1570180187413203,2,1,0,-2,1,-1,-5,2
1570180187433363,0,0,-1,-2,1,-1,1,-1
1570180187433363,-5,-4,0,-2,-2,2,11,-17
1570180187442128,2,0,0,1,-1,-1,-4,6
1570180187442128,-1,0,-1,1,0,-1,3,-3
1570180187448235,-2,0,-1,0,1,0,1,-2
1570180187448235,2,-3,-3,-1,0,0,0,3
1570180187457089,-1,-1,0,0,-1,-1,-2,-3
1570180187457089,0,-1,-1,-2,0,-1,1,-1
1570180187472350,0,0,0,-1,0,0,-2,0
1570180187472350,1,1,1,-2,0,-2,-2,2
1570180187473040,-1,0,-1,0,-1,-3,-1,2
1570180187473040,0,0,1,0,1,-1,-2,1
1570180187494033,-1,-1,0,-1,-1,-2,-1,0
1570180187494033,-1,0,-1,-1,0,3,0,3
1570180187500111,-1,-1,-2,-3,-2,-1,-1,-1
1570180187500111,-1,0,-2,0,-1,0,0,-5
1570180187508146,1,-2,0,1,-1,0,0,0
1570180187508146,0,0,0,0,-1,-1,1,-6
1570180187516935,3,1,0,0,1,-1,-12,8
1570180187516935,-3,-1,-1,1,-2,-1,-2,1
1570180187532095,-4,-2,-2,-2,0,-2,-2,-3
1570180187532095,0,-1,-2,-2,1,-1,-2,4
1570180187533419,-3,-1,-2,-2,-1,1,4,-2
1570180187533419,1,-3,-1,-2,0,0,1,0
1570180187554044,0,0,-1,-1,-1,0,-2,1
1570180187554044,1,0,1,0,-1,-2,-4,1
1570180187555930,0,-2,1,-2,-1,0,0,-1
1570180187555930,1,0,1,0,-1,-1,-1,2
1570180187576935,-1,1,-1,0,-1,2,3,0
1570180187576935,-2,-3,-1,-1,0,-1,-3,2
1570180187577758,-1,0,-1,-1,-1,0,1,-2
1570180187577758,-1,0,-1,-1,0,0,0,-1
1570180187591893,0,0,0,-1,0,-1,-1,0
1570180187591893,0,1,-1,-3,0,-1,-3,1
1570180187593717,-1,1,1,1,-1,-1,-1,-2
1570180187593717,-3,-2,0,-1,-2,0,1,-4
1570180187614714,0,1,-1,-2,-2,-2,0,-2
1570180187614714,-1,-2,-1,1,1,1,-2,1
1570180187616252,2,-1,0,0,0,-2,-3,0
1570180187616252,-1,2,0,-1,-1,-1,-1,-3
1570180187636613,-2,0,1,-1,-1,1,-1,-2
1570180187636613,-1,1,1,1,-2,-1,3,-1
1570180187638598,-4,1,1,2,0,-1,12,-17
1570180187638598,0,-1,-1,0,-2,-1,-2,-1
1570180187659676,-1,-1,-1,-1,-1,-2,-3,-1
1570180187659676,-1,-2,-2,-3,-1,-2,-2,2
1570180187660864,-2,0,0,0,1,0,2,-1
1570180187660864,0,0,0,1,0,-2,0,-1
1570180187674653,-1,-1,0,-1,0,1,1,1
1570180187674653,0,-1,0,0,0,1,0,-2
1570180187676280,0,-1,-4,-3,-1,0,0,3
1570180187676280,-2,-2,-2,0,-1,0,-1,-1
1570180187696594,-1,-1,-1,2,-3,0,-1,2
1570180187696594,1,1,-1,-1,-1,-1,-3,-2
1570180187698435,1,-1,-1,0,-2,1,-2,3
1570180187698435,0,-2,0,0,-1,-3,-3,-2
1570180187711487,0,-2,-1,-1,1,-2,0,-1
1570180187711487,-3,-1,0,2,0,-1,-2,-1
1570180187713396,3,-1,-1,0,0,-1,-1,0
1570180187713396,0,-2,0,0,-1,0,2,-2
1570180187733387,-7,-1,-1,0,-1,2,13,-15
1570180187733387,-1,0,-1,-2,-2,-4,-5,-4
1570180187734338,-2,-2,-3,-3,0,-1,-3,9
1570180187734338,-2,1,-2,-1,0,1,0,2
1570180187756437,3,0,0,-2,0,-1,-1,2
1570180187756437,1,-1,2,1,-2,0,-1,-5
1570180187756437,0,1,1,1,-1,-2,-1,-2
1570180187756437,-1,-1,0,-2,-1,0,1,0
1570180187770247,0,1,1,0,-1,-2,-2,0
1570180187770247,-3,-2,-4,-4,-2,0,0,2
1570180187778371,0,1,2,2,0,-1,-5,0
1570180187778371,0,0,0,0,2,-1,-1,0
1570180187793404,0,-1,-1,-1,1,-2,-2,2
1570180187793404,2,0,0,-1,-1,-1,-2,2
1570180187794546,-1,-3,-1,-1,0,0,0,-1
1570180187794546,-1,-1,-1,-1,-1,0,0,-3
1570180187817171,2,-1,0,2,-1,-1,-2,2
1570180187817171,-1,-2,-2,-3,0,-3,3,2
1570180187818157,-1,1,1,2,2,-1,-1,-3
1570180187818157,1,0,-2,0,-1,-1,-1,2
1570180187832247,-1,-1,-1,-2,-1,-4,-5,-2
1570180187832247,3,1,0,1,-1,1,-5,7
1570180187833080,1,1,-1,-1,-2,-3,-4,1
1570180187833080,-1,0,0,-2,1,1,-2,-2
1570180187854189,0,0,0,1,-1,1,-1,0
1570180187854189,-1,-2,-1,1,1,-1,0,-3
1570180187854189,1,0,0,1,-2,1,0,-3
1570180187854189,2,0,-1,-2,-2,0,-1,0
1570180187875960,0,-1,-3,-1,-1,0,-1,0
1570180187875960,-1,1,1,0,-1,-3,0,0
1570180187877025,-2,-2,-1,-4,-1,1,1,1
1570180187877025,-1,-1,0,-1,0,1,2,1
1570180187890921,0,-3,-1,1,0,-1,1,-1
1570180187890921,4,0,-2,-2,0,0,-12,14
1570180187891918,-2,-3,-4,-3,1,-1,2,-1
1570180187891918,-1,0,0,0,-1,-3,1,-4
1570180187913976,-1,0,0,-1,-2,1,0,0
1570180187913976,-2,-1,-1,2,0,1,4,-7
1570180187914861,-2,-2,-3,-1,-1,0,0,-2
1570180187914861,-1,0,0,1,-1,1,0,1
1570180187935801,1,1,1,-1,2,0,-4,0
1570180187935801,0,-1,-2,1,-1,-3,-4,-2
1570180187936958,-1,0,1,0,-1,0,1,-2
1570180187936958,-3,-3,-2,-1,0,2,0,0
1570180187950762,1,-1,0,-2,0,1,0,2
1570180187950762,-2,0,0,-1,-1,0,3,-3
1570180187951759,1,1,-1,0,-1,0,-2,-1
1570180187951759,-1,-1,0,-1,-1,-2,-1,-1
1570180187973996,0,-1,-1,-1,-2,-1,-1,0
1570180187973996,-3,-1,0,0,1,-1,1,1
1570180187974698,0,1,1,2,0,-2,-3,1
1570180187974698,-2,-1,-2,-1,-2,-3,-3,-2
1570180187995803,-1,-1,-1,-1,1,1,1,1
1570180187995803,-1,-1,1,-1,-1,0,3,-6
1570180187996641,2,2,1,1,-2,-2,-7,2
1570180187996641,-1,-1,-2,-1,0,-1,-2,-1
1570180188010714,0,1,0,0,-2,-2,-3,-1
1570180188010714,5,2,0,1,1,-2,-12,14
1570180188011599,-1,-2,-3,-4,0,1,4,2
1570180188011599,2,2,-1,0,-1,1,2,1
1570180188033740,-2,-1,0,-1,-1,-3,-7,0
1570180188033740,-3,0,-1,-1,-1,1,4,-7
1570180188034541,-2,-1,1,-1,-1,-1,-1,-2
1570180188034541,-1,-1,-2,0,0,-1,-2,2
1570180188056531,-2,1,0,-1,0,-1,3,-3
1570180188056531,-2,-2,-1,-1,0,2,5,-4
1570180188056531,-2,-1,0,0,0,-3,-1,-1
1570180188056531,-1,-2,-1,1,0,-2,1,-2
1570180188079570,-1,-1,-3,-1,-2,-1,-1,-3
1570180188079570,-7,-4,-1,-1,-1,0,14,-17
1570180188080417,2,2,1,0,0,-1,-8,4
1570180188080417,1,1,1,0,-1,0,0,-1
1570180188093381,-1,0,0,-2,-3,0,0,-1
1570180188093381,-2,-1,-3,-2,-3,-1,0,-2
1570180188094443,-1,-1,-1,-2,-2,0,1,-4
1570180188094443,-2,0,-1,-2,0,-3,-6,2
1570180188116386,0,-1,0,0,0,0,-1,0
1570180188116386,1,1,-1,0,-3,-1,-4,2
1570180188117319,-1,-1,0,0,-1,-2,1,0
1570180188117319,1,0,-1,0,-1,-1,-3,3
1570180188130289,-1,-1,0,2,1,1,2,1
1570180188130289,1,0,1,0,1,0,-3,1
1570180188138357,-1,-1,-2,-4,1,0,-1,-1
1570180188138357,-10,-2,1,-1,-1,-1,14,-24
1570180188153282,0,1,-2,-1,0,-1,0,-1
1570180188153282,1,0,-2,-1,-2,-2,0,1
1570180188154217,1,1,-1,0,1,1,1,0
1570180188154217,0,-1,-1,-1,-1,1,2,-1
1570180188184137,-1,-1,0,0,0,0,0,0
1570180188184137,1,1,-1,-1,0,0,-2,2
1570180188185135,-1,-1,0,1,-1,-1,2,-3
1570180188185135,1,0,0,1,0,-1,-5,4
1570180188190289,0,-1,-1,-2,-1,-1,-5,-1
1570180188190289,-1,0,2,-2,0,-1,-2,-1
1570180188198241,-1,-1,-1,0,-1,-1,-1,2
1570180188198241,1,2,-1,-1,-1,0,-1,1
1570180188214063,-1,0,1,1,2,1,-2,0
1570180188214063,0,0,1,2,1,0,1,1
1570180188214063,1,0,0,-1,0,-1,0,-1
1570180188214063,1,0,1,-1,-2,0,-4,2
1570180188236073,-6,-1,-1,-2,0,1,15,-16
1570180188236073,-1,-1,-2,-3,0,-1,-6,3
1570180188236997,-1,-2,-1,0,0,-1,2,0
1570180188236997,-1,-2,-1,-1,0,1,-3,0
1570180188250210,-2,-1,-1,-1,-2,0,-1,2
1570180188250210,-2,1,-1,0,-1,1,0,-4
1570180188259069,0,1,0,0,-1,-3,-2,-3
1570180188259069,-1,-1,-1,0,0,-1,-2,-1
1570180188273971,1,-1,-2,0,-1,1,-1,2
1570180188273971,0,-1,0,1,-1,-1,0,-1
1570180188273971,1,0,-1,-2,-4,0,0,4
1570180188273971,0,-1,-1,0,0,-1,0,0
1570180188295974,0,-1,0,-2,1,1,-2,3
1570180188295974,-1,1,-3,-1,-1,-1,1,2
1570180188296846,-1,-1,-1,-2,0,0,2,-2
1570180188296846,-1,-1,0,-1,-1,-1,-3,0
1570180188310810,1,0,1,1,0,-2,-3,3
1570180188310810,0,0,0,1,1,-2,-2,-5
1570180188325969,-3,-2,-1,-1,1,0,0,-2
1570180188325969,-2,-2,-2,-2,-1,1,1,0
1570180188333736,2,1,0,0,-1,1,-1,-1
1570180188333736,-1,-2,-1,0,-1,-1,-1,0
1570180188333736,-1,1,1,1,-1,-2,-1,-3
1570180188333736,-1,0,1,-1,0,-1,3,-2
1570180188355890,0,-1,-1,-2,-1,-1,-3,-1
1570180188355890,0,-1,1,-2,-2,-1,-3,0
1570180188356682,0,-2,-2,-1,-1,1,-1,-3
1570180188356682,0,0,-1,-1,-1,-2,0,2
1570180188370638,2,0,-2,-2,-2,-1,-3,1
1570180188370638,3,-1,-1,0,0,2,-1,3
1570180188378849,1,-2,-1,1,0,-1,-1,-1
1570180188378849,-1,1,0,1,0,0,-1,-2
1570180188393581,-1,0,0,1,-1,-1,-2,0
1570180188393581,3,1,0,0,-2,-3,-11,13
1570180188394583,-2,1,-1,-1,-1,-2,1,-2
1570180188394583,1,0,-2,-1,-2,0,-1,1
1570180188416518,0,1,0,0,-1,-2,-3,0
1570180188416518,-3,-1,-2,-2,0,0,2,-6
1570180188416518,-2,-2,-1,-1,-1,1,-1,-2
1570180188416518,0,1,0,-2,-1,-2,-4,3
1570180188439605,-2,1,-1,0,-1,0,2,-4
1570180188439605,-2,-1,-1,-1,1,0,2,-4
1570180188440457,-1,0,-1,1,0,0,-2,0
1570180188440457,-1,-3,-1,-1,0,0,1,-3
1570180188461758,-2,-5,-1,-1,-1,-2,0,-2
1570180188461758,-3,-2,0,-1,-1,-1,6,-5
1570180188462403,1,0,0,0,0,-1,-3,0
1570180188462403,1,-1,1,-1,0,0,-1,0
1570180188492537,-2,1,0,3,-1,0,0,-1
1570180188492537,-4,-2,-2,-2,-1,0,-2,-6
1570180188493316,-1,-2,-2,-3,-1,-1,-3,6
1570180188493316,-1,0,-2,-2,-1,0,-1,-3
1570180188499412,0,-1,0,-2,0,1,4,-3
1570180188499412,-1,0,-1,0,-1,0,1,-4
1570180188500292,0,0,-1,-1,-1,0,0,0
1570180188500292,1,0,0,0,1,0,-3,1
1570180188513474,2,0,0,-1,-2,-2,-4,1
1570180188513474,0,1,-2,0,1,0,-1,0
1570180188514261,-1,0,0,0,1,1,-1,0
1570180188514261,2,0,-2,-1,0,0,0,-1
1570180188536203,-1,-1,-2,-1,-2,-2,-1,-2
1570180188536203,-1,-3,-1,-2,-2,-2,1,2
1570180188537194,-1,-2,0,-1,-3,0,4,-3
1570180188537194,1,-1,-2,-1,-2,-2,-3,3
1570180188559340,-2,-1,2,0,-2,-1,2,-2
1570180188559340,-1,-1,0,-3,0,-1,0,-1
1570180188560408,-1,-1,-1,-1,-1,-1,0,-5
1570180188560408,-4,-2,-1,1,-1,0,2,-4
1570180188573374,1,0,1,-2,-1,1,-2,4
1570180188573374,1,1,0,1,-2,0,-2,-1
1570180188574103,-2,-2,0,0,0,-1,1,-2
1570180188574103,-2,-2,0,-1,0,-2,-1,-3
1570180188596044,-1,-1,-2,-2,1,0,1,1
1570180188596044,4,2,2,2,-1,-4,-16,11
1570180188597044,2,1,-1,0,0,0,-1,3
1570180188597044,0,0,0,-1,-2,-1,-1,0
1570180188619096,2,-1,-1,0,-1,-2,-2,2
1570180188619096,-2,-2,-3,-3,-1,3,8,-3
1570180188619977,0,0,2,2,0,-3,-3,-1
1570180188619977,1,-2,-2,1,-1,-2,-1,5
1570180188634090,-3,-2,-2,0,1,0,4,-5
1570180188634090,2,0,-1,1,-1,0,-2,-2
1570180188634090,0,-1,-2,-1,0,1,-1,-2
1570180188634090,-1,1,2,0,1,1,2,-4
1570180188656091,-1,-1,-1,0,0,-2,1,0
1570180188656091,-1,-2,1,-1,0,-1,0,-1
1570180188656882,0,1,0,-1,1,-2,-2,-1
1570180188656882,0,-1,1,1,-2,-1,-2,-2
1570180188679814,7,3,0,-1,1,-3,-13,14
1570180188679814,1,-1,-2,-1,0,-1,0,-1
1570180188679814,-1,0,1,0,-1,-1,-2,0
1570180188679814,0,1,-2,1,0,-2,-3,2
1570180188693777,-2,-2,-1,-1,0,1,0,-3
1570180188693777,-2,-2,-2,-1,-1,0,4,-3
1570180188694772,0,-1,-1,0,-1,-1,0,0
1570180188694772,-1,1,-1,-2,-2,-1,0,-1
1570180188716173,0,0,-2,-1,-1,1,0,1
1570180188716173,0,0,2,0,0,-2,1,-1
1570180188716715,-2,-2,-1,-1,-1,0,2,-4
1570180188716715,1,-2,-2,-1,-1,0,-1,0
1570180188739797,-2,-2,-3,0,-1,2,1,-2
1570180188739797,-2,-1,-1,-1,-1,1,0,0
1570180188740938,-2,-2,-4,-2,-1,-1,-2,-2
1570180188740938,-1,-1,-1,-1,0,0,2,-1
1570180188753793,-4,-1,-1,-1,-1,-2,6,-17
1570180188753793,-2,-1,-1,0,-2,0,-4,3
1570180188754625,-2,-2,0,0,0,1,-1,2
1570180188754625,0,0,0,0,0,-1,0,-2
1570180188776555,-2,-1,0,-1,0,0,2,-3
1570180188776555,-1,-2,-3,-1,-1,0,3,0
1570180188776555,0,1,-1,0,-1,1,2,-2
1570180188776555,0,-1,-1,-1,-1,1,-2,4
1570180188799493,0,-1,2,1,-1,-1,-2,2
1570180188799493,-2,2,1,-1,0,-1,1,-2
1570180188800489,1,-1,1,-1,0,0,0,3
1570180188800489,-3,-1,0,-1,0,-1,-2,-2
1570180188813660,2,1,0,1,-1,-5,-4,-1
1570180188813660,-1,-2,-2,-2,1,1,2,-2
1570180188814458,-1,-2,-3,-2,-2,0,3,-1
1570180188814458,-1,-2,-1,-2,-1,-1,-1,0
1570180188844699,-1,-2,0,-2,-1,0,-2,0
1570180188844699,0,0,0,-1,0,-1,-3,1
1570180188845377,0,1,2,1,-2,-1,-3,-1
1570180188845377,-1,-2,-1,-1,-1,-1,0,-2
1570180188859347,0,-1,-5,-1,-1,0,-1,3
1570180188859347,-2,-3,-2,0,-1,0,0,-3
1570180188860328,-1,-1,-1,-1,-1,-2,0,0
1570180188860328,0,0,-1,1,-1,0,0,-1
1570180188873494,-3,-4,0,-1,0,0,-1,0
1570180188873494,0,1,-3,-1,-1,-1,1,1
1570180188874300,-2,-1,-1,-1,-2,-1,-2,-3
1570180188874300,1,1,1,-1,-1,-2,-1,1
1570180188896388,-1,0,-1,0,0,-1,2,1
1570180188896388,-1,-1,-1,-2,-2,0,-2,-2
1570180188897233,1,-1,-2,-1,-1,-1,-1,0
1570180188897233,-1,1,-1,-2,-1,-1,0,0
1570180188919265,-1,0,1,-1,-1,0,0,0
1570180188919265,-1,-2,-2,-2,-1,-2,0,-2
1570180188920170,-2,1,-1,-2,0,-1,-1,-1
1570180188920170,1,0,-2,-2,-2,0,-1,-1
1570180188942164,1,-1,-2,-1,0,-1,-1,0
1570180188942164,0,-1,0,0,-1,0,-2,-2
1570180188942164,2,-2,1,-1,0,-3,-2,1
1570180188942164,-2,-2,-2,0,0,2,0,-1
1570180188956269,-2,-1,1,0,-4,-1,0,-1
1570180188956269,0,1,1,0,0,-3,-1,-1
1570180188957082,1,-1,0,0,0,0,1,-1
1570180188957082,0,-1,-1,0,-1,-3,-4,3
1570180188979163,-4,0,-1,-2,0,-1,5,0
1570180188979163,1,1,1,-1,0,-1,-1,-1
1570180188980106,0,1,-1,0,-1,0,0,-1
1570180188980106,-1,-2,-2,0,-1,0,4,-4
1570180188993979,0,-1,-2,0,0,0,-4,-1
1570180188993979,-1,-2,-2,-3,-1,-1,-2,-1
1570180188993979,0,0,-1,0,0,-2,-1,0
1570180188993979,-1,-1,-3,0,1,1,1,-2
1570180189016964,2,-1,0,-1,0,0,-2,1
1570180189016964,-2,-1,0,1,0,0,-1,1
1570180189016964,-1,-1,-1,0,-2,1,0,0
1570180189016964,0,0,1,0,-2,0,-1,0
1570180189039057,0,1,-1,-2,-3,-3,-2,1
1570180189039057,-3,1,0,-1,-1,0,1,-3
1570180189039851,-1,-1,-3,-2,0,0,1,1
1570180189039851,0,0,0,0,1,0,-1,1
1570180189052996,0,-2,-2,-1,1,1,-2,-2
1570180189052996,1,-1,-1,0,-1,0,0,1
1570180189061041,0,-1,-1,-1,1,-2,-1,1
1570180189061041,0,0,-1,-2,-3,-2,-3,1
1570180189075769,-1,-1,0,0,0,0,1,1
1570180189075769,-1,-1,0,-1,-4,-2,-2,0
1570180189076759,-5,0,0,0,-2,0,9,-16
1570180189076759,-1,0,-1,-2,-1,0,-1,0
1570180189107035,-1,-1,-1,1,2,2,2,-1
1570180189107035,3,-1,0,0,0,-3,-7,8
1570180189107669,0,0,-2,-1,-1,-1,0,0
1570180189107669,0,-1,1,0,0,-1,-3,0
1570180189113998,6,2,1,-1,-1,0,-2,-1
1570180189113998,-3,-2,-2,0,-1,2,7,-2
1570180189114651,1,0,0,1,-2,0,-4,0
1570180189114651,-1,-2,-1,-1,1,-2,-2,2
1570180189136640,-2,0,-1,-1,-3,-2,-3,2
1570180189136640,1,-2,1,-2,2,0,-2,-4
1570180189136640,1,-1,0,0,3,0,-3,2
1570180189136640,0,1,2,-1,-3,2,0,-2
1570180189159538,-1,0,-1,-2,-1,-2,0,-3
1570180189159538,-1,1,-1,-2,-5,-2,-1,-2
1570180189160319,0,0,1,-2,-1,-1,-4,2
1570180189160319,-1,-2,-3,0,0,-1,1,-2
1570180189173499,6,2,1,-1,-4,-3,-14,12
1570180189173499,0,1,0,1,5,0,-3,-1
1570180189181472,2,-2,-3,-1,-1,-1,0,2
1570180189181472,0,1,0,-1,1,-1,-1,0
1570180189196517,-4,-1,1,0,-6,1,5,-9
1570180189196517,-1,-2,-1,-2,-5,-4,-1,-2
1570180189196517,0,1,0,0,-1,0,-3,2
1570180189196517,-2,-1,-1,-2,-1,0,1,-1
1570180189219544,-2,0,-1,0,2,1,2,-4
1570180189219544,-2,-1,-1,2,1,1,2,-2
1570180189220369,0,-1,-1,-1,-4,0,1,-3
1570180189220369,1,-1,-2,-1,1,-3,-2,-2
1570180189233395,-1,-1,-2,-2,0,-1,0,-1
1570180189233395,1,0,-2,0,1,1,0,1
1570180189241650,1,-1,-1,-2,-2,-2,0,3
1570180189241650,0,0,0,0,-2,0,1,-2
1570180189256433,-1,-2,-1,0,4,-1,0,0
1570180189256433,1,-1,-1,0,-4,-1,2,-1
1570180189257272,-2,0,0,0,2,0,-3,0
1570180189257272,-1,-1,0,0,-1,0,-1,-1
1570180189279384,-1,-1,-1,-2,-2,-4,-2,-4
1570180189279384,-2,0,-2,-1,8,2,1,0
1570180189280208,0,-2,2,-1,-4,0,0,-1
1570180189280208,-1,-1,-1,-2,-1,-1,0,0
1570180189293338,-1,1,0,1,1,1,-3,-1
1570180189293338,1,0,1,1,-1,-1,0,0
1570180189301159,-3,-1,-3,0,0,0,0,2
1570180189301159,0,-1,-2,-1,-3,0,0,1
1570180189316259,1,-1,-1,-1,-1,-1,0,-2
1570180189316259,1,0,0,0,-3,-7,0,0
1570180189317112,0,-2,-1,-1,0,4,-1,-1
1570180189317112,-2,-2,-1,0,0,-2,0,-1
1570180189339262,0,-2,-2,-1,0,3,0,1
1570180189339262,-1,1,-2,1,-1,0,-1,-1
1570180189340055,-3,-1,-4,-2,-4,-2,2,-6
1570180189340055,3,3,1,2,2,-1,-9,10
1570180189353016,-1,-2,-2,-2,2,-1,2,1
1570180189353016,-3,0,0,-2,-2,0,0,0
1570180189361306,-3,-2,0,-1,-2,-3,6,-5
1570180189361306,0,-1,-1,-1,-1,0,2,-3
1570180189376085,-3,-2,-1,1,2,-1,0,0
1570180189376085,3,1,-2,-1,-4,-1,-2,2
1570180189376949,1,0,0,1,3,-1,-3,2
1570180189376949,-1,-1,-1,-1,-3,-1,2,-3
1570180189399056,-3,0,0,-2,-3,1,4,-2
1570180189399056,-1,-1,1,0,1,1,-1,-2
1570180189399889,0,1,2,1,2,-3,-3,2
1570180189399889,-1,-1,-1,-1,-1,-1,0,-1
1570180189413169,0,-1,-1,0,-1,0,0,-2
1570180189413169,-2,-1,-1,0,-2,0,-2,-1
1570180189421163,-1,-1,-1,1,2,0,-4,-1
1570180189421163,0,0,-1,-1,-1,0,0,0
1570180189435944,0,0,0,1,1,-1,-1,-1
1570180189435944,1,-1,-1,-4,-2,0,2,1
1570180189436790,-1,-3,-3,0,-2,-2,-1,3
1570180189436790,-1,-1,-1,2,7,-2,0,-4
1570180189459727,1,-1,0,-1,-1,-2,-1,-2
1570180189459727,-1,-3,-2,-2,2,2,1,2
1570180189459727,-1,1,-2,-4,-3,0,1,2
1570180189459727,0,-1,1,-1,-2,1,-3,-2
1570180189488649,2,2,0,1,-1,-3,0,-2
1570180189488649,0,1,0,3,-1,0,1,-9
1570180189489761,2,-2,-2,-1,-1,0,-8,14
1570180189489761,3,1,0,-1,-3,-4,-12,14
1570180189498031,-2,2,-1,1,0,1,-2,-2
1570180189498031,-3,-2,0,-1,-2,1,6,-3
1570180189498624,0,0,-1,0,0,-1,1,-2
1570180189498624,-2,-2,-2,0,0,-1,3,-4
1570180189519575,-1,-1,-1,0,0,-1,-4,3
1570180189519575,-2,0,-1,-3,-9,-2,-3,3
1570180189519575,-1,0,2,0,1,-3,0,-5
1570180189519575,1,-1,-1,-1,-2,0,2,0
1570180189549493,0,-2,-1,-1,1,-2,2,-2
1570180189549493,1,-2,-2,-1,0,2,1,3
1570180189549493,1,0,1,0,-2,-2,-2,-3
1570180189549493,-2,0,0,-1,-3,0,2,-6
1570180189556591,1,0,1,0,-1,0,-2,1
1570180189556591,0,1,0,-1,4,-1,-3,1
1570180189556591,0,0,-1,-2,-3,-1,0,0
1570180189556591,1,0,-1,0,2,2,1,-1
1570180189579562,-1,-2,-3,-3,-2,-2,1,0
1570180189579562,-2,-2,-1,0,2,1,-1,-1
1570180189580404,-2,-1,-3,1,0,1,2,-2
1570180189580404,-2,0,-1,-1,-2,-2,2,-5
1570180189601517,0,-1,0,-1,-4,0,-3,2
1570180189601517,-1,-2,-3,0,1,-2,-3,-1
1570180189602350,1,0,1,0,7,1,-1,-2
1570180189602350,0,-1,-1,-2,-6,-3,-3,-1
1570180189616315,-2,-2,-1,0,-2,1,1,0
1570180189616315,2,0,1,0,-1,0,-2,-1
1570180189616315,1,0,-1,-2,1,1,-1,-2
1570180189616315,-1,-2,0,0,4,1,0,-2
1570180189639420,0,0,1,0,0,0,1,-1
1570180189639420,0,-1,-3,-2,-3,-2,0,2
1570180189640252,2,2,1,-1,-1,-1,0,0
1570180189640252,-2,-1,-1,1,-1,-2,1,1
1570180189662238,0,0,-1,-2,-2,0,-2,-1
1570180189662238,0,0,0,-1,1,0,0,-1
1570180189662238,-3,-2,-1,-3,-1,0,0,0
1570180189662238,-1,-1,-1,-2,1,-1,0,-1
1570180189676147,-2,0,0,-2,-2,-2,-2,-2
1570180189676147,-1,1,0,0,1,0,-2,0
1570180189677144,0,-2,0,1,-2,-2,-1,0
1570180189677144,1,1,0,2,7,0,1,-2
1570180189699239,-1,-2,-2,-2,-4,1,1,-1
1570180189699239,-2,0,1,0,-1,0,5,-7
1570180189700369,0,-2,-1,-1,-2,-1,0,2
1570180189700369,-2,-2,-2,-1,3,2,1,-1
1570180189722331,3,1,-1,1,1,-1,-14,16
1570180189722331,-3,-1,-2,0,-1,-2,-3,1
1570180189722331,0,0,-1,0,-1,0,0,-2
1570180189722331,-1,-2,-2,-1,-4,1,4,1
1570180189736034,0,1,1,0,1,-1,3,-6
1570180189736034,1,-1,0,-2,-1,-1,-4,-1
1570180189736991,-2,0,-2,-2,-3,-1,-1,1
1570180189736991,0,1,0,0,-6,-2,0,-2
1570180189759926,-1,-2,1,3,4,1,2,-4
1570180189759926,0,0,-1,2,0,-2,-3,0
1570180189759926,-3,0,0,1,1,-1,2,-4
1570180189759926,-1,-1,-1,-2,-11,-2,-1,-2
1570180189781880,0,1,-1,-1,-2,-6,1,-4
1570180189781880,0,-1,-2,-2,-1,3,-3,3
1570180189782862,-2,-2,-3,-3,-1,-1,-1,-2
1570180189782862,-5,-3,-2,-1,0,1,13,-14
1570180189795953,-2,-2,-1,-1,-1,1,0,1
1570180189795953,0,-1,-2,-1,-1,-2,0,-1
1570180189796831,1,1,0,1,0,2,-1,2
1570180189796831,4,2,0,-1,2,-2,-8,1
1570180189819771,-3,-3,-3,-1,-2,1,1,-3
1570180189819771,0,0,-2,0,3,-1,-2,-3
1570180189819771,-2,-3,-1,-1,0,2,2,-3
1570180189819771,2,1,1,-1,3,0,-3,3
1570180189842087,1,0,-1,-1,-3,2,3,-2
1570180189842087,3,3,2,3,-1,-1,-6,2
1570180189842702,0,1,1,1,0,-1,0,-1
1570180189842702,0,-2,-1,0,-1,0,-3,1
1570180189855666,0,0,2,-1,0,-2,-2,-1
1570180189855666,-1,1,-1,0,4,1,1,-1
1570180189856664,-1,0,1,0,-3,-2,0,-2
1570180189856664,0,0,-1,-2,0,0,0,2
1570180189879604,-1,1,-1,1,0,0,2,-1
1570180189879604,-1,-2,-3,0,0,-2,0,0
1570180189879977,-1,2,1,1,-2,-1,-3,-3
1570180189879977,-1,-1,-2,-1,-2,-4,-1,5
1570180189901603,0,-1,-1,-2,1,5,-1,1
1570180189901603,-1,-2,-1,-3,-4,-1,0,0
1570180189902549,2,0,-3,-1,1,-1,-5,5
1570180189902549,-2,-2,1,2,-1,-1,0,0
1570180189916505,-1,-1,-1,0,0,-2,-1,-1
1570180189916505,0,-3,-2,-2,-2,1,1,-1
1570180189916505,2,-1,-1,0,-1,2,-1,3
1570180189916505,-1,-1,-3,0,1,-1,-1,-3
1570180189939647,0,0,-1,-3,-2,-2,0,2
1570180189939647,0,-2,-1,-3,-3,1,1,1
1570180189940443,-3,0,-2,-3,-1,-2,3,-4
1570180189940443,0,1,-2,0,0,-1,-3,-1
1570180189961562,-1,-1,-2,0,0,0,1,-1
1570180189961562,-1,-1,-1,1,-3,-2,1,0
1570180189962385,-1,-3,0,0,4,1,-1,-2
1570180189962385,-1,0,-1,-2,-11,-2,-1,-2
1570180189976353,-1,-2,-3,-2,-2,-1,-1,1
1570180189976353,-5,-1,-1,-2,-1,1,13,-17
1570180189976353,-1,-1,-1,0,0,-2,-4,0
1570180189976353,2,1,-1,0,0,0,-3,0
1570180189999444,0,-1,-1,0,1,0,-2,-2
1570180189999444,-2,0,0,-2,-2,-2,-2,4
1570180190000283,-2,-1,-2,-1,-3,-1,0,1
1570180190000283,-2,-1,1,-1,2,0,1,-2
1570180190022274,-2,-1,-2,-1,0,-2,2,-3
1570180190022274,2,1,1,-1,0,-1,-3,4
1570180190022274,0,0,1,0,-1,-1,-2,-2
1570180190022274,0,-3,-1,0,2,0,-2,2
1570180190036363,-2,0,3,2,-4,-4,-1,-6
1570180190036363,1,-2,-4,-3,1,4,-4,6
1570180190037183,0,2,0,-2,-2,-2,1,-1
1570180190037183,-1,-3,-3,-2,-1,1,1,0
1570180190059305,-1,0,1,0,0,-1,-2,1
1570180190059305,0,-2,-2,-1,-3,-2,-2,1
1570180190060133,-1,-1,0,0,-1,0,2,-11
1570180190060133,5,4,1,1,2,-1,-13,10
1570180190082357,-2,-1,-1,-3,3,2,3,1
1570180190082357,0,2,2,3,0,-3,-1,3
1570180190082357,0,-2,-1,-1,0,-1,3,0
1570180190082357,-2,-1,0,0,-2,-2,2,-3
1570180190096196,1,1,0,-1,0,0,-3,-1
1570180190096196,0,1,2,0,0,-1,-4,0
1570180190097024,-2,-2,-1,-1,-2,-1,-3,-2
1570180190097024,0,1,1,0,3,-1,2,-2
1570180190117972,1,-1,0,1,-2,0,-3,-1
1570180190117972,-1,-3,-3,-1,1,0,2,-3
1570180190126126,-1,-2,-1,0,-1,1,0,1
1570180190126126,1,0,1,-1,-1,-1,-2,-3
1570180190141907,-2,-2,-3,-3,-3,2,4,0
1570180190141907,0,0,1,0,-2,-1,0,-1
1570180190142902,2,0,-2,-1,-2,-3,0,0
1570180190142902,-1,0,-3,-1,2,5,-1,-1
1570180190155921,-1,-2,-2,-1,-2,0,0,-1
1570180190155921,-2,0,0,0,2,-2,-1,-1
1570180190164057,-3,0,0,1,7,2,4,1
1570180190164057,-1,-1,-1,0,-3,-1,2,0
1570180190179843,0,-1,0,0,1,-1,-3,-1
1570180190179843,0,-1,1,0,-2,-1,-3,1
1570180190180800,-1,-1,-1,-1,1,1,1,-1
1570180190180800,-1,-2,-1,-2,-3,-2,0,-3
1570180190201964,0,0,0,-1,-1,-1,-1,-2
1570180190201964,0,1,1,1,-1,-1,-2,-1
1570180190202751,0,-1,-1,-1,-3,0,-3,1
1570180190202751,-3,-2,-1,-3,0,-1,1,-2
1570180190215780,-1,-2,-1,-1,-2,2,-1,0
1570180190215780,-1,1,-1,-2,-2,-1,0,-2
1570180190224684,0,-1,-2,1,0,1,-1,1
1570180190224684,-1,1,0,0,-1,-2,-2,-1
1570180190239736,-1,-1,0,2,1,-1,-2,-3
1570180190239736,0,-2,-1,-1,-1,0,0,-1
1570180190240774,0,-1,-1,1,-2,-1,-2,0
1570180190240774,-1,-1,-1,-1,0,-1,3,-2
1570180190262839,-1,0,0,-1,-1,-2,-1,0
1570180190262839,-1,-1,-3,0,0,0,-1,-2
1570180190268679,-2,-1,-2,-1,-3,0,5,-10
1570180190268679,-1,-1,-1,1,2,1,0,-1
1570180190275545,-1,0,0,0,5,-1,1,0
1570180190275545,-1,0,-1,-1,-8,-3,-5,1
1570180190284520,-3,0,-1,-2,-2,-5,1,1
1570180190284520,1,1,0,-1,-1,6,2,-1
1570180190299535,-2,-1,-1,1,0,0,-1,0
1570180190299535,-2,-1,-2,-2,2,1,3,-4
1570180190300479,0,-1,1,-1,-1,-2,-1,4
1570180190300479,2,4,4,2,-1,-2,-3,-4
1570180190321625,1,-2,-1,-2,-1,0,-1,1
1570180190321625,-3,-2,-2,1,2,0,0,1
1570180190328540,2,1,-3,-2,-2,1,-3,2
1570180190328540,-2,-2,-1,0,0,-1,-1,1
1570180190335570,0,0,0,-1,-3,1,2,-3
1570180190335570,0,-2,-1,-1,0,-1,1,-1
1570180190344368,-1,0,1,0,0,-1,-3,1
1570180190344368,-6,-3,-1,-2,-1,0,16,-25
1570180190359649,1,2,1,1,-1,-3,-7,1
1570180190359649,-1,-2,-1,-2,4,0,0,0
1570180190361045,-1,0,-1,-1,-3,1,-3,1
1570180190361045,0,-2,-1,-1,-2,-2,-2,2
1570180190381270,0,0,-1,0,-2,-1,1,-2
1570180190381270,0,0,0,0,0,2,0,-1
1570180190383258,0,0,0,-1,-3,1,2,-3
1570180190383258,-1,-1,-2,-2,-1,-1,-4,5
1570180190395461,2,0,-1,0,1,-2,-2,-2
1570180190395461,-1,-2,-2,-1,-2,-3,-2,-1
1570180190404217,0,-1,-1,-1,2,2,-2,-1
1570180190404217,2,-2,-2,-2,-2,-2,-2,4
1570180190419373,-2,-2,-1,-3,-4,0,1,1
1570180190419373,-1,-1,-1,0,-1,-2,1,-2
1570180190421157,0,-2,-1,-1,-6,-2,-1,-3
1570180190421157,-1,-1,0,4,5,0,-2,1
1570180190442214,3,-2,-2,0,-2,-1,-6,11
1570180190442214,1,0,0,-1,-1,0,1,2
1570180190443247,-1,-1,0,0,8,-2,-4,2
1570180190443247,1,-1,-2,-1,-8,-2,-4,8
1570180190464216,-2,-1,1,-2,-1,-2,1,-4
1570180190464216,-1,-1,1,1,-1,1,3,0
1570180190466202,0,-2,0,1,2,0,2,1
1570180190466202,-2,2,-1,0,1,-1,0,-4
1570180190479142,-2,-1,-2,0,2,0,0,-1
1570180190479142,-1,0,-1,1,-3,0,0,0
1570180190480997,-2,-1,0,-1,-3,-1,1,-1
1570180190480997,3,1,-1,0,0,-2,-3,2
1570180190501940,-2,0,-2,-2,-3,1,1,-3
1570180190501940,2,1,1,1,-1,-1,-4,2
1570180190502938,1,-1,0,2,-1,-1,1,-1
1570180190502938,-3,-1,0,-1,1,1,-2,-1
1570180190523897,1,-1,0,1,0,0,1,-1
1570180190523897,-1,-2,-2,0,8,0,1,-3
1570180190525876,-1,0,1,-1,-6,-1,-1,-2
1570180190525876,-1,-2,-2,-2,-1,-2,2,-1
1570180190539839,-4,-2,1,0,-1,1,6,-9
1570180190539839,0,-1,0,0,-2,-2,-2,1
1570180190541149,0,0,-1,-2,0,-1,0,0
1570180190541149,-1,1,0,0,1,-1,-4,5
1570180190561984,-1,0,0,0,-1,-1,2,-3
1570180190561984,0,-1,-1,-1,-4,0,0,-1
1570180190562780,0,-1,-1,1,-1,1,-1,0
1570180190562780,-3,-2,-1,0,1,-1,2,-5
1570180190584767,2,-1,-2,0,0,0,-6,5
1570180190584767,-1,-1,-1,-1,-3,-3,-1,-2
1570180190585717,1,0,0,-1,-3,-2,-1,-1
1570180190585717,2,0,0,-2,8,1,-1,-1
1570180190597823,0,0,0,-2,-5,-3,0,-1
1570180190597823,3,3,-1,0,1,0,-3,2
1570180190606662,0,-2,-1,-2,0,0,0,0
1570180190606662,1,-1,1,1,-1,-1,-1,-2
1570180190621821,-2,-1,-1,-1,0,-2,-2,1
1570180190621821,0,-1,2,-1,-5,-3,2,-4
1570180190623620,-2,-1,-2,-2,0,3,1,-3
1570180190623620,0,1,1,1,0,-1,3,-4
1570180190644617,1,1,0,0,0,0,-10,4
1570180190644617,-1,0,-1,-1,-1,-2,-3,-2
1570180190646189,2,0,-2,-2,1,-1,-1,-1
1570180190646189,-3,-2,-1,-4,-1,0,2,-2
1570180190658620,-2,-1,-2,-1,-1,0,3,-2
1570180190658620,-1,-1,-1,-1,0,1,-1,-1
1570180190665506,-2,1,0,1,0,-1,-1,0
1570180190665506,1,0,0,-2,1,-1,-5,1
1570180190682464,0,-2,-2,0,0,-1,2,-3
1570180190682464,1,-1,0,0,0,0,-1,1
1570180190683644,-1,-1,-1,-1,0,-3,-1,-2
1570180190683644,-1,-1,-1,0,-4,-1,-2,2
1570180190704578,-4,-1,0,-2,0,0,3,-5
1570180190704578,-1,-3,-3,-1,-1,1,2,1
1570180190705648,0,0,2,-2,0,-6,-1,1
1570180190705648,0,-1,-1,-1,-2,3,1,-1
1570180190718409,-1,-1,-2,-1,-2,-1,-2,2
1570180190718409,1,-1,-1,-2,-3,-1,-6,7
1570180190725399,1,0,-2,-1,2,0,-3,2
1570180190725399,-1,-3,-2,0,-5,0,0,0
1570180190742297,0,0,1,2,5,0,-3,3
1570180190742297,-3,-2,-2,-1,-9,-3,2,-2
1570180190743451,-1,-1,-1,-3,-1,-1,-1,-1
1570180190743451,-1,-1,0,0,-3,-1,-1,-1
1570180190764245,0,-2,-1,-2,0,2,2,-3
1570180190764245,-1,1,2,-1,2,2,-1,-5
1570180190770429,-1,-3,1,2,2,-1,1,-2
1570180190770429,0,-3,-2,0,-2,-3,2,0
1570180190778403,0,0,0,-1,-1,-2,1,-1
1570180190778403,-2,-2,-1,-2,0,0,1,-2
1570180190785186,-1,1,-1,-1,-4,1,-1,1
1570180190785186,-2,1,1,-1,0,0,2,-2
1570180190802198,-1,0,0,-1,-1,-1,0,-4
1570180190802198,2,1,0,0,2,-3,-10,10
1570180190803480,0,0,-2,0,1,-1,-1,0
1570180190803480,1,0,-2,-2,0,2,-3,0
1570180190824088,1,0,0,-1,0,-2,1,-1
1570180190824088,-3,-4,-3,-1,0,3,6,-3
1570180190826074,-3,-1,0,0,-2,2,0,-2
1570180190826074,-1,1,0,2,2,-4,-5,3
1570180190839090,1,2,-1,-3,-12,-1,-4,2
1570180190839090,-1,0,0,0,2,-1,1,-4
1570180190845219,0,0,1,-1,1,-2,-1,-1
1570180190845219,1,-2,-2,-2,-2,0,1,-1
1570180190862185,-1,-2,-1,-1,1,0,0,-1
1570180190862185,-2,-1,-1,0,0,0,1,-3
1570180190863363,-1,0,-1,-1,0,1,-1,-1
1570180190863363,0,0,0,0,-2,0,-2,-1
1570180190884479,0,0,-1,1,0,-2,-2,0
1570180190884479,-1,0,0,-1,-2,-1,-1,1
1570180190885914,0,-3,0,-2,-2,0,0,-1
1570180190885914,1,0,0,-1,0,-1,1,0
1570180190899073,-1,1,0,0,2,1,3,-2
1570180190899073,2,1,0,-2,-1,0,-8,4
1570180190905914,1,-1,-3,0,-1,-2,-4,2
1570180190905914,0,0,1,-1,-1,-1,1,-2
1570180190922065,-2,-3,-1,-2,-1,-1,2,-1
1570180190922065,-1,1,-2,0,8,-1,2,-6
1570180190923133,-2,-1,0,0,-5,3,0,-2
1570180190923133,2,-3,0,0,-2,-3,-5,3
1570180190944806,-1,-1,-1,-1,2,-2,-6,2
1570180190944806,-1,-3,0,0,-1,-1,1,-2
1570180190945756,-1,-3,-2,-3,0,-2,1,1
1570180190945756,-2,0,-1,-1,-1,-1,2,-2
1570180190957727,0,1,0,0,-1,1,0,-2
1570180190957727,-2,-3,-2,-1,-4,-1,2,-2
1570180190967282,0,0,0,0,3,-1,1,-4
1570180190967282,-1,1,-1,-1,-2,-1,0,0
1570180190980889,0,-3,-2,1,0,-2,0,0
1570180190980889,-1,1,0,-2,-3,-1,-1,1
1570180190989770,-3,-1,-1,0,-2,0,0,-2
1570180190989770,0,0,-1,-1,3,0,-1,-1
1570180191004694,0,-1,-3,0,-8,-2,-1,2
1570180191004694,-1,-2,-3,-2,-3,0,-5,2
1570180191005604,0,2,0,-1,0,-1,-1,0
1570180191005604,-1,-2,-1,0,-1,-3,-2,0
1570180191017771,-1,0,0,-1,3,0,0,1
1570180191017771,1,2,0,1,-4,-2,0,-3
1570180191026543,-1,-1,0,0,1,-4,3,-1
1570180191026543,2,-1,0,-1,0,6,-2,5
1570180191041705,-2,-3,-1,-3,-2,-2,1,-2
1570180191041705,-1,0,-1,0,-2,0,0,-3
1570180191043560,0,-1,0,1,1,-1,-1,0
1570180191043560,-3,0,0,0,-2,-1,4,-6
1570180191064486,0,0,0,0,2,0,0,-1
1570180191064486,-1,0,0,-2,-2,-1,0,-1
1570180191065868,1,-1,0,-2,-2,0,-2,-2
1570180191065868,-2,1,-1,-1,-3,-2,-3,-1
1570180191077666,-2,1,1,0,-2,2,-3,-2
1570180191077666,-1,-1,-3,0,1,-1,-2,1
1570180191087375,1,0,1,0,-1,2,-1,2
1570180191087375,-2,0,0,-1,1,0,-3,-2
1570180191101340,-7,-4,-3,-4,0,0,10,-12
1570180191101340,0,0,-1,-2,2,0,1,-4
1570180191103396,-2,-2,-1,-2,-3,-2,1,0
1570180191103396,2,1,-1,-1,-3,-3,-2,4
1570180191124284,1,-1,-1,0,1,2,0,4
1570180191124284,0,-2,-1,-2,0,0,1,-2
1570180191125582,-1,1,-2,-2,-2,-1,-2,0
1570180191125582,-3,-1,-1,-1,-1,-3,-3,-2
1570180191138296,1,1,-1,0,1,2,0,2
1570180191138296,0,0,0,0,-1,0,0,1
1570180191147214,0,0,-2,0,-2,1,1,0
1570180191147214,0,0,-1,-1,1,-1,1,-2
1570180191162226,1,-2,0,-1,-1,-1,-4,-1
1570180191162226,0,1,-1,1,-2,-1,-1,2
1570180191163369,-2,-1,1,2,4,-1,1,-1
1570180191163369,1,-2,-1,0,-4,2,-1,3
1570180191184342,0,-1,0,2,-1,-2,-3,0
1570180191184342,2,1,2,0,-2,-1,-1,1
1570180191186114,1,0,-1,0,1,-1,1,-1
1570180191186114,-2,-1,-2,0,0,1,1,0
1570180191198077,4,1,1,0,1,-1,-7,6
1570180191198077,-2,-2,0,-3,0,-2,-2,-2
1570180191207061,-2,-1,-1,-1,0,0,-2,-3
1570180191207061,1,-2,1,0,0,0,-1,-1
1570180191222132,-3,1,-1,-1,1,0,2,-4
1570180191222132,-2,-3,0,0,-1,-1,1,-1
1570180191223019,-1,-1,-2,0,-3,-1,-1,-1
1570180191223019,0,-2,0,-2,-1,-1,2,-3
1570180191244192,-2,-1,-2,-3,-2,2,0,0
1570180191244192,1,-1,-1,-1,1,-1,1,0
1570180191245949,2,1,-2,-1,-4,-3,-6,4
1570180191245949,0,1,-1,0,4,-2,0,-2
1570180191258112,-1,-1,-2,-2,-11,-4,-1,0
1570180191258112,-1,0,-1,-1,-2,-3,-5,-1
1570180191273076,-5,-3,-3,-1,-1,1,10,-10
1570180191273076,0,0,-1,0,1,-1,-1,-1
1570180191281860,-2,0,-1,-2,3,-2,-3,-2
1570180191281860,0,0,0,2,2,1,0,0
1570180191282852,-2,1,-1,-1,-3,-2,-2,-2
1570180191282852,-1,1,-1,-1,1,0,-2,-1
1570180191304053,-1,-1,0,2,1,-1,0,-1
1570180191304053,0,-3,-4,0,-1,1,2,-5
1570180191305796,0,-1,0,0,0,0,-1,2
1570180191305796,-1,-1,-1,-1,-5,-1,-1,0
1570180191317758,0,1,2,-1,0,0,-1,1
1570180191317758,1,-1,1,-2,-1,-1,1,-2
1570180191326744,0,-2,0,-1,-1,0,-3,1
1570180191326744,0,-2,-1,0,5,3,0,1
1570180191342053,1,-2,0,-1,-7,-2,0,0
1570180191342053,-1,2,1,-1,-1,-2,-2,-1
1570180191343689,-4,-4,-4,-3,1,6,5,-2
1570180191343689,-2,-1,0,0,0,-1,0,0
1570180191364647,0,1,-2,-1,1,1,0,-1
1570180191364647,1,0,0,0,0,0,-3,4
1570180191365632,1,0,1,-2,-5,-3,-2,-2
1570180191365632,-3,-1,-2,1,2,-2,-1,0
1570180191386751,-2,-1,-1,1,2,2,-1,0
1570180191386751,-3,-2,-1,-1,-1,0,4,-5
1570180191388573,0,0,-1,-1,0,-1,-1,-1
1570180191388573,0,0,-1,-1,-3,-1,0,-2
1570180191401734,0,0,0,1,0,-2,-3,-1
1570180191401734,-1,0,0,0,2,-1,0,-2
1570180191403543,1,1,1,1,1,-2,-4,0
1570180191403543,0,-3,-1,-2,-2,0,-1,1
1570180191424666,-1,-2,-3,-3,-9,-2,2,-2
1570180191424666,0,-3,0,0,-4,-2,-1,3
1570180191425549,-1,-1,1,0,0,0,-1,1
1570180191425549,-1,1,1,-1,-4,-2,1,-2
1570180191463368,3,-2,1,-1,5,-1,-13,16
1570180191463368,-2,-2,-2,-1,0,-3,3,1
1570180191464368,-1,0,0,0,-3,3,-4,-2
1570180191464368,-1,-1,0,1,0,-1,-3,-3
1570180191465371,0,-1,-2,-2,2,0,5,-4
1570180191465371,-1,1,0,2,1,1,-1,-1
1570180191469355,0,-1,-1,-1,2,-3,0,4
1570180191469355,-1,-1,-2,-2,-3,-2,0,0
1570180191484323,-2,0,1,-1,1,-1,0,-5
1570180191484323,-2,-1,-1,-2,-3,0,-3,-1
1570180191485342,-1,-3,1,0,3,-2,1,-3
1570180191485342,-4,0,-1,0,-3,2,6,-9
1570180191506271,3,1,0,2,-1,-2,-10,7
1570180191506271,2,-2,-1,2,2,1,1,2
1570180191508274,-1,-1,0,-1,-3,-1,-3,0
1570180191508274,-1,1,0,-1,-3,-1,1,-1
1570180191522245,-2,-1,-2,0,7,3,1,-4
1570180191522245,1,-1,-2,0,-2,0,-1,-2
1570180191523213,2,0,-2,-1,1,-2,-3,0
1570180191523213,-1,-3,0,0,1,0,-3,1
1570180191544353,-1,-2,-2,0,1,-1,4,-6
1570180191544353,0,-1,0,-1,0,2,-3,2
1570180191546148,-2,-2,0,-1,-1,-1,2,-1
1570180191546148,1,0,-1,0,4,-1,-3,1
1570180191567153,-2,-1,-2,-1,-2,0,3,-1
1570180191567153,-2,-1,-2,0,2,-1,0,-2
1570180191568247,3,0,2,2,0,0,0,2
1570180191568247,1,-1,-1,1,0,-2,-1,2
1570180191581104,-2,0,1,-2,-2,-2,0,0
1570180191581104,0,2,-1,-2,-3,0,-3,-1
1570180191588254,-1,-1,-2,-1,0,-1,1,-4
1570180191588254,8,3,2,-1,-2,-2,-16,13
1570180191604203,0,0,0,-1,3,0,2,-4
1570180191604203,0,-2,-4,-3,-1,2,1,4
1570180191605987,0,0,0,1,0,-1,-4,3
1570180191605987,-2,-2,-3,1,-4,0,3,-5
1570180191627152,-2,0,1,0,1,-2,-1,-4
1570180191627152,-1,-1,1,0,-1,-1,-1,1
1570180191627931,-1,-1,-2,-2,-3,-1,2,-3
1570180191627931,-1,-1,-1,-1,0,0,1,-2
1570180191640988,-1,0,0,-1,-3,1,0,-2
1570180191640988,-4,-2,0,-2,-2,-2,0,-3
1570180191647884,-1,-1,-2,1,1,0,0,-1
1570180191647884,-2,0,0,0,-3,-5,0,-2
1570180191663840,-1,-4,-3,-3,-6,2,-1,1
1570180191663840,-1,1,1,2,2,-1,-1,0
1570180191665828,-2,0,0,0,-1,-1,-3,-1
1570180191665828,-1,-1,-1,-1,1,0,2,-6
1570180191686979,-1,-1,1,0,-2,0,-2,-1
1570180191686979,2,0,-1,-3,0,-2,-4,1
1570180191688311,0,-2,0,-2,-9,-1,1,0
1570180191688311,5,1,0,-1,0,-2,-14,11
1570180191701734,-1,-1,0,1,1,-1,-1,0
1570180191701734,-1,0,0,0,-3,1,0,-4
1570180191707765,1,1,-1,0,3,0,-2,0
1570180191707765,-1,-3,-3,-2,-2,1,6,-5
1570180191724724,-1,0,-2,1,0,-3,1,-1
1570180191724724,1,1,-1,-1,0,-1,-5,2
1570180191726172,0,-2,-2,-3,-3,0,-1,-2
1570180191726172,-3,-1,-1,0,0,2,4,-3
1570180191746831,0,-1,0,2,0,-2,0,-2
1570180191746831,-3,0,0,2,-1,-1,2,-6
1570180191747861,0,0,-2,-1,-1,-2,-1,1
1570180191747861,-2,0,1,-2,0,0,2,0
1570180191761595,3,0,0,-1,0,0,0,2
1570180191761595,3,-2,-3,0,0,-1,-2,5
1570180191767687,0,1,0,1,2,0,-2,-2
1570180191767687,1,1,0,0,-1,-4,-12,12
1570180191783632,-1,-2,-1,1,9,3,-5,-2
1570180191783632,-2,-1,-1,-2,-4,-2,0,-2
1570180191791545,1,0,1,0,-1,0,-2,2
1570180191791545,-3,-1,0,0,0,1,6,-6
1570180191806454,0,0,-2,-3,-4,-1,0,-3
1570180191806454,0,0,-1,1,1,0,-1,1
1570180191808445,-1,-2,-1,-1,2,0,0,-3
1570180191808445,-2,-1,0,1,-2,-1,0,-4
1570180191821492,-1,-2,0,-1,-1,-3,1,-1
1570180191821492,-2,-1,-1,0,-2,0,0,-4
1570180191827614,-1,0,0,-1,-3,-1,1,-1
1570180191827614,-4,0,0,0,-2,-2,0,-8
1570180191844527,1,0,0,-1,-2,-1,-1,2
1570180191844527,0,-1,-1,-3,0,1,3,-1
1570180191846147,0,-1,0,0,0,-2,-1,0
1570180191846147,0,-1,0,-2,1,-1,-1,0
1570180191866291,-3,-1,-1,-1,-2,0,1,-1
1570180191866291,0,0,2,-1,-2,-2,0,1
1570180191868287,-6,-3,-3,-5,-1,0,13,-19
1570180191868287,1,-3,-1,-1,3,1,-1,0
1570180191880252,-1,-2,-2,-1,-14,-4,0,-1
1570180191880252,-1,-2,0,1,2,3,-1,0
1570180191889232,1,2,3,1,0,-2,-8,2
1570180191889232,-1,-1,-3,-2,-1,2,3,0
1570180191904419,1,1,0,-1,4,0,-2,-1
1570180191904419,-1,0,-1,0,2,-3,-1,-3
1570180191906186,0,-1,-1,-2,-2,0,-1,5
1570180191906186,-1,-2,-1,1,0,0,1,0
1570180191927184,-2,0,-1,0,-1,-1,-1,0
1570180191927184,-2,-2,-3,-2,-2,-1,3,-3
1570180191928321,0,-1,0,0,1,1,-2,2
1570180191928321,1,0,-2,-2,-1,-1,-2,0
1570180191940101,-2,0,-2,1,9,1,1,-1
1570180191940101,-1,-2,0,0,-1,0,-1,-1
1570180191949326,2,0,-2,2,0,0,-2,4
1570180191949326,0,0,1,0,-1,-1,2,-1
1570180191965103,0,-1,-2,-1,0,2,2,0
1570180191965103,0,1,1,-1,0,-1,-2,0
1570180191966024,-2,-3,-2,-1,1,-1,2,-4
1570180191966024,4,1,1,1,0,2,-11,9
1570180191987142,0,0,1,0,-2,0,1,1
1570180191987142,-1,0,-1,-1,-3,-1,0,0
1570180191988306,-4,-3,-1,-3,0,0,3,-1
1570180191988306,-2,-2,0,-1,-2,0,4,-4
1570180192001080,-1,-1,1,-1,0,0,0,-3
1570180192001080,2,-1,0,-1,4,0,-3,5
1570180192009018,0,-1,0,0,-12,-3,-6,2
1570180192009018,-3,-2,-3,-2,-2,0,1,-2
1570180192024104,0,0,-1,0,-1,0,-3,1
1570180192024104,-2,-1,0,-1,-1,0,1,-3
1570180192025868,1,0,-1,1,4,0,-2,-1
1570180192025868,0,-1,-2,0,-3,-3,-1,-1
1570180192046811,-1,-1,0,0,-4,-1,3,-8
1570180192046811,1,-1,-1,-1,-2,0,-2,0
1570180192048805,-1,0,0,0,2,0,-1,0
1570180192048805,-2,-1,-1,-1,-3,0,-2,-1
1570180192060951,1,-1,0,1,3,-1,-2,0
1570180192060951,0,-1,-1,-1,-10,-3,-1,-4
1570180192069748,0,0,0,0,-1,-1,-2,2
1570180192069748,-1,-1,0,-1,-2,0,0,-1
1570180192084763,0,-1,-1,0,0,0,-3,1
1570180192084763,-2,-1,-1,0,1,-1,-3,-1
1570180192085711,0,1,1,0,0,-2,-3,-2
1570180192085711,-1,0,0,-1,-2,-2,0,-3
1570180192106848,0,-1,-1,-1,-1,0,0,1
1570180192106848,-1,0,1,-1,-1,-5,-1,-2
1570180192108645,-1,0,-3,-3,0,4,0,2
1570180192108645,0,1,-1,0,0,1,0,-1
1570180192120774,-6,-3,-1,0,2,2,12,-18
1570180192120774,2,-1,0,1,1,0,-1,3
1570180192129867,0,0,0,1,7,-3,-4,-2
1570180192129867,3,0,2,0,-6,-4,-5,3
1570180192144753,-2,0,-1,-2,-1,1,4,-3
1570180192144753,-2,-1,-3,-2,-6,1,0,1
1570180192145548,-2,-1,-1,-1,1,2,1,-1
1570180192145548,-4,-2,-1,-1,2,-1,1,-2
1570180192166488,1,1,-1,1,0,-1,-6,3
1570180192166488,0,-2,-2,-2,3,0,-1,1
1570180192168490,0,-1,0,-1,-5,-2,-3,2
1570180192168490,0,1,0,0,1,0,1,-3
1570180192180806,1,-2,-2,-1,-4,-2,-6,4
1570180192180806,0,0,-1,0,1,1,1,-1
1570180192189659,0,0,-3,-2,-4,1,2,-1
1570180192189659,-2,-2,-1,0,1,0,1,-7
1570180192204605,5,3,1,0,2,-3,-10,13
1570180192204605,1,0,0,2,9,-1,1,1
1570180192205388,-1,-1,1,-1,-6,-5,0,-5
1570180192205388,0,-1,-1,-2,-2,3,-1,0
1570180192227328,0,0,1,0,0,-2,-3,-2
1570180192227328,-2,0,0,0,0,-1,0,-6
1570180192228603,2,0,-1,1,2,0,-6,6
1570180192228603,-1,-1,-2,-2,-3,-3,0,1
1570180192240486,2,-1,-2,1,-2,-1,0,-1
1570180192240486,0,-2,-1,-2,-3,0,-1,1
1570180192249790,-2,-2,-2,-1,-2,0,2,-3
1570180192249790,-1,-1,-1,0,-1,-2,-1,-3
1570180192264277,-2,-3,0,-1,-2,0,-2,-1
1570180192264277,-1,0,-1,0,-2,0,1,-1
1570180192266223,-1,-1,-1,-2,0,0,2,-2
1570180192266223,2,-1,-1,-1,3,-4,-15,12
1570180192287224,-1,0,-1,-1,3,2,1,2
1570180192287224,-3,-1,-1,1,-4,-2,0,0
1570180192288656,-2,0,-2,-1,0,0,1,-3
1570180192288656,-3,-1,-1,-1,2,-1,2,-3
1570180192300290,-1,-1,-1,-2,0,-2,0,-1
1570180192300290,-1,-2,-1,0,-1,-2,-4,1
1570180192309110,-1,-2,-2,-1,-1,2,2,0
1570180192309110,-1,1,0,0,0,1,3,-4
1570180192324445,-2,-2,-1,-1,-5,1,0,-1
1570180192324445,0,0,2,1,0,-5,2,-3
1570180192326061,1,1,0,0,1,1,-3,0
1570180192326061,-1,-2,-3,-1,0,-1,4,1
1570180192347010,-1,0,0,-1,-4,0,-3,0
1570180192347010,-1,-2,1,-2,-2,-3,-3,-1
1570180192348003,-1,-1,-2,1,1,-2,-3,-3
1570180192348003,0,-1,0,1,0,0,0,-1
1570180192369134,0,-3,-1,-2,-1,-3,-1,-3
1570180192369134,-1,1,-3,-1,0,1,0,-1
1570180192370943,1,-1,1,-2,-4,-2,-1,1
1570180192370943,0,0,0,2,8,-2,0,-1
1570180192384108,-1,1,-2,1,-2,0,0,0
1570180192384108,-1,0,1,-1,-2,0,0,-1
1570180192386025,-3,-2,-1,0,-1,0,2,-6
1570180192386025,7,1,0,-1,0,-3,-13,16
1570180192407091,-1,0,1,1,-1,0,1,0
1570180192407091,0,-2,0,1,0,1,0,-1
1570180192407844,0,-1,-1,0,1,0,0,0
1570180192407844,-2,-2,-1,-2,0,1,5,-6
1570180192429785,-1,-1,1,-1,0,-2,0,-2
1570180192429785,0,0,0,-1,-5,1,-3,3
1570180192430789,1,-2,0,-1,1,-2,1,2
1570180192430789,-2,-1,-2,-2,-4,1,5,-4
1570180192443986,-1,0,0,-1,4,-1,-1,1
1570180192443986,-1,-1,-3,-1,-9,-4,2,-3
1570180192445744,-1,0,1,-2,-5,-1,-3,1
1570180192445744,-1,1,0,0,-2,-2,-1,-3
1570180192466802,-1,-2,-3,-1,0,1,4,-3
1570180192466802,-1,0,-1,0,5,0,0,2
1570180192468778,1,1,1,0,-2,-3,-2,0
1570180192468778,-3,-1,-1,-4,-3,5,5,-5
1570180192489677,3,1,0,1,-3,-1,-10,18
1570180192489677,0,0,-1,0,2,0,0,2
1570180192490791,-2,-2,-2,0,-2,-4,-2,-1
1570180192490791,-3,1,1,2,2,-2,-2,-3
1570180192503761,1,0,-1,0,0,-2,-1,-6
1570180192503761,0,-1,-1,-2,-1,2,-1,-2
1570180192510689,0,0,-2,-2,0,-1,-1,1
1570180192510689,-2,2,1,1,-3,-2,0,-8
1570180192526701,-1,-2,-1,-1,2,1,1,-1
1570180192526701,1,1,0,-1,-1,0,-2,3
1570180192528525,-1,-1,-2,-1,-1,1,-1,-2
1570180192528525,1,0,0,0,-4,0,1,0
1570180192549700,0,-1,-1,-1,-1,0,0,-3
1570180192549700,-2,0,-1,0,3,1,0,-4
1570180192550963,0,-2,-2,1,1,-1,1,2
1570180192550963,-2,-1,-1,0,2,1,2,-1
1570180192564424,0,-1,-1,-1,-3,-1,-1,-4
1570180192564424,-3,-1,-1,-1,0,-1,3,-4
1570180192570608,-1,2,2,1,-1,0,-1,-1
1570180192570608,-2,-3,-1,-1,-4,-6,-1,0
1570180192586619,-1,-1,-4,-1,1,4,1,-4
1570180192586619,3,-1,1,0,-3,-1,-5,6
1570180192588362,2,1,-1,-3,1,0,1,0
1570180192588362,-2,-2,-2,-2,-6,-2,0,0
1570180192609466,1,-1,-1,0,0,-3,-3,1
1570180192609466,0,-1,0,-3,-2,0,2,-1
1570180192610740,-1,-3,-1,1,1,-1,-2,0
1570180192610740,-1,0,0,1,-1,-1,-3,-2
1570180192624449,-4,-1,-1,0,-2,-3,0,-5
1570180192624449,-1,-1,-1,0,-1,0,-3,-2
1570180192630350,-1,-1,-4,0,0,2,2,2
1570180192630350,0,-1,-2,1,3,1,-2,-1
1570180192646210,0,-1,-1,-2,-2,0,1,0
1570180192646210,-2,0,1,1,1,-2,-2,-1
1570180192648213,0,0,0,0,-2,-2,-2,0
1570180192648213,-2,0,-3,-1,-1,1,5,-5
1570180192669563,-1,-1,0,1,1,1,1,-2
1570180192669563,-1,1,-2,0,7,0,0,0
1570180192671242,2,0,1,1,-6,-3,-12,12
1570180192671242,0,-1,0,0,2,0,-1,0
1570180192684107,1,0,0,-1,-1,2,1,0
1570180192684107,1,-2,0,-1,-2,-2,-2,1
1570180192690095,0,0,2,2,1,1,2,-3
1570180192690095,1,-1,-2,-2,-3,-2,-4,1
1570180192714024,-1,0,-2,-2,0,0,-2,1
1570180192714024,-1,-1,-1,0,-1,1,1,-3
1570180192716019,0,0,-1,-1,-2,-3,1,-4
1570180192716019,2,0,0,-1,-2,0,-2,-1
1570180192729132,0,-2,-1,-2,-1,-1,2,-2
1570180192729132,-1,0,-2,0,1,-1,0,-3
1570180192731140,-2,-2,-1,-1,-1,-1,1,-2
1570180192731140,-1,0,-1,-2,-3,0,-2,2
1570180192743994,-1,-1,0,1,-1,-1,0,-1
1570180192743994,4,0,1,0,-2,0,-6,2
1570180192749980,0,0,-2,0,8,0,0,-1
1570180192749980,1,-1,-2,-2,-4,0,0,-1
1570180192767086,0,0,-1,0,0,-3,-1,0
1570180192767086,-1,0,0,-2,-3,-2,-1,-3
1570180192768330,-3,-1,-2,-3,-1,-1,5,-12
1570180192768330,2,0,1,1,2,0,-7,8
1570180192788830,-1,0,1,-1,-3,-2,-2,-2
1570180192788830,-1,0,-1,-1,-2,-2,1,0
1570180192791021,-3,-1,0,1,-1,0,4,-3
1570180192791021,0,-1,-1,0,2,0,3,1
1570180192803993,-1,-1,-1,1,-1,0,-1,1
1570180192803993,0,-2,-2,0,-1,-4,-1,0
1570180192810781,1,-1,0,-1,-1,4,-2,1
1570180192810781,-3,-2,-2,-2,-2,-1,1,0
1570180192826971,0,-1,1,1,-1,0,-1,-1
1570180192826971,0,-1,-1,-2,-1,1,2,1
1570180192828247,2,0,-2,-1,-2,-1,-1,2
1570180192828247,0,-1,2,-1,-2,0,-3,4
1570180192849663,-2,-1,-2,1,0,-1,1,-4
1570180192849663,-1,-1,-2,1,-1,0,-1,-1
1570180192850927,1,0,-1,-3,-2,-1,-1,2
1570180192850927,4,0,-1,0,-2,-3,-15,16
1570180192862759,2,2,0,-2,-1,-3,-7,1
1570180192862759,0,-1,-1,1,-2,1,-2,0
1570180192871606,-1,-1,-1,-1,2,1,-2,2
1570180192871606,-4,-2,0,0,0,-1,4,-10
1570180192886769,-2,-3,-1,-4,-2,0,2,1
1570180192886769,-1,0,1,-2,3,1,-1,2
1570180192888602,-1,-1,0,-1,-2,-1,0,-2
1570180192888602,-2,-3,-3,-1,1,-1,4,-5
1570180192909564,1,1,-1,-1,-1,-1,0,-1
1570180192909564,-1,0,-1,0,-2,1,2,-3
1570180192910784,0,1,0,-1,-3,-6,-1,-3
1570180192910784,-1,1,0,0,11,2,1,-1
1570180192922479,1,0,0,-1,-8,-1,-2,1
1570180192922479,0,0,-1,-2,-1,1,1,-2
1570180192931593,0,1,-1,0,1,-2,-1,-3
1570180192931593,-1,-2,0,0,1,-1,2,-2
1570180192954426,-1,0,-1,-2,1,-1,0,-4
1570180192954426,-1,-2,1,0,-1,-1,4,-9
1570180192955531,4,0,2,1,-3,-4,-14,9
1570180192955531,-1,1,1,-2,-3,-2,2,-5
1570180192969390,-5,-2,1,1,0,0,-1,-3
1570180192969390,0,0,-2,0,-3,0,2,-2
1570180192970474,-1,-2,-1,0,1,3,4,-2
1570180192970474,0,-1,0,1,-2,-1,1,-2
1570180192983303,1,-1,-1,1,-2,-1,-5,0
1570180192983303,0,2,0,0,2,-2,-4,1
1570180192992284,1,-1,1,0,-1,0,-4,2
1570180192992284,-2,1,1,-2,-10,-3,-1,-2
1570180193006420,1,0,-1,-1,-2,1,4,-1
1570180193006420,-1,0,0,0,1,-2,-3,1
1570180193008237,-1,-1,-1,-1,1,2,2,-1
1570180193008237,0,-2,-1,0,2,-1,2,-1
1570180193029371,-1,0,1,-1,4,1,-2,-2
1570180193029371,-1,-1,-1,-3,-7,-1,-1,-1
1570180193031178,6,0,-1,1,0,-1,-14,18
1570180193031178,0,1,-2,-1,2,4,1,1
1570180193043350,1,-1,-1,1,-1,-3,-3,1
1570180193043350,1,0,-1,1,2,0,-3,2
1570180193052121,-3,-1,0,0,-2,2,7,-6
1570180193052121,0,-1,-2,-1,1,-2,0,0
1570180193067130,-1,-1,1,0,0,0,0,2
1570180193067130,-1,-2,-2,-1,5,0,2,-1
1570180193068185,-2,-2,-1,-3,-4,0,4,-5
1570180193068185,1,1,2,0,-1,0,-3,-1
1570180193089296,-1,-1,-2,-1,-1,0,4,-2
1570180193089296,0,-2,-1,-2,-3,1,1,-1
1570180193091018,-4,-1,-1,-1,3,-1,4,-6
1570180193091018,-1,-3,-1,0,3,2,2,3
1570180193103180,0,0,-1,0,5,1,0,-1
1570180193103180,1,-1,1,-2,-3,-1,-2,1
1570180193111964,-3,-1,0,0,0,-1,0,-2
1570180193111964,-2,-1,-3,-1,-3,0,2,0
1570180193127160,0,0,-1,-2,1,0,1,-1
1570180193127160,3,1,0,0,-1,-1,-12,12
1570180193128668,-1,-2,1,-2,-4,0,0,-3
1570180193128668,-2,-2,0,0,4,0,2,-2
1570180193149071,-3,0,-1,-2,0,1,6,-6
1570180193149071,0,2,1,0,-1,1,3,1
1570180193150996,-2,1,1,1,1,-4,-1,-3
1570180193150996,-1,0,-1,0,-3,-2,-2,1
1570180193162832,-2,0,0,-1,0,0,-3,3
1570180193162832,-3,-1,-3,-2,0,-4,1,-4
1570180193178783,1,0,1,1,-2,-2,0,1
1570180193178783,0,-1,-1,0,-1,-1,1,-3
1570180193187008,0,-1,0,2,-1,0,0,-1
1570180193187008,-1,-2,-2,-1,-2,0,0,-3
1570180193188358,1,-1,-4,0,1,-1,-1,0
1570180193188358,0,-1,-1,-1,2,0,-1,-2
1570180193209777,1,-1,0,-3,-5,-1,-2,0
1570180193209777,0,-1,0,1,1,-2,-1,1
1570180193211107,-2,0,-1,0,0,1,3,-4
1570180193211107,4,1,1,0,7,-2,-13,11
1570180193222672,-1,1,0,1,-5,-2,-4,1
1570180193222672,-3,-1,-3,-2,0,2,3,-5
1570180193231702,-2,-3,-3,-1,1,1,2,-1
1570180193231702,-2,-1,0,0,0,0,2,-5
1570180193246604,-3,-1,0,-1,1,-2,2,-4
1570180193246604,1,-1,0,-2,-2,-3,-4,3
1570180193248692,-2,-1,-1,0,1,-3,-2,-1
1570180193248692,0,-1,-1,-3,-5,3,3,-1
1570180193269667,-1,-3,-2,1,2,1,-2,-1
1570180193269667,-2,-1,2,1,-1,-1,2,-5
1570180193270900,3,-1,-1,-4,-2,-2,-1,1
1570180193270900,-3,0,2,0,-1,-3,0,-5
1570180193291700,-1,0,-2,1,0,-1,0,1
1570180193291700,-1,-1,-2,-1,3,1,0,0
1570180193293474,-1,-1,0,-2,-8,2,-1,0
1570180193293474,-1,-1,-2,-2,-4,0,-1,-3
1570180193306585,0,-1,-2,-2,0,0,2,3
1570180193306585,4,1,0,2,-2,-2,-14,13
1570180193308437,-1,-1,-1,-3,0,-1,-1,0
1570180193308437,-1,-1,-2,-1,-1,0,3,0
1570180193329406,0,1,2,-1,-2,-4,-3,-2
1570180193329406,-3,-2,1,-1,2,1,3,-6
1570180193331283,-1,-1,0,0,0,1,0,0
1570180193331283,0,0,-1,1,1,-1,-4,2
1570180193351357,-4,-2,-3,-3,-5,0,1,-6
1570180193351357,-3,-3,-2,-3,-2,-2,4,-2
1570180193353456,-2,0,0,-1,1,0,-1,-3
1570180193353456,-2,-1,-2,-2,2,-1,3,-2
1570180193366824,0,-1,-2,-3,-10,-2,-2,1
1570180193366824,-1,1,0,0,-1,-1,1,-3
1570180193368273,0,-1,0,1,0,-5,-1,-1
1570180193368273,-1,-1,-1,0,0,4,-2,-4
1570180193389501,0,0,0,-1,3,-1,-1,-1
1570180193389501,-3,-2,-1,-1,1,1,-1,-1
1570180193391214,0,1,1,2,-1,-1,-2,-1
1570180193391214,1,-2,-3,-2,-3,-3,0,1
1570180193412172,1,1,-1,-2,-1,0,-2,0
1570180193412172,-4,-4,-1,-2,-2,1,13,-19
1570180193413696,-2,-2,-4,-1,1,1,0,2
1570180193413696,-1,0,0,0,0,-1,-1,-3
1570180193426231,0,2,1,0,0,-2,-1,1
1570180193426231,0,-4,0,0,1,-2,1,2
1570180193433105,0,-1,-1,-3,-2,0,1,-1
1570180193433105,0,-1,1,-1,8,-1,-4,-4
1570180193449254,1,0,0,-1,-3,-1,2,-2
1570180193449254,3,3,1,1,0,-1,-11,3
1570180193451199,-1,0,-2,1,2,1,-1,1
1570180193451199,-1,1,1,1,-1,-3,-2,0
1570180193478986,0,-2,0,0,5,-3,-2,0
1570180193478986,0,-1,0,-2,-2,1,2,1
1570180193480986,0,-1,1,-1,0,0,-1,1
1570180193480986,-1,-2,-2,-1,-3,-2,1,2
1570180193486134,-1,0,0,0,-1,-2,-3,1
1570180193486134,0,4,0,0,-2,-7,-4,0
1570180193493047,0,-2,-1,0,0,6,1,-4
1570180193493047,0,-1,1,0,-4,-2,-1,1
1570180193509062,-1,-2,0,1,1,-1,0,1
1570180193509062,0,-3,-1,-1,-2,0,1,1
1570180193510971,1,1,1,2,2,-2,-4,2
1570180193510971,1,2,-1,-1,-4,-1,1,-1
1570180193531843,0,0,0,1,8,3,-1,-1
1570180193531843,1,1,-1,1,-5,0,0,2
1570180193533207,0,0,-2,-1,-2,0,-1,-3
1570180193533207,0,-2,-1,-1,-4,-1,-1,1
1570180193546278,0,0,-1,0,1,1,1,0
1570180193546278,-1,-1,-2,-2,4,1,1,-2
1570180193552996,-1,0,-1,-1,-3,-1,3,-1
1570180193552996,0,-1,-2,-3,-1,-2,-3,2
1570180193569741,1,-2,-1,0,-1,-2,-6,-1
1570180193569741,0,0,-1,0,0,2,-3,-1
1570180193570739,5,1,-1,-2,-2,-1,-16,16
1570180193570739,-1,-2,0,0,0,-1,1,-1
1570180193591863,-2,-2,-4,-4,-1,0,2,-2
1570180193591863,-1,-1,-2,-1,0,-1,-1,2
1570180193593676,-3,-2,-1,-1,1,-5,5,-6
1570180193593676,-1,0,1,1,0,3,-1,-2
1570180193605751,1,-1,-1,-2,5,2,-1,1
1570180193605751,1,-2,-3,-2,-7,-1,1,1
1570180193612627,-1,-1,-1,-1,0,-1,0,-1
1570180193612627,-2,-1,-3,-2,0,-2,-5,1
1570180193629650,-1,0,1,0,1,-1,1,-3
1570180193629650,0,1,0,-1,2,-1,-1,-3
1570180193630575,-1,0,-1,1,1,1,2,-6
1570180193630575,0,1,0,0,-3,2,4,0
1570180193651728,0,-2,-2,-1,-3,-1,-1,-2
1570180193651728,-2,-2,0,0,0,0,1,-6
1570180193653514,2,-1,0,-2,-6,-2,-9,6
1570180193653514,-1,1,0,1,1,-2,-1,-3
1570180193666518,-1,-1,-1,-2,-1,-1,0,0
1570180193666518,-1,-2,-1,-2,-1,0,1,-1
1570180193672462,-2,0,-1,-1,3,1,6,-6
1570180193672462,-2,-2,0,-2,0,0,2,-2
1570180193689625,0,1,0,-2,-3,0,-2,2
1570180193689625,-1,0,-1,0,1,1,-3,0
1570180193690420,-2,-1,-2,0,0,0,1,0
1570180193690420,0,-1,-1,-1,-3,-2,-1,1
1570180193712355,0,-1,0,-1,-2,-2,-5,1
1570180193712355,-1,1,1,-1,1,1,0,1
1570180193713496,-2,0,0,1,1,1,-1,-5
1570180193713496,-1,-2,-4,-1,0,3,7,0
1570180193726318,2,2,3,2,1,-3,-12,7
1570180193726318,0,0,-2,-1,1,-1,-1,2
1570180193734306,0,-1,-2,-2,-2,-1,0,1
1570180193734306,-1,-1,-1,-1,-2,-1,-4,1
1570180193749471,-1,-1,-1,-2,-3,2,5,-4
1570180193749471,-2,-1,-1,1,0,-1,0,-1
1570180193751251,-1,-1,-2,-2,-2,1,2,-2
1570180193751251,-3,-2,0,-1,-2,-3,0,-3
1570180193772241,-2,-1,-4,0,0,2,5,-4
1570180193772241,0,-1,1,-1,0,-2,-3,2
1570180193773644,-1,-2,0,0,-2,0,2,-1
1570180193773644,0,-1,-1,-1,1,-2,-2,-3
1570180193794328,-1,-2,-2,-2,-1,0,1,-1
1570180193794328,2,-1,-3,-3,0,-1,-1,1
1570180193796134,-3,-3,-1,0,-2,2,3,-2
1570180193796134,0,2,2,2,-1,-1,-3,-2
1570180193809265,-2,1,1,-1,-4,-1,6,-11
1570180193809265,1,0,-1,1,0,-1,-4,5
1570180193811091,-1,-2,0,-2,1,-2,-2,2
1570180193811091,1,-1,-3,-1,2,0,0,0
1570180193832036,-3,-2,-1,-2,-3,-1,-1,-1
1570180193832036,-1,-1,0,-1,2,-1,1,-3
1570180193833034,-2,0,0,-1,-3,-1,-3,-4
1570180193833034,2,-2,1,0,1,2,1,4
1570180193846003,-3,-1,0,2,0,0,-6,-1
1570180193846003,-2,-2,-1,-2,-3,3,2,-1
1570180193854302,-1,0,-1,2,2,-1,-3,0
1570180193854302,0,-1,0,-2,0,-1,-2,-2
1570180193868939,2,0,-1,-1,-1,-2,-1,0
1570180193868939,0,2,1,1,0,-2,-1,-3
1570180193870931,-1,-2,-1,0,-1,0,3,-2
1570180193870931,-3,0,-1,0,-1,-2,-2,-2
1570180193891877,-1,-1,-1,-2,-3,-1,-2,2
1570180193891877,3,0,0,-1,1,-4,-14,15
1570180193892874,0,0,-1,-2,1,-2,-1,2
1570180193892874,2,0,0,-2,-5,0,-2,0
1570180193904844,-1,-1,0,-1,0,1,0,3
1570180193904844,-1,-3,-2,-1,0,-1,0,-3
1570180193914020,0,0,1,0,-1,0,-1,-1
1570180193914020,0,0,0,1,0,-1,-2,3
1570180193929643,1,0,-4,0,0,-1,-2,0
1570180193929643,-3,-1,1,-1,-1,0,3,-5
1570180193930888,-2,-3,-2,-1,-1,-2,-2,-2
1570180193930888,-2,-3,-2,-3,-6,-1,1,-4
1570180193951927,2,0,1,1,3,-2,-2,-1
1570180193951927,0,0,-1,0,-1,0,2,-4
1570180193953711,-1,0,0,-1,-2,-1,1,-2
1570180193953711,1,0,-1,-1,1,-1,1,2
1570180193965853,0,0,-1,0,0,-1,-2,-2
1570180193965853,-3,-2,-3,-2,-3,3,4,0
1570180193974657,-1,0,1,0,3,1,3,-3
1570180193974657,-5,-2,-1,-1,0,-2,7,-19
1570180193989656,1,-2,0,1,-2,-2,-2,3
1570180193989656,-1,-1,-1,-1,-1,0,3,-1
1570180193990844,1,-1,0,0,-2,0,0,0
1570180193990844,0,-2,-1,-3,-1,-1,-1,1
1570180194011559,-2,0,0,0,-1,0,-3,-1
1570180194011559,-1,1,0,-1,1,-2,-2,-2
1570180194013590,1,-1,-2,0,-1,1,0,-2
1570180194013590,0,1,0,0,0,-3,-6,2
1570180194025668,-1,0,-2,0,0,0,-1,-1
1570180194025668,-2,-2,-3,-2,-1,-3,-2,-1
1570180194034589,0,1,0,0,-1,-1,-3,-1
1570180194034589,0,-1,0,-2,0,0,-4,1
1570180194049669,-2,-3,-2,-2,0,1,1,1
1570180194049669,3,-1,1,-1,-2,-1,-6,1
1570180194050453,-2,0,-1,0,0,-2,-1,2
1570180194050453,-1,-1,-1,1,1,-1,-1,0
1570180194072400,-2,0,-1,-1,-2,0,0,-1
1570180194072400,-2,-3,-3,-2,0,3,6,-1
1570180194073391,-3,-1,-1,0,-1,-2,8,-18
1570180194073391,1,-1,-1,1,-1,2,-3,9
1570180194085595,-1,-3,0,-2,0,0,3,0
1570180194085595,-1,-1,-1,-1,-1,0,3,0
1570180194094345,-1,0,1,-1,0,-1,-3,-1
1570180194094345,0,1,-3,-1,-3,0,0,-3
1570180194109296,0,-2,-3,-2,-2,-2,0,-1
1570180194109296,-1,0,0,-1,0,-1,-2,-3
1570180194110298,0,-1,0,-1,0,-2,-3,4
1570180194110298,-1,-1,0,0,1,-2,0,-2
1570180194132395,2,2,1,1,0,0,-3,2
1570180194132395,1,1,0,0,-1,-2,-2,-2
1570180194133232,1,-1,-2,-1,-2,1,0,5
1570180194133232,-3,-1,0,0,1,-2,2,1
1570180194145412,-1,-3,0,-1,1,0,4,-5
1570180194145412,1,0,2,1,0,-2,-3,-1
1570180194154175,0,-2,0,-2,-2,1,0,4
1570180194154175,-5,-1,1,0,-1,0,10,-20
1570180194169398,0,0,-2,-3,-1,0,-2,-1
1570180194169398,1,0,0,1,0,-2,-1,-4
1570180194171130,3,1,-1,-1,-1,-2,-7,4
1570180194171130,0,0,-2,-2,0,-1,-1,2
1570180194192124,-3,-1,-1,-1,1,-1,-2,1
1570180194192124,-1,-1,0,-1,-1,2,2,0
1570180194193154,-1,-2,-2,-1,-1,-1,2,-4
1570180194193154,0,0,0,-1,0,-1,-4,2
1570180194205248,1,-2,-1,-1,-3,-1,-2,1
1570180194205248,1,2,2,0,1,1,-1,2
1570180194214014,-1,-2,-1,-1,0,-1,0,0
1570180194214014,2,-1,-2,-1,0,1,-2,3
1570180194229131,-3,-3,-2,-1,-2,1,2,-3
1570180194229131,-3,-2,-1,-2,-1,-1,4,-6
1570180194230968,-1,1,-2,0,-1,0,-2,4
1570180194230968,1,1,-2,0,0,0,-2,1
1570180194252123,-3,0,-1,0,0,-2,2,-1
1570180194252123,-2,-1,0,0,-2,-3,-1,-2
1570180194252914,-2,0,-2,-1,0,-1,-1,0
1570180194252914,-2,-2,0,-1,-2,-2,-3,2
1570180194274097,-5,-2,0,1,1,0,11,-17
1570180194274097,1,-1,-2,-1,0,-1,-6,5
1570180194275850,1,2,0,-1,0,0,-4,-2
1570180194275850,-1,0,0,0,0,0,3,0
1570180194290079,1,0,-1,0,0,-3,-3,1
1570180194290079,-4,-3,-3,-3,-1,-1,0,-2
1570180194291284,0,0,-1,-3,1,-1,-1,-2
1570180194291284,0,-1,-1,-1,1,1,-2,-1
1570180194311823,1,1,2,1,-1,-1,-5,1
1570180194311823,0,-2,-1,-2,-1,1,-1,-2
1570180194312755,2,-3,-2,0,-2,0,0,4
1570180194312755,-2,-1,0,1,1,-2,-2,0
1570180194334733,-2,-1,0,-2,-1,-1,-4,3
1570180194334733,-1,-1,-1,-2,0,0,3,2
1570180194335691,-2,-1,-1,-3,-1,-1,1,-4
1570180194335691,0,0,1,-1,-1,-2,-1,0
1570180194349704,0,0,-2,0,-1,-2,-2,1
1570180194349704,-1,0,1,1,-1,-2,-3,-2
1570180194350756,5,0,-1,0,0,-1,-15,17
1570180194350756,-1,-1,-2,-1,0,-1,-1,2
1570180194371800,1,0,-2,-1,1,0,-2,2
1570180194371800,-1,-4,-1,-2,-1,1,1,1
1570180194373591,-5,0,0,0,-2,1,2,-6
1570180194373591,-1,0,-1,-1,0,-1,0,-1
1570180194394585,0,-2,-1,0,0,-1,-3,3
1570180194394585,-1,1,-1,0,-1,-1,-3,-4
1570180194395530,-1,-2,0,-1,-2,-3,3,-3
1570180194395530,0,1,-2,-1,-3,-1,0,0
1570180194408710,-1,-1,1,-2,-1,-1,2,-1
1570180194408710,2,1,-1,-2,-2,-2,-2,-1
1570180194415706,-4,-2,-1,-1,0,1,5,-6
1570180194415706,2,1,0,0,0,0,-3,1
1570180194431701,1,1,-1,0,0,0,-1,-1
1570180194431701,0,0,0,1,0,1,-1,-4
1570180194433504,0,-2,-1,1,-1,0,-2,-1
1570180194433504,0,-4,-1,-1,-3,0,1,0
1570180194454374,-5,-2,-2,-1,-2,1,9,-11
1570180194454374,-2,0,0,0,1,-2,1,0
1570180194455887,-2,0,-1,-1,-3,-2,1,-3
1570180194455887,0,1,0,1,1,0,-3,2
1570180194468538,-2,-2,-1,-1,0,-2,-2,1
1570180194468538,1,-1,-3,0,-1,2,0,1
1570180194476228,-2,0,1,-2,0,-2,-3,-2
1570180194476228,-1,-1,-1,-1,-1,0,2,-4
1570180194491472,1,1,-1,-1,0,1,-5,2
1570180194491472,-4,-3,-2,-1,0,2,2,-1
1570180194493268,0,0,0,-1,0,-1,-2,2
1570180194493268,-1,0,1,0,-1,-2,-5,-2
1570180194514427,0,-2,-2,-1,0,0,2,2
1570180194514427,0,-1,-2,-1,-1,-1,0,1
1570180194516213,-1,-1,-2,1,1,-1,5,-4
1570180194516213,1,1,0,-2,0,-1,-3,1
1570180194528648,2,2,-1,-1,0,-3,-3,-1
1570180194528648,-1,0,0,0,-1,-2,-1,-1
1570180194535526,-1,-2,-1,-1,0,0,0,-2
1570180194535526,-1,0,-1,0,2,-1,-1,0
1570180194552567,-3,-3,-2,0,0,3,6,-9
1570180194552567,-1,-2,0,-3,0,1,0,-1
1570180194553110,1,0,-1,0,-2,0,0,2
1570180194553110,2,1,1,2,-1,2,1,5
1570180194574220,1,0,0,0,-1,0,-3,1
1570180194574220,-1,-1,-1,0,0,0,0,-1
1570180194576049,1,-1,-1,-1,-1,-1,-1,-1
1570180194576049,-1,-1,-2,-1,-1,-1,3,-5
1570180194589017,0,-1,0,-1,-2,-2,-3,3
1570180194589017,0,0,-1,0,-2,-1,1,-1
1570180194595206,-1,2,0,1,1,-2,-6,1
1570180194595206,0,-3,-1,0,-3,-3,-4,4
1570180194612164,0,1,2,1,-1,-2,-5,-1
1570180194612164,-2,-1,-1,0,-1,0,-3,3
1570180194612957,1,-2,-1,-2,1,0,3,0
1570180194612957,-1,0,-2,-1,1,1,0,-2
1570180194634091,0,-2,-2,-1,-2,1,0,1
1570180194634091,4,0,0,0,0,0,-12,13
1570180194636143,-1,-2,1,1,0,-2,0,-1
1570180194636143,-2,-3,-1,-2,0,0,1,1
1570180194648857,-1,-1,0,-1,-2,-3,-5,0
1570180194648857,1,1,-1,1,-1,-1,3,-1
1570180194654840,-2,-2,-1,0,-2,0,-1,-2
1570180194654840,-1,0,-1,-1,-1,-1,-5,1
1570180194672127,-3,-2,-1,-1,-1,0,1,-3
1570180194672127,-1,-2,-2,0,-1,-1,2,-2
1570180194673785,-1,0,1,0,1,1,0,-1
1570180194673785,-1,-2,-2,-1,-2,0,2,-4
1570180194694728,0,-1,1,0,1,-2,-1,1
1570180194694728,0,0,0,0,1,-4,-1,-5
1570180194695725,0,-1,-2,-1,0,0,-2,2
1570180194695725,-1,0,0,-1,-2,-1,1,-3
1570180194707693,1,1,-2,-2,-2,1,0,3
1570180194707693,0,0,-2,-3,1,1,-1,4
1570180194716674,1,1,1,0,-2,-2,-4,-2
1570180194716674,-1,-3,-1,0,0,-1,1,3
1570180194731677,1,0,0,0,0,-1,-1,-1
1570180194731677,-1,-1,0,0,-2,0,3,-3
1570180194733630,-2,0,1,-2,-1,-4,-2,-1
1570180194733630,2,-1,-1,1,-2,-2,-11,11
1570180194754568,-1,0,0,0,-1,0,-2,2
1570180194754568,-1,-2,0,0,-2,0,-1,-3
1570180194755565,-1,1,0,-1,1,2,-2,3
1570180194755565,0,0,0,0,0,-2,-1,-6
1570180194767577,-4,-3,-2,-1,0,0,2,-2
1570180194767577,-1,0,0,0,0,-2,-2,-2
1570180194778506,-2,-1,-1,0,-2,-1,2,-5
1570180194778506,0,-1,-1,-2,1,0,2,-4
1570180194791632,0,-2,-2,-2,1,2,2,3
1570180194791632,0,0,2,0,-1,0,1,-4
1570180194793481,2,-1,0,-1,-1,1,-3,3
1570180194793481,-3,0,0,-1,-1,0,0,-2
1570180194814600,0,1,1,0,0,-1,-1,0
1570180194814600,-1,-2,-1,2,-1,0,-1,-2
1570180194815971,0,0,-2,-3,-1,0,2,-1
1570180194815971,-4,-2,-3,-2,-3,1,11,-15
1570180194828374,3,2,0,0,0,-1,-5,6
1570180194828374,0,-2,-1,-2,-1,0,0,-2
1570180194844335,-1,0,-1,0,0,0,0,-4
1570180194844335,0,-1,-1,0,-1,-1,2,-3
1570180194851358,-2,-2,0,-1,-1,-1,1,-3
1570180194851358,-2,-2,1,-1,-1,-1,-1,1
1570180194853305,1,1,-1,-1,1,0,1,2
1570180194853305,-1,-1,-1,-1,0,3,-2,3
1570180194874299,-1,1,-3,0,0,-1,0,0
1570180194874299,-1,-1,-1,0,0,0,-2,1
1570180194876242,0,-2,-1,0,-1,-2,0,-3
1570180194876242,0,1,-1,0,0,-2,-3,1
1570180194888210,0,-2,-1,-1,-1,3,2,0
1570180194888210,-1,-1,-1,-2,0,0,3,-3
1570180194897188,-5,-3,-2,0,-1,3,6,-5
1570180194897188,0,-1,-1,-2,2,-1,-1,2
1570180194912148,1,0,0,-1,-3,-2,-3,-1
1570180194912148,0,0,0,-2,-1,-1,-1,0
1570180194913268,1,-2,2,-1,-1,-2,0,-1
1570180194913268,0,-3,0,-1,-2,0,1,2
1570180194934306,0,-1,1,2,-1,-2,-6,-2
1570180194934306,0,0,-1,1,0,-1,0,0
1570180194936081,0,-2,0,-1,-1,-1,0,2
1570180194936081,-1,-1,-1,1,-1,0,-2,-1
1570180194948251,-1,1,0,-1,1,0,0,-3
1570180194948251,-2,-2,0,-2,-1,1,12,-17
1570180194957128,1,-2,-1,1,1,-1,-4,5
1570180194957128,-2,0,-1,1,-1,-2,-1,1
1570180194972254,0,-3,0,0,0,0,-1,-3
1570180194972254,-2,0,-1,-1,0,1,0,0
1570180194973325,-1,-1,-2,-3,-2,-4,-1,-2
1570180194973325,0,1,-1,-2,-2,1,-4,0
1570180194994156,1,-1,-1,-2,-1,-2,0,-1
1570180194994156,-1,-1,-2,-2,0,-1,-1,4
1570180194995923,1,0,1,1,-2,-2,-4,-3
1570180194995923,0,-1,-1,-1,-1,-2,-1,3
1570180195008075,-5,-1,-1,-3,-1,-2,4,-4
1570180195008075,1,-1,0,0,-1,-1,-3,4
1570180195016875,-1,0,0,0,0,1,-3,0
1570180195016875,-1,-1,-1,1,-1,-1,-1,-2
1570180195032034,-2,-1,-2,0,0,-1,2,1
1570180195032034,0,0,-2,0,-1,-2,-3,2
1570180195032834,-1,-1,0,2,0,0,1,-1
1570180195032834,0,0,0,0,1,0,0,-3
1570180195053968,1,1,-1,-2,-2,0,0,2
1570180195053968,0,-2,-1,0,-1,-4,-2,2
1570180195055830,0,-1,0,0,-1,-1,-2,-1
1570180195055830,-1,-1,1,0,-2,-2,-1,0
1570180195067921,-4,-3,-1,-1,1,-1,-1,-1
1570180195067921,-1,0,0,1,-1,-2,-1,-4
1570180195076706,4,2,-1,0,0,-3,-10,12
1570180195076706,0,-2,0,-1,-2,-1,-2,0
1570180195091872,0,0,-1,1,-1,1,-1,0
1570180195091872,-1,0,-1,-1,2,3,4,-1
1570180195093663,-3,-2,0,-2,-2,-1,-1,-6
1570180195093663,-2,-2,-1,-2,-2,-3,-3,1
1570180195114659,2,1,2,-1,-1,0,-2,3
1570180195114659,0,-1,1,-1,0,-1,-1,2
1570180195115879,0,1,-3,-1,1,1,4,0
1570180195115879,-1,-1,-1,-1,-1,0,0,0
1570180195127573,-2,-1,0,0,0,-2,0,-3
1570180195127573,0,2,-2,-1,-1,0,0,2
1570180195136548,-4,-2,-1,-1,-3,-1,0,-6
1570180195136548,-2,1,0,-1,-1,1,3,-4
1570180195151723,-1,-2,-3,-2,-2,-3,-1,-2
1570180195151723,0,-1,0,0,0,0,-1,-2
1570180195153594,0,-1,-2,1,2,2,3,2
1570180195153594,-1,-1,-2,0,0,2,1,3
1570180195174500,2,2,1,1,0,2,-1,0
1570180195174500,0,-2,0,0,-2,-2,-1,1
1570180195175442,0,1,-1,0,-3,-1,1,-3
1570180195175442,-1,1,-1,0,0,0,-1,0
1570180195187416,-3,-2,-1,-1,1,-1,-1,-3
1570180195187416,-3,-1,-4,-3,0,1,6,-5
1570180195196435,0,-3,-1,-1,-1,-2,2,0
1570180195196435,1,1,0,0,1,2,6,-4
1570180195211347,0,0,0,-1,-4,-5,-6,1
1570180195211347,-1,0,0,-3,-2,-2,-3,0
1570180195218384,0,1,0,-2,0,-3,1,1
1570180195218384,1,-1,-1,-1,1,-3,-2,0
1570180195234490,-1,1,-1,-1,-1,1,4,-5
1570180195234490,-1,1,-1,0,0,-2,-3,0
1570180195235286,0,0,1,-2,0,2,-1,-1
1570180195235286,0,0,-1,-1,0,-3,-3,-1
1570180195256299,-1,-2,-1,-1,1,0,1,1
1570180195256299,-1,-2,0,1,1,0,-4,0
1570180195258222,0,0,-2,1,-2,1,-1,2
1570180195258222,1,0,-1,-1,-1,-1,-1,-1
1570180195271290,-2,-2,0,-1,0,0,-1,1
1570180195271290,-1,0,-1,-2,-1,-2,-2,1
1570180195278178,-2,0,-1,1,0,-1,1,-3
1570180195278178,-3,-2,0,-2,-2,3,12,-20
1570180195294145,2,-2,-4,0,0,3,3,8
1570180195294145,-2,-2,0,-1,-1,-1,1,-7
1570180195296185,0,-3,-3,-2,-2,-1,-2,2
1570180195296185,-1,1,-2,-1,0,-2,-2,-1
1570180195317240,2,0,0,1,-1,-2,-3,0
1570180195317240,-1,0,0,1,-1,2,2,0
1570180195318063,0,-1,0,-1,1,0,1,-4
1570180195318063,-1,-1,-1,-3,-1,-1,-1,4
1570180195332200,-1,1,1,-1,-2,-4,0,-3
1570180195332200,2,1,-1,-1,-1,0,-5,3
1570180195333034,1,0,-2,-1,-1,-2,-2,-3
1570180195333034,0,0,2,0,0,0,-5,4
1570180195354225,-1,-2,0,-2,-1,-1,-3,-2
1570180195354225,-1,-2,0,-1,-1,-1,-1,1
1570180195355967,-1,0,2,0,0,0,-2,-1
1570180195355967,0,-1,0,1,0,-3,-2,0
1570180195377121,-3,1,-3,-2,0,-1,0,-1
1570180195377121,0,1,0,0,-2,1,0,1
1570180195377905,-1,-1,-3,-2,0,-1,4,0
1570180195377905,-6,-3,-3,-1,-2,-1,7,-16
1570180195391180,-1,-1,1,0,-2,0,-3,-1
1570180195391180,0,-1,-2,0,-1,-1,-1,0
1570180195397857,0,1,0,0,-1,-1,-1,2
1570180195397857,1,1,0,1,-1,-2,1,3
1570180195421997,-2,-4,-2,-1,0,2,3,-1
1570180195421997,-2,-1,-1,-1,-1,-1,-3,-4
1570180195423509,-3,-2,0,-2,-1,1,4,-4
1570180195423509,2,0,-1,-1,-2,-2,-7,4
1570180195436916,-1,-1,0,0,0,1,1,-2
1570180195436916,0,-2,-3,-1,1,1,2,6
1570180195438739,-2,-1,-1,0,1,1,-1,0
1570180195438739,0,-2,1,-1,0,-1,-1,3
1570180195451717,1,0,-1,-1,-1,-3,-3,1
1570180195451717,-1,-1,0,1,-1,-2,-1,-2
1570180195458809,-1,1,1,-1,0,-1,-1,-2
1570180195458809,1,-1,-1,-2,-1,2,-3,2
1570180195473740,-2,1,-1,-1,-3,0,-1,-4
1570180195473740,0,0,0,1,2,-1,0,0
1570180195474645,2,0,-2,0,0,-2,-9,8
1570180195474645,0,0,-1,2,0,-1,-5,3
1570180195495593,2,0,0,0,0,-2,-2,2
1570180195495593,1,0,0,-1,-1,-1,-4,2
1570180195496585,0,-1,-1,0,-1,-1,1,-1
1570180195496585,-1,1,0,-1,-1,0,0,0
1570180195510695,-2,-3,-2,-2,0,-1,3,-2
1570180195510695,0,1,1,1,0,-3,-1,-7
1570180195518530,0,-2,-2,-2,0,-2,-1,-2
1570180195518530,-1,0,-1,0,-1,0,-3,-2
1570180195533697,0,-2,-1,-1,-2,0,3,-1
1570180195533697,-1,-3,-1,-2,-1,1,-2,-1
1570180195534493,0,1,0,0,0,-1,-2,-1
1570180195534493,0,-1,-1,-1,-2,-1,-2,2
1570180195556477,1,0,0,-2,-1,0,-2,0
1570180195556477,-1,0,-1,-2,-1,1,2,0
1570180195556477,-2,-1,-1,0,-2,-1,0,1
1570180195556477,-1,-1,-1,-3,-2,-1,1,-1
1570180195570393,4,2,4,2,1,0,-1,1
1570180195570393,0,-1,1,-1,0,-2,0,-2
1570180195578365,4,1,2,0,1,-4,-13,9
1570180195578365,-3,-3,-3,0,0,1,2,2
1570180195593613,-3,-1,-3,-1,1,-1,0,-1
1570180195593613,-1,-1,-2,-1,-2,-1,0,-1
1570180195594322,-1,-1,0,0,-1,1,3,-5
1570180195594322,0,-1,-1,-1,-1,1,-2,-2
1570180195616471,-1,-2,-2,-2,-2,-2,-4,4
1570180195616471,0,-1,1,-1,1,-2,-3,0
1570180195623419,-1,-1,-2,-1,0,-2,1,-5
1570180195623419,1,2,3,2,-1,-2,-2,1
1570180195630357,-1,0,-1,0,0,1,1,-5
1570180195630357,-2,-4,-3,-2,-3,-2,-3,0
1570180195638373,-1,-2,-1,-2,-3,1,3,-2
1570180195638373,-1,0,0,-1,1,-1,-1,-3
1570180195653419,-1,1,0,0,-1,0,-1,1
1570180195653419,-1,1,-2,-1,-2,-1,1,1
1570180195654165,-3,-1,-1,-1,1,2,1,-3
1570180195654165,3,0,-1,0,1,-3,-5,2
1570180195676208,0,0,-1,1,-1,-1,1,0
1570180195676208,-1,-2,1,0,-1,0,-2,-1
1570180195677102,4,0,0,0,-2,-1,-10,12
1570180195677102,0,0,0,-1,0,1,1,2
1570180195690299,-2,-1,2,0,0,-1,-2,-1
1570180195690299,0,2,0,-2,0,-2,-1,-1
1570180195699054,-3,-1,-1,-1,-1,-2,4,-5
1570180195699054,0,-1,0,-1,0,-1,1,-1
1570180195713107,2,-2,0,-1,1,0,0,-2
1570180195713107,0,-2,-1,0,0,2,4,0
1570180195714006,-1,2,2,2,0,-2,0,-7
1570180195714006,-3,-1,-1,-2,-1,-1,-2,1
1570180195736102,-2,-1,-3,-3,-2,-2,1,-3
1570180195736102,0,0,3,1,0,-1,-2,-3
1570180195737034,-2,-2,0,1,1,0,0,-4
1570180195737034,0,-2,-2,-1,-1,2,0,0
1570180195750906,-5,-2,0,0,-1,-3,6,-19
1570180195750906,0,1,0,2,-1,-2,-5,2
1570180195758883,-2,0,-1,-3,-2,0,4,-1
1570180195758883,-1,-1,1,0,-3,0,-2,-3
1570180195773856,-2,-2,-3,-2,-1,1,2,3
1570180195773856,-2,-2,-3,-3,1,0,0,-1
1570180195774842,-2,0,0,0,0,1,2,-5
1570180195774842,-2,-2,0,0,-1,0,-1,-2
1570180195795976,1,0,-1,-1,1,-1,-5,6
1570180195795976,-2,-1,-1,-1,2,-1,4,-6
1570180195796791,3,2,1,0,0,-3,-6,-1
1570180195796791,1,-1,-1,-2,0,-1,-2,2
1570180195810808,2,2,0,0,0,-1,-7,3
1570180195810808,2,-1,0,0,0,0,1,1
1570180195818798,-3,-1,-2,-2,0,2,15,-18
1570180195818798,1,1,0,1,0,-1,-3,-2
1570180195833869,0,0,-1,1,0,-1,-2,0
1570180195833869,-3,-2,-2,0,-1,0,-3,0
1570180195834682,-1,-3,-1,-1,-2,-1,0,3
1570180195834682,-2,-2,-1,1,-1,0,5,-3
1570180195855871,0,1,0,0,-2,1,-3,2
1570180195855871,-1,0,-2,-2,-1,0,1,-2
1570180195856687,3,1,-1,-1,0,0,-6,9
1570180195856687,-3,0,-1,-1,-1,-3,-2,-4
1570180195870589,-7,-3,-1,-3,-1,-2,8,-21
1570180195870589,0,0,-1,-2,-3,-3,-6,2
1570180195878566,0,-3,-2,-2,-1,0,-1,1
1570180195878566,1,-2,-2,-2,-2,0,0,3
1570180195893574,0,1,0,0,-1,-1,1,0
1570180195893574,0,1,1,-1,-2,-1,-3,-3
1570180195894520,0,-2,-3,0,0,1,0,0
1570180195894520,-1,0,-1,0,-2,-1,-1,-2
1570180195915596,0,-1,-1,-1,0,1,-7,4
1570180195915596,1,-1,-1,0,0,1,1,1
1570180195916618,-1,-1,-1,-1,1,0,-3,5
1570180195916618,-1,0,1,-1,0,2,1,-3
1570180195930647,0,-1,2,0,-1,-1,-2,4
1570180195930647,-1,-1,-1,-1,-1,-1,1,2
1570180195938582,-1,-3,-1,0,-2,0,3,-7
1570180195938582,1,-1,-1,-3,0,-4,-13,11
1570180195953624,0,-1,0,0,0,-2,-3,5
1570180195953624,-1,-2,1,-1,0,0,-1,-2
1570180195954368,-2,0,-1,1,-1,0,1,-3
1570180195954368,-1,0,-3,0,-1,-1,1,-6
1570180195976302,1,1,-1,-2,0,-1,-3,2
1570180195976302,0,-1,-2,-1,-1,-1,-2,2
1570180195977522,-1,-2,-1,-1,-2,-2,-1,2
1570180195977522,-1,0,0,0,0,1,1,-2
1570180195999449,1,-1,0,1,1,0,0,0
1570180195999449,-1,-2,-2,0,0,0,0,-3
1570180196000248,1,1,0,1,-1,-1,-1,1
1570180196000248,-1,0,1,1,1,1,3,-4
1570180196014201,-4,-1,-1,-1,0,3,10,-9
1570180196014201,1,0,-1,-1,0,0,-3,6
1570180196014201,-1,0,-1,-1,-1,-2,-3,1
1570180196014201,1,-2,0,-1,0,-1,1,0
1570180196036434,0,-1,1,0,-3,-2,-2,-3
1570180196036434,2,1,0,0,-1,-1,-1,-2
1570180196043131,3,2,2,2,1,-2,-3,-1
1570180196043131,-1,-1,-1,-1,0,-1,-1,0
1570180196050776,0,0,-2,-1,0,-1,-4,4
1570180196050776,0,0,-2,-1,-2,-1,-1,-5
1570180196058207,0,-1,-1,0,-2,-1,-1,0
1570180196058207,-1,0,-1,0,-2,-1,2,-3
1570180196074092,2,0,0,-1,2,-1,0,4
1570180196074092,-3,0,0,-2,-1,-1,0,-1
1570180196074585,-4,-3,-2,-3,1,0,0,-4
1570180196074585,-1,-3,-1,0,-2,-1,-3,0
1570180196096205,0,0,0,-1,2,0,-3,1
1570180196096205,-1,-3,-3,-1,1,-2,0,-1
1570180196096989,0,-1,0,-2,-1,-1,-1,-1
1570180196096989,0,0,0,1,-2,-1,-2,-2
1570180196109954,-1,0,0,-1,-2,-2,-6,4
1570180196109954,3,-1,0,-2,1,0,-9,16
1570180196119028,-3,1,0,0,-2,-1,-1,0
1570180196119028,0,1,-2,-1,0,1,0,0
1570180196141862,0,0,-1,0,-2,-1,-1,0
1570180196141862,-1,1,1,1,-1,1,3,-5
1570180196142856,-1,0,-1,-1,-1,-1,-1,1
1570180196142856,-5,-4,-2,-2,-2,-2,-2,-1
1570180196155963,0,0,-2,-2,-2,-1,1,0
1570180196155963,-3,1,2,1,1,-1,-1,-6
1570180196157255,-2,-2,-2,-1,-1,1,2,1
1570180196157255,0,0,-1,-1,-1,-1,2,-5
1570180196179812,-1,0,-1,-1,-3,1,1,-2
1570180196179812,-1,0,-1,0,0,-1,-1,-2
1570180196179812,-2,1,1,0,-1,-1,-2,-1
1570180196179812,-1,1,1,0,-2,0,0,0
1570180196193723,-1,-1,-2,-1,0,0,-1,-1
1570180196193723,1,0,-1,0,-1,-1,0,-1
1570180196193723,0,0,0,-1,0,0,0,-1
1570180196193723,1,0,0,0,1,-1,0,1
1570180196216659,-2,-1,-1,0,0,-1,0,-1
1570180196216659,-3,-1,-1,-2,-2,2,2,-4
1570180196216659,-5,-4,-3,-3,0,0,11,-17
1570180196216659,-1,1,0,-1,-1,-2,-3,2
1570180196239655,1,0,-2,-1,-1,0,-2,3
1570180196239655,-2,-2,0,-1,-2,-1,2,-1
1570180196239655,1,-1,0,1,-3,-1,-2,0
1570180196239655,-1,0,-3,-1,-1,-1,0,1
1570180196253763,-1,1,-1,0,0,-2,-1,-3
1570180196253763,-2,1,-1,0,0,0,1,-4
1570180196254568,3,1,1,0,-2,-1,-6,4
1570180196254568,-2,-2,0,-2,-2,-2,-2,-2
1570180196275613,0,0,-1,0,-1,0,-2,2
1570180196275613,-2,0,0,-2,-1,-1,-1,-1
1570180196276499,0,0,-2,-1,-1,1,-3,3
1570180196276499,0,0,-2,-1,-2,1,1,1
1570180196299712,-1,-3,-2,1,-2,-2,0,-2
1570180196299712,0,-2,-1,0,0,-2,0,-1
1570180196300439,0,-1,-2,-2,-2,-2,-1,0
1570180196300439,1,-1,0,-1,0,0,0,0
1570180196313639,-2,-1,1,1,-1,0,1,-5
1570180196313639,2,0,-1,1,-3,0,-3,6
1570180196314408,0,-1,-1,-2,1,-1,-3,3
1570180196314408,-5,-2,-1,0,-1,1,10,-16
1570180196336619,1,1,0,-1,0,-1,-6,5
1570180196336619,-1,-1,-1,0,1,0,0,-3
1570180196336619,0,-1,1,0,-1,-2,1,0
1570180196336619,-2,2,1,-1,-1,-3,-1,-1
1570180196359371,0,0,-1,0,0,-1,1,-3
1570180196359371,-4,-2,-1,-1,-2,0,-1,-2
1570180196360276,-1,1,-1,0,-1,1,-3,1
1570180196360276,0,0,-3,-1,-1,0,-2,4
1570180196374237,1,-3,0,-1,-1,-2,0,0
1570180196374237,2,2,-1,-1,-1,-2,-2,1
1570180196374237,1,0,0,1,0,0,1,0
1570180196374237,0,-1,-1,0,-2,-1,-4,1
1570180196396178,-1,-1,-1,-1,-2,1,0,0
1570180196396178,0,-1,0,-4,-3,1,4,-5
1570180196397176,-2,0,-2,-1,1,-4,-3,1
1570180196397176,1,-2,0,0,-1,-1,-2,2
1570180196419168,0,1,-1,0,-1,0,-1,-1
1570180196419168,-2,-3,0,0,0,-1,1,-2
1570180196420184,-2,0,-1,0,1,0,0,0
1570180196420184,-1,0,-1,-1,0,1,1,0
1570180196433131,-3,-2,-1,-2,0,0,0,-2
1570180196433131,0,-1,-2,1,-1,0,0,1
1570180196434079,0,-1,0,-1,-2,-1,-2,1
1570180196434079,-1,-1,0,-2,1,1,0,0
1570180196456149,0,-1,0,-1,0,-1,-1,0
1570180196456149,-1,0,-1,0,1,-1,-1,0
1570180196457018,-1,-2,-1,-1,0,0,1,-4
1570180196457018,0,2,1,1,-2,-2,-3,0
1570180196479149,-2,0,0,-1,-3,-1,-1,-1
1570180196479149,-1,0,-1,-4,-3,-2,-4,0
1570180196479968,-1,-2,-1,-1,0,0,1,0
1570180196479968,0,-2,-2,0,1,-2,0,1
1570180196493968,0,0,-3,-3,0,-1,-2,2
1570180196493968,1,-1,-2,0,0,-2,0,0
1570180196493968,-1,1,0,0,-3,0,-2,0
1570180196493968,0,0,-1,-2,-1,0,-1,-2
1570180196516064,-2,0,0,1,-1,-1,2,-1
1570180196516064,-2,0,-1,1,0,1,1,1
1570180196516856,1,-1,-2,-2,-1,0,-1,1
1570180196516856,-1,0,0,1,-2,-2,-4,-1
1570180196539839,2,0,0,-1,-2,-2,-2,1
1570180196539839,-7,0,-2,-2,-2,2,11,-18
1570180196539839,2,0,-1,0,-2,-2,-2,1
1570180196539839,0,-1,0,0,0,-1,1,0
1570180196553864,0,0,0,-1,-1,1,-1,0
1570180196553864,2,-2,-2,0,0,-1,-1,2
1570180196554758,0,-1,-2,-1,0,1,2,-1
1570180196554758,0,-1,0,-1,-1,0,0,1
1570180196575789,0,0,0,0,0,-2,1,-2
1570180196575789,1,0,1,1,0,0,-3,5
1570180196576697,-3,1,2,1,0,0,-3,-4
1570180196576697,-3,-2,-4,-3,-3,-3,-5,3
1570180196599700,-2,0,0,0,0,-1,1,-1
1570180196599700,0,-2,1,-2,-2,-1,-1,1
1570180196599700,0,-1,0,0,1,0,0,1
1570180196599700,-2,0,-1,-1,1,1,1,-2
1570180196613799,-2,-2,-1,0,-1,1,1,-1
1570180196613799,0,0,0,-1,-1,-2,-4,0
1570180196614597,0,-1,0,-1,-2,-2,0,0
1570180196614597,1,-1,-1,-1,-1,0,-1,1
1570180196636537,-1,-1,-3,1,0,-2,-1,1
1570180196636537,2,1,0,2,1,-1,-5,7
1570180196636537,-1,-2,-1,-1,-1,-3,-1,0
1570180196636537,-1,0,0,-1,-1,-1,1,-1
1570180196659540,-1,0,-2,-1,0,-1,-1,-1
1570180196659540,-1,-1,-1,0,0,-1,-1,-2
1570180196659540,-1,-1,-2,-1,0,0,0,1
1570180196659540,1,-1,-1,0,-2,0,-1,-1
1570180196673660,-1,-2,-2,0,0,-1,0,-4
1570180196673660,7,2,0,0,-2,-4,-16,13
1570180196674437,0,0,0,-1,1,1,-1,1
1570180196674437,-1,-1,-1,-1,-1,0,0,0
1570180196696616,0,-1,1,-3,-1,0,-1,-1
1570180196696616,-2,-1,-1,-1,0,0,3,-5
1570180196696616,-2,1,-1,-1,0,0,0,1
1570180196696616,0,0,0,2,-1,-1,-2,2
1570180196719441,-1,0,-2,-2,-1,-2,-1,-1
1570180196719441,-1,-2,-3,0,-2,2,3,-5
1570180196720357,0,-1,-1,-1,-1,-1,-5,-2
1570180196720357,-2,-3,-1,-1,-1,-2,2,-2
1570180196733331,-5,-3,-1,-2,-1,-2,-1,-1
1570180196733331,-1,1,0,0,0,-2,2,-3
1570180196734276,-1,-2,-2,0,-2,1,1,0
1570180196734276,1,0,-1,0,-1,-1,-4,-3
1570180196756362,0,0,0,-1,-1,0,0,1
1570180196756362,-3,-1,-1,-2,-2,0,-1,0
1570180196757215,-3,-3,-3,-1,0,0,-1,-1
1570180196757215,0,-1,0,-2,-1,-1,-1,1
1570180196779282,-1,-1,-1,1,0,0,1,1
1570180196779282,-1,1,1,2,0,-1,1,-4
1570180196780154,6,2,2,0,-2,-4,-16,19
1570180196780154,0,0,0,0,1,1,-1,-1
1570180196793118,1,-1,0,0,1,-1,-1,-2
1570180196793118,-2,-1,-2,-1,0,0,1,-1
1570180196808078,-3,1,1,0,-1,0,2,-7
1570180196808078,-2,0,1,0,-3,-3,-1,-1
1570180196816272,2,2,0,-2,0,0,-2,1
1570180196816272,0,0,1,1,0,-2,1,-2
1570180196817057,-3,-3,-1,0,-1,0,5,-3
1570180196817057,0,1,-2,-2,1,0,1,0
1570180196839144,0,-2,-1,0,-2,-1,3,-3
1570180196839144,-2,-1,-2,-2,-1,0,2,0
1570180196840539,-1,1,1,1,2,0,-1,-7
1570180196840539,0,-1,0,0,-1,0,-1,1
1570180196853053,-1,1,0,0,-1,0,1,-1
1570180196853053,0,0,1,-1,0,-3,-1,0
1570180196860973,-1,-1,-2,-3,-1,0,2,-2
1570180196860973,-2,0,-1,-2,0,1,1,1
1570180196875911,-1,1,1,-1,-2,-2,-4,-1
1570180196875911,-2,-3,-2,-3,-1,-1,-1,0
1570180196876893,0,-1,-2,-1,-2,0,2,-3
1570180196876893,-2,0,0,-1,0,2,2,-5
1570180196899031,3,-1,-1,0,-1,0,-3,2
1570180196899031,-2,-1,-2,-1,-1,0,-2,0
1570180196899837,-6,-2,-2,-2,-1,1,14,-20
1570180196899837,0,0,-2,0,0,-2,-1,0
1570180196913004,1,0,0,0,-2,-1,-1,1
1570180196913004,1,-2,-2,-1,-1,1,0,3
1570180196921018,2,-2,-1,-1,-2,1,-2,2
1570180196921018,-1,-1,-1,-1,-1,-1,-2,-4
1570180196935884,-2,-2,-1,-1,-1,0,-2,0
1570180196935884,-1,3,3,1,-2,-2,1,-6
1570180196936736,1,1,0,1,0,-1,-3,4
1570180196936736,2,-1,-2,1,-1,-1,-1,-2
1570180196959690,-1,-1,0,1,0,-2,-1,0
1570180196959690,-1,-1,0,-3,-1,-1,-1,-2
1570180196959690,0,-1,-2,-2,0,-2,-3,3
1570180196959690,0,-1,-1,-2,-1,0,-2,2
1570180196973156,-1,0,0,0,-2,1,2,-2
1570180196973156,1,-1,1,0,-3,0,0,-1
1570180196981614,-1,0,0,1,-2,-1,-1,0
1570180196981614,-1,-1,-1,-1,2,-2,0,0
1570180196996622,-1,0,-1,1,1,2,4,-6
1570180196996622,1,1,-2,0,1,0,-4,1
1570180196996622,1,-1,0,0,0,-1,-3,2
1570180196996622,-1,-2,-2,-2,-1,0,0,1
1570180197019706,-3,-2,-1,-1,-1,-1,-1,-4
1570180197019706,4,1,-1,-1,0,-1,-13,15
1570180197019706,-3,0,-1,-2,0,-1,0,2
1570180197019706,-1,0,1,-1,-2,0,0,-1
1570180197032715,0,0,-1,-1,-1,-2,1,-1
1570180197032715,-1,0,-1,0,-2,1,2,-7
1570180197041518,0,-1,-1,0,-1,1,-1,-1
1570180197041518,0,0,0,-2,0,-1,-2,6
1570180197064561,2,0,-2,-2,1,0,-3,2
1570180197064561,-1,-2,-2,1,0,-1,2,-3
1570180197065399,0,-2,-1,-2,-2,0,-2,1
1570180197065399,-2,-1,1,1,-1,-2,1,-4
1570180197079546,0,-1,-1,0,-2,-2,-4,0
1570180197079546,-2,-1,-1,-1,0,2,4,-4
1570180197080357,1,-2,1,1,-1,-1,-1,-2
1570180197080357,0,-1,-1,0,-1,0,-1,1
1570180197101512,-1,-2,0,-2,0,-1,-1,3
1570180197101512,-2,-4,-1,0,0,-2,1,0
1570180197102297,1,-1,1,1,-2,-2,-2,-3
1570180197102297,1,0,-1,0,0,0,-1,-4
1570180197116343,-1,-1,-1,-1,1,0,1,-1
1570180197116343,-5,0,1,-2,-1,0,12,-19
1570180197117255,1,0,0,1,1,-1,-2,1
1570180197117255,0,-2,-2,-1,-3,1,2,1
1570180197139505,-2,0,-1,-1,-2,0,0,0
1570180197139505,1,-3,-2,-1,-1,1,1,-2
1570180197140191,-1,-1,-1,-1,-2,1,1,1
1570180197140191,0,1,0,-1,-1,-2,-1,-1
1570180197162135,-3,-1,-2,1,-2,-2,-1,-3
1570180197162135,2,0,0,-1,0,-2,-4,2
1570180197162135,-1,-1,-1,-1,1,0,0,0
1570180197162135,1,0,-1,-2,0,-1,-2,2
1570180197176102,2,0,1,-1,0,-1,0,3
1570180197176102,-2,-1,0,0,-1,-2,-3,2
1570180197177092,-1,0,-1,-2,0,0,1,-1
1570180197177092,-4,-3,-1,-1,-1,-1,3,-4
1570180197199428,1,0,2,-1,-2,-2,1,0
1570180197199428,1,0,-2,0,0,-1,-3,1
1570180197200033,-2,-3,-3,-3,-1,-1,0,0
1570180197200033,-4,-2,0,1,-2,0,9,-17
1570180197221976,1,-1,-1,-1,-3,2,-1,0
1570180197221976,-3,-4,-2,-2,-1,-2,0,1
1570180197221976,-1,-1,-1,0,-1,-1,-2,1
1570180197221976,0,-1,0,-1,0,-1,-1,0
1570180197236041,-1,-1,0,0,2,-3,-3,-1
1570180197236041,0,0,-1,1,-1,0,-1,0
1570180197236941,-1,-2,0,0,-1,-1,4,-3
1570180197236941,1,2,-2,-2,0,-2,-3,3
1570180197259871,0,0,-1,-1,-2,-1,0,-1
1570180197259871,0,1,0,-2,0,0,-4,5
1570180197259871,-1,1,-2,-2,0,0,-1,0
1570180197259871,2,-2,0,1,-1,-2,-5,5
1570180197281987,-1,-1,-2,-1,0,0,0,0
1570180197281987,0,0,-2,0,-1,1,2,-2
1570180197282813,-1,0,1,-1,-1,-1,2,-2
1570180197282813,-2,-2,-1,-1,-2,0,-1,2
1570180197295980,0,0,-1,-1,-1,0,-1,-2
1570180197295980,2,0,0,0,-1,0,-4,3
1570180197296779,-1,0,0,0,-1,-1,-2,-3
1570180197296779,1,-1,0,0,0,-2,-2,4
1570180197319711,-1,0,1,1,0,-1,-1,1
1570180197319711,-1,-1,-1,0,0,-2,4,-4
1570180197319711,-1,-1,1,0,0,-1,-2,2
1570180197319711,0,1,0,0,-1,-2,-3,-4
1570180197341700,1,0,-3,-2,0,1,0,0
1570180197341700,1,0,0,-1,-2,-1,-1,0
1570180197342652,1,-1,-1,-1,-1,-2,-1,-2
1570180197342652,-1,0,-1,0,-1,2,0,2
1570180197356619,-5,-3,-1,0,0,0,1,-1
1570180197356619,2,2,-2,1,1,-1,-6,5
1570180197356619,0,1,0,-2,-2,-3,-1,0
1570180197356619,0,-1,0,-1,0,0,2,-2
1570180197379641,2,0,0,-2,1,0,0,0
1570180197379641,4,1,1,0,1,-2,-14,16
1570180197379641,0,0,0,0,-2,0,-2,-1
1570180197379641,0,-1,0,1,-1,0,-3,1
1570180197401882,-1,-2,0,0,-2,-3,0,2
1570180197401882,-2,-4,-1,-1,-1,-1,2,-6
1570180197402499,2,-1,-1,0,0,1,1,2
1570180197402499,0,-1,-2,-1,0,1,0,3
1570180197416460,-2,-1,-1,-1,-1,0,3,-5
1570180197416460,-3,-1,-2,-2,-1,0,3,-5
1570180197416745,-1,-2,-1,-2,-1,-1,0,-1
1570180197416745,-3,-1,0,-2,-2,0,0,-4
1570180197439398,0,-1,-1,0,-1,0,-1,1
1570180197439398,0,0,0,-2,0,-2,1,-3
1570180197440394,0,-1,0,0,-1,-2,-4,5
1570180197440394,0,1,0,0,-1,0,-1,-1
1570180197461329,0,1,1,-1,-1,-1,-2,-1
1570180197461329,-4,-3,-1,0,-1,3,10,-15
1570180197462538,1,-2,-1,-1,0,-2,-6,5
1570180197462538,1,1,0,0,0,-3,-1,-3
1570180197476296,0,-1,-1,0,-3,0,-3,0
1570180197476296,-1,-2,0,-1,-1,0,2,-4
1570180197476296,-2,0,-2,0,0,0,2,-3
1570180197476296,-3,-4,-2,-1,-1,-2,-2,-3
1570180197499310,0,0,-1,-1,0,-2,-1,-1
1570180197499310,0,2,0,0,-2,-2,-3,1
1570180197500236,-2,-2,-1,-1,0,0,2,0
1570180197500236,1,0,1,1,-2,-1,-4,1
1570180197522306,0,-2,-2,0,-1,-2,0,0
1570180197522306,1,-1,-1,-1,-2,-1,-2,5
1570180197522306,0,-2,-2,-1,1,-1,1,-1
1570180197522306,-1,-1,-3,-2,0,1,3,-3
1570180197536240,-1,0,1,0,1,-1,-4,0
1570180197536240,-5,-1,-1,-2,-1,1,12,-16
1570180197537130,1,0,-1,-1,-1,0,-4,3
1570180197537130,-2,1,0,0,-1,-2,-2,1
1570180197559075,-3,-3,-2,0,-1,1,-1,0
1570180197559075,-2,0,-1,-2,1,-1,-1,2
1570180197560112,-1,0,-1,-1,-4,0,0,-3
1570180197560112,-1,-2,0,0,2,0,0,-1
1570180197582279,-1,1,-2,0,-1,-1,0,0
1570180197582279,1,-1,0,0,-1,-2,-2,3
1570180197582279,1,0,0,0,-2,-3,-4,0
1570180197582279,0,-1,-2,-2,-2,-1,-1,1
1570180197596172,-1,-1,2,-1,0,0,0,-2
1570180197596172,1,-2,-1,0,-1,1,-4,4
1570180197596978,-3,1,0,0,-1,-1,2,-3
1570180197596978,0,-2,-2,0,-1,0,1,-1
1570180197619063,0,-1,0,-2,0,-2,0,2
1570180197619063,-4,0,1,-1,-1,-1,-1,-4
1570180197620022,-1,-1,1,1,0,1,-3,6
1570180197620022,-1,1,0,0,-1,-1,-1,-2
1570180197641869,0,0,0,-1,0,0,0,-2
1570180197641869,1,-1,-1,0,-1,-2,-4,7
1570180197642852,-1,-3,-2,0,0,0,1,-2
1570180197642852,-1,-2,-1,0,-1,1,1,2
1570180197655953,1,1,-1,0,-1,-2,0,-5
1570180197655953,-1,-1,-2,0,0,1,1,-3
1570180197656818,0,-2,-1,-1,-1,-1,3,-1
1570180197656818,1,2,1,0,0,-2,-3,-1
1570180197679800,-1,0,-1,-2,-1,-1,-2,-1
1570180197679800,-1,-1,0,0,0,-2,-1,1
1570180197679800,-5,-1,-3,-2,-1,1,3,-4
1570180197679800,0,-2,-2,-1,-1,-1,-3,2
1570180197701961,-1,0,-1,0,0,-1,1,1
1570180197701961,-1,0,0,-1,2,-1,-2,3
1570180197702694,-1,1,0,0,0,0,0,-1
1570180197702694,-1,0,0,-1,-3,1,2,-4
1570180197715650,-1,1,0,-1,-1,-1,-1,0
1570180197715650,-2,1,0,-2,-1,-1,-1,2
1570180197723633,-3,-3,0,-1,-1,-1,3,-5
1570180197723633,4,1,0,-1,1,-1,-12,12
1570180197739652,0,-1,0,1,0,-1,-1,0
1570180197739652,0,-1,0,0,-2,0,0,2
1570180197740671,-1,0,0,1,-1,-1,-2,-3
1570180197740671,-3,-3,-1,-1,-1,-1,5,-5
1570180197761668,0,-1,-2,-1,0,0,-2,0
1570180197761668,0,1,0,1,-1,-3,-3,0
1570180197762527,0,-1,0,-1,0,0,-1,1
1570180197762527,0,0,1,1,-1,-1,1,-3
1570180197775501,1,-3,-3,-2,0,-1,0,2
1570180197775501,-2,-1,1,1,-1,-1,1,-5
1570180197783761,0,0,0,-3,0,-1,-1,0
1570180197783761,0,0,0,0,-1,2,1,3
1570180197799429,-3,0,0,-1,-1,0,5,-5
1570180197799429,8,3,1,1,0,-5,-22,19
1570180197799429,0,0,-1,0,0,-1,-1,2
1570180197799429,-2,-1,-2,-2,0,0,1,-1
1570180197822364,-2,-2,-2,0,-3,2,-1,-1
1570180197822364,-2,-1,-1,-1,-2,-1,4,-6
1570180197822364,2,0,0,-1,-1,-2,-3,-1
1570180197822364,0,-1,0,-1,0,-2,-1,-2
1570180197835476,1,-1,0,-1,-2,-1,1,-1
1570180197835476,-1,-1,-3,-2,-1,-1,1,-5
1570180197843538,3,0,-2,0,-2,-4,-5,0
1570180197843538,-2,-4,-1,-2,0,-2,3,-5
1570180197859435,0,-2,0,1,0,0,0,0
1570180197859435,-3,-2,-1,-3,-2,2,3,-1
1570180197860267,0,1,-2,0,-1,-1,1,-1
1570180197860267,1,0,0,0,-1,-1,-2,-3
1570180197881208,1,0,0,0,1,-2,-1,-2
1570180197881208,-2,-3,-1,-1,-2,1,7,-9
1570180197882288,6,2,-2,-1,0,1,-8,15
1570180197882288,1,1,0,1,1,-2,-1,-1
1570180197895233,-1,-1,-2,-1,-2,1,-1,-1
1570180197895233,-2,-2,-3,-2,-1,0,3,-5
1570180197903363,-4,-1,1,1,-1,0,5,-6
1570180197903363,0,2,0,-2,-2,-2,-5,0
1570180197920193,0,-1,1,1,0,-1,-4,3
1570180197920193,0,1,0,-1,0,-1,-3,1
1570180197920193,-2,-2,-1,0,0,0,0,-5
1570180197920193,-1,-2,-1,-1,1,1,0,2
1570180197942117,-2,1,0,0,-1,-1,3,-7
1570180197942117,-1,-3,-3,-2,0,0,1,4
1570180197942822,-4,-2,-1,0,2,1,0,-3
1570180197942822,-1,-2,0,-2,1,-2,3,-4
1570180197955217,1,0,-1,-1,-2,0,-2,0
1570180197955217,0,-1,0,1,-2,-1,0,-1
1570180197964044,0,0,0,-1,-2,-1,-1,-1
1570180197964044,-2,-1,-2,-1,-2,0,4,-5
1570180197979061,1,1,0,-1,-1,-2,-8,9
1570180197979061,0,-1,-1,-1,0,0,0,1
1570180197984936,-2,-3,-2,-1,0,-1,3,-1
1570180197984936,-1,-1,-1,-1,1,-1,-3,2
1570180198002056,-2,-3,0,-2,1,1,4,-2
1570180198002056,-1,-1,-1,-2,-2,1,1,-3
1570180198003290,-2,-2,0,-2,-2,1,-1,-3
1570180198003290,-2,-1,-1,-1,0,0,3,-3
1570180198015160,-2,0,0,-1,-1,0,2,-3
1570180198015160,1,0,-2,0,-1,-4,-4,1
1570180198023825,0,1,2,2,0,-2,-2,-5
1570180198023825,-1,-1,-3,-1,-4,0,-2,1
1570180198037927,1,-2,0,1,-2,0,0,-2
1570180198037927,0,1,-1,0,-1,-1,0,2
1570180198046767,1,-1,1,-2,-1,-2,-2,0
1570180198046767,-4,-3,-1,-1,-2,-1,3,-4
1570180198062834,-2,-1,1,-1,0,0,-1,1
1570180198062834,-1,1,-1,0,0,0,1,-3
1570180198063722,0,-2,-3,-2,-3,-2,-2,4
1570180198063722,0,0,0,0,-1,-1,-1,-1
1570180198084701,-4,-2,-3,-1,0,-2,0,-3
1570180198084701,0,-1,0,0,0,1,3,1
1570180198086205,-4,-2,-3,-1,-1,0,5,-5
1570180198086205,2,0,1,0,1,0,-2,3
1570180198098641,0,0,0,-1,-1,-2,-2,-2
1570180198098641,-2,-2,0,0,-1,1,-4,2
1570180198105622,-1,-1,-1,1,1,2,-1,-1
1570180198105622,-2,-2,-1,0,-1,-1,0,1
1570180198121867,0,0,-1,0,-1,1,1,0
1570180198121867,-1,0,1,-1,-1,-2,0,-2
1570180198123560,0,-2,1,0,0,0,-1,1
1570180198123560,-1,-2,-3,-1,-1,1,-1,2
1570180198144585,4,1,0,1,0,-2,-14,14
1570180198144585,-1,-3,-1,0,0,0,0,1
1570180198146314,-1,0,1,0,0,0,0,-2
1570180198146314,3,1,1,1,0,1,-2,3
1570180198158812,-1,-1,-2,0,0,-1,3,-3
1570180198158812,-2,0,-2,0,-1,0,1,-2
1570180198172430,2,1,-2,1,-1,-1,-4,3
1570180198172430,0,0,0,1,-1,0,2,-5
1570180198181610,-1,-1,-1,-1,0,0,2,-3
1570180198181610,-2,-2,0,1,2,-1,-1,2
1570180198183399,-1,-1,-2,-2,-1,-1,4,-5
1570180198183399,-2,-2,-2,-3,-1,-2,-1,0
1570180198204345,1,-2,-2,-1,-1,0,0,-3
1570180198204345,3,0,0,0,-4,-2,-3,0
1570180198205346,-6,-5,-3,-1,-1,0,14,-15
1570180198205346,1,2,1,1,1,0,-5,2
1570180198218473,-2,-1,-1,-3,1,-1,-3,0
1570180198218473,-2,0,-1,-1,-2,1,0,-4
1570180198225369,-1,1,0,0,-2,-3,-2,-2
1570180198225369,-3,-2,-3,0,-1,0,3,-4
1570180198241438,-3,0,-3,-1,-1,1,3,-4
1570180198241438,0,1,0,0,-1,0,-2,-2
1570180198243246,1,-1,0,-2,-1,1,-4,3
1570180198243246,0,-2,0,-1,-1,-2,-3,-1
1570180198264418,0,-2,-1,-2,0,-1,-1,2
1570180198264418,-2,-2,-2,-1,-1,-3,-2,-2
1570180198266180,-2,0,0,0,-1,-1,-6,2
1570180198266180,0,1,-1,-1,-2,-1,-1,-2
1570180198278182,1,-1,-2,-2,0,0,2,-1
1570180198278182,-1,-2,-2,0,-2,-2,0,1
1570180198285323,0,-1,0,-1,-1,-3,-2,1
1570180198285323,1,-1,0,-1,0,-2,-6,7
1570180198302137,-1,-1,-1,0,-2,0,0,-2
1570180198302137,1,1,1,1,-1,0,-4,3
1570180198303174,2,-1,0,1,0,-1,-5,5
1570180198303174,-3,1,1,0,0,1,5,-5
1570180198325120,-2,-2,0,-1,-1,1,1,-1
1570180198325120,0,-1,-1,-1,0,-2,1,-1
1570180198326017,-1,0,-2,0,-1,1,2,-4
1570180198326017,-1,-1,0,0,-1,0,0,-5
1570180198338984,-1,0,0,-1,0,-1,-2,-2
1570180198338984,-1,0,0,0,-1,-2,0,-3
1570180198345294,-1,0,0,-1,-4,-2,-1,0
1570180198345294,-2,-1,-2,-3,0,0,-1,-2
1570180198362136,1,1,0,1,-1,0,-2,0
1570180198362136,0,-1,1,0,0,1,0,1
1570180198362923,1,-1,-1,0,0,0,-1,0
1570180198362923,0,-1,-1,2,-3,-2,-1,0
1570180198391884,-1,0,-1,0,-2,-2,1,-2
1570180198391884,0,-1,-1,-1,1,0,-5,4
1570180198392843,-2,-3,-2,0,-1,-1,-2,0
1570180198392843,-1,-1,0,0,-1,0,0,0
1570180198398826,-1,-1,0,0,-1,-2,-2,2
1570180198398826,-1,0,-2,-2,1,1,1,0
1570180198405807,0,1,-1,-1,0,-1,-2,3
1570180198405807,1,0,-4,-2,1,0,1,1
1570180198422145,-2,-1,0,-1,-1,-1,2,-5
1570180198422145,1,-2,-1,-2,-2,-1,-4,-3
1570180198422760,-1,-2,-1,-2,1,0,0,-1
1570180198422760,0,-1,1,-1,-2,-1,0,0
1570180198443857,0,0,1,0,-2,0,0,0
1570180198443857,-2,-2,-2,-1,0,0,4,-3
1570180198450685,-1,2,2,1,-2,-4,-6,0
1570180198450685,2,-1,0,0,1,-1,-1,0
1570180198459010,0,-1,-1,0,0,-2,-3,0
1570180198459010,-2,-1,0,-2,-3,1,5,-8
1570180198465658,1,-2,-1,1,0,0,-5,5
1570180198465658,1,1,-2,-1,-1,-1,-3,2
1570180198481619,0,-1,1,-1,-1,-1,-1,-1
1570180198481619,-2,1,1,0,-1,-4,1,-4
1570180198483603,-1,-1,-1,-2,-1,0,2,-4
1570180198483603,0,-2,-1,0,-1,-2,-2,-1
1570180198504541,1,0,-1,0,-2,-1,-3,2
1570180198504541,-1,-1,-2,-1,-1,0,0,3
1570180198505538,1,0,1,1,0,0,2,-1
1570180198505538,-1,-2,-1,1,0,0,-2,-2
1570180198518696,-4,-2,-1,-1,0,-2,3,0
1570180198518696,-1,-1,1,0,0,1,0,-1
1570180198525486,0,0,-1,0,0,-1,0,-2
1570180198525486,-1,-1,-1,-1,-1,0,3,-3
1570180198541447,-3,-3,-3,-3,-2,-2,-1,-1
1570180198541447,-4,-2,0,0,-1,1,10,-17
1570180198543439,0,-1,-1,-1,-2,0,-3,3
1570180198543439,-1,0,-2,-1,1,-1,-1,-2
1570180198564529,0,-1,1,-1,-2,-1,-2,2
1570180198564529,0,-2,-1,-1,-1,-3,-5,2
1570180198565384,-3,-2,-2,-1,1,-1,4,-2
1570180198565384,-1,1,1,0,0,-1,-1,-4
1570180198578469,-1,0,-1,1,0,0,-1,-1
1570180198578469,1,0,-1,0,1,-1,-5,4
1570180198587321,0,0,0,-2,-1,0,0,-2
1570180198587321,1,0,0,-1,-1,-1,-3,1
1570180198602281,0,0,-3,-2,0,0,2,0
1570180198602281,0,0,0,-1,0,-2,-2,4
1570180198603589,-1,-1,-2,1,0,1,0,-2
1570180198603589,-1,-1,0,0,-1,0,0,-2
1570180198624425,2,0,0,-1,-1,1,-1,-2
1570180198624425,0,0,-1,1,-1,1,-1,2
1570180198626222,0,1,-1,2,-1,-2,-6,1
1570180198626222,-2,-2,-1,-3,-1,-3,0,0
1570180198638380,1,0,0,0,0,0,1,-3
1570180198638380,7,2,1,0,1,-3,-15,19
1570180198647166,0,0,1,0,-1,-1,2,-1
1570180198647166,-2,-1,0,0,-1,-2,-2,-1
1570180198662128,-3,1,1,1,1,-2,-3,-4
1570180198662128,-1,-2,-1,-2,0,1,2,-4
1570180198663120,0,-1,-1,-1,1,0,-1,1
1570180198663120,0,-2,-1,-1,-2,-1,-3,2
1570180198684075,0,-3,-4,-2,-1,-2,1,2
1570180198684075,0,0,-1,0,-1,-2,1,-4
1570180198686056,-1,0,-1,1,-2,2,2,0
1570180198686056,-3,0,-3,-2,-1,-1,1,-1
1570180198698027,0,0,-1,0,-1,-1,0,0
1570180198698027,-2,-2,-1,-1,-2,-1,1,-1
1570180198707002,-1,-3,-2,-2,0,-1,2,0
1570180198707002,0,1,0,1,-3,-2,-3,-2
1570180198722097,-1,0,-1,-1,-1,-1,-1,1
1570180198722097,0,0,-1,-1,-2,1,1,-1
1570180198722960,3,1,0,0,1,-1,-6,10
1570180198722960,-2,-2,-1,-1,0,1,1,1
1570180198742907,-1,-1,0,-1,1,0,-1,0
1570180198742907,-1,-2,-2,-2,0,1,-2,4
1570180198751890,-2,0,0,-1,-1,0,1,-6
1570180198751890,-2,0,-1,-2,0,2,3,-1
1570180198757914,-1,-1,-4,-2,-3,0,0,-1
1570180198757914,-3,-1,0,1,1,0,2,-5
1570180198766851,-2,-1,-1,-2,0,0,1,-2
1570180198766851,1,1,-1,0,1,-1,-1,0
1570180198781891,-2,-1,1,1,-2,0,1,-4
1570180198781891,-1,-1,-2,-1,0,-1,0,0
1570180198783157,-1,1,0,0,-2,0,0,-2
1570180198783157,2,0,-1,-1,0,0,0,2
1570180198804000,0,0,0,0,0,0,-3,-1
1570180198804000,0,0,-1,0,-1,-2,-1,0
1570180198805812,1,-1,1,0,0,-2,-2,-1
1570180198805812,-2,-1,-1,-1,-1,-2,1,-3
1570180198817887,0,-1,-2,-1,-2,2,-1,-1
1570180198817887,-1,0,-2,0,-2,-2,-2,-1
1570180198826687,1,0,2,0,0,1,0,3
1570180198826687,1,1,1,0,1,-1,-4,1
1570180198842642,2,-1,0,-1,2,-1,-2,5
1570180198842642,0,1,2,1,0,0,-3,1
1570180198843636,-1,-1,-1,-2,0,-2,0,-3
1570180198843636,-1,-3,-2,0,-1,0,-1,-2
1570180198864580,-3,-2,-1,0,1,1,1,-2
1570180198864580,-2,1,0,0,-3,-3,1,-6
1570180198865906,-1,-2,-1,0,0,0,0,0
1570180198865906,-1,-2,-1,1,-1,-1,1,0
1570180198877668,-1,0,-1,-2,-1,-2,1,-4
1570180198877668,0,-1,0,-3,1,0,-1,1
1570180198886836,-2,-2,-1,0,-3,0,0,-3
1570180198886836,0,0,1,-1,-1,-2,-1,1
1570180198901719,0,0,0,0,0,-1,0,-1
1570180198901719,0,-2,0,-1,-2,0,0,0
1570180198903725,-5,-3,-3,-1,-1,1,9,-17
1570180198903725,-4,-1,-1,-2,-2,-1,-4,-2
1570180198924419,-1,1,1,0,-1,-3,-2,-1
1570180198924419,-1,-2,-1,-2,0,0,0,-1
1570180198925415,-1,-1,-2,0,-1,1,1,-1
1570180198925415,-3,-1,-2,-1,1,0,5,-2
1570180198938494,1,-3,1,0,0,-1,-2,-1
1570180198938494,0,-1,-3,0,0,0,1,1
1570180198947362,0,0,0,-1,0,-1,-2,5
1570180198947362,0,1,3,1,-1,0,-1,-5
1570180198962329,0,1,-2,-1,0,-2,-3,3
1570180198962329,-2,-3,-1,0,-1,-1,2,-2
1570180198963361,0,-2,0,-2,-1,-2,-3,1
1570180198963361,1,-1,1,2,-2,0,-2,0
1570180198984545,0,-2,-2,-1,1,1,1,-3
1570180198984545,0,-1,-2,0,-1,0,-1,-1
1570180198985260,1,1,0,0,-1,-1,-2,1
1570180198985260,0,-1,-2,-1,-1,-1,1,1
1570180199006308,2,0,-3,0,-1,-2,-11,12
1570180199006308,0,1,1,1,0,-2,0,-1
1570180199008206,-1,0,0,-1,-2,-2,-3,2
1570180199008206,0,0,-2,-2,1,0,-3,4
1570180199022165,-6,-3,-1,-1,-1,1,1,-7
1570180199022165,1,1,-1,0,-3,-1,-1,0
1570180199023295,0,0,-2,-1,0,-1,-3,0
1570180199023295,-1,-2,-2,-1,0,1,1,-4
1570180199044313,-2,1,-2,-2,0,-1,1,-5
1570180199044313,-1,-2,-1,-1,0,-1,-1,-1
1570180199046101,-1,-2,-1,-1,-1,0,1,-2
1570180199046101,-1,0,-1,-1,0,-1,0,0
1570180199067251,0,1,0,-2,-1,0,1,-2
1570180199067251,1,1,0,1,-1,-3,-3,0
1570180199068037,1,-1,-1,-1,0,-2,-2,2
1570180199068037,-1,-2,0,0,0,0,0,-1
1570180199082199,-1,-3,0,1,1,2,3,-1
1570180199082199,-9,-5,-3,-3,-1,2,15,-21
1570180199083141,-1,0,1,-1,-2,-1,-3,-2
1570180199083141,-1,0,-1,0,0,-1,0,0
1570180199104067,0,-1,2,0,-2,-2,-1,1
1570180199104067,-1,1,-1,0,-1,-1,-1,1
1570180199106047,-1,-2,-1,-1,-1,-3,0,-1
1570180199106047,1,-3,-2,-3,0,3,3,4
1570180199126880,-1,1,1,-1,0,-1,1,-8
1570180199126880,1,-1,1,0,1,-1,-4,3
1570180199127876,0,0,-2,0,1,-1,-1,0
1570180199127876,1,-1,0,0,-1,-2,-3,0
1570180199141843,-2,-2,-2,-1,-1,-1,-1,1
1570180199141843,1,1,1,-2,0,0,-2,3
1570180199142833,-1,-1,0,1,1,0,0,2
1570180199142833,-2,0,0,0,-1,-2,0,-4
1570180199163839,0,-1,0,1,2,-1,0,4
1570180199163839,0,-1,0,-2,-1,-2,-3,1
1570180199165780,0,0,0,-2,-2,0,-1,1
1570180199165780,-4,-1,-1,-1,-1,0,1,-1
1570180199186958,0,-2,-1,0,-2,-2,-1,-1
1570180199186958,1,-2,-2,1,1,1,-3,4
1570180199188301,0,1,-1,-1,-1,-1,-2,2
1570180199188301,-1,0,-1,0,-1,-1,1,-2
1570180199200785,1,2,0,-2,-2,-1,-1,-2
1570180199200785,-1,-2,-1,1,-1,-1,-1,-1
1570180199207765,0,-2,1,-1,-1,3,5,-3
1570180199207765,0,0,0,0,-2,-1,-4,-2
1570180199224784,-1,-2,-2,0,-1,1,1,0
1570180199224784,2,0,-2,0,-1,1,-3,2
1570180199225616,0,0,0,-1,1,0,-2,-1
1570180199225616,1,-2,-1,-2,0,-1,-1,3
1570180199246738,-1,2,0,-1,-1,-1,-2,2
1570180199246738,-1,-1,0,-1,-1,0,-2,-3
1570180199248554,-1,-2,-2,-1,-1,-1,0,0
1570180199248554,0,0,-3,-2,-1,0,0,0
1570180199260917,-2,-1,-1,-1,-1,-1,-1,-4
1570180199260917,-6,-2,-4,-3,0,0,15,-20
1570180199267673,0,0,1,2,0,0,-3,0
