timestamp,emg1,emg2,emg3,emg4,emg5,emg6,emg7,emg8
1570178936612133.0,2.5745521354889296,3.082526594793931,2.3270944897070778,3.216532396418805,0.91219270838138,3.6630758684954623,0.6977835463673137,11.329339504185821
1570178936612133.0,3.381208546228822,2.661249563399811,1.0675172556692343,2.434095625713007,0.5516573603889212,2.768797051900027,1.1108176644302468,9.834931989240753
1570178936613130.0,3.5528166018128124,2.76868044982626,1.0412465074164912,2.3485776985028286,0.5624183393061611,2.6818351171798716,1.1930546046196815,10.225124602557845
1570178936613130.0,3.8472491035461833,2.682081129325966,0.6207372166991513,2.1464973545262787,0.4912351589192522,2.464723573972979,1.34751219319154,9.954934825969113
1570178936614127.0,3.9580786548225886,2.7566152550281444,0.6125595180260409,2.078654409379505,0.5108323714634111,2.385559825808516,1.3906855045834254,10.26697141380566
1570178936614127.0,4.161401372912416,2.7379663010736706,0.3661659370889409,1.9712193573910635,0.4953811655759416,2.2711625201377306,1.4676923363573606,10.199356081498841
1570178936617119.0,4.2616000222638615,2.8068521092326097,0.3782740035803795,1.9156785863364403,0.5179236599486299,2.1980420322474514,1.4802274228028678,10.451790409558997
1570178936617119.0,4.412370348629828,2.806004408699054,0.22812556914162868,1.8482980596052911,0.5257404156180847,2.1216664988651748,1.5269816049856144,10.436769298221945
1570178936624224.0,4.491462933319311,2.8589029211191868,0.26346542467584055,1.8061614319445138,0.5505782956749486,2.056699681767623,1.5439825643072547,10.618884220931328
1570178936624224.0,4.616857577957912,2.87150443443407,0.19945122460241665,1.762351485858478,0.5702433290811459,2.0023603358326905,1.592330883519577,10.59596330977978
1570178936633080.0,4.690029851826828,2.928369060301644,0.24390046933205942,1.728921642770349,0.5986545349203192,1.94595745976573,1.6148276875314296,10.706782503641037
1570178936633080.0,4.77362090401358,2.9495371320424186,0.24465563460530707,1.6962029536394723,0.6240568978077964,1.9064157185912889,1.6615992992002293,10.66543781763749
1570178936640060.0,4.78799464814818,2.987105420476271,0.2858197504717663,1.66454111806271,0.6517334804997775,1.8600177906555937,1.6850066692690733,10.730382030466602
1570178936640060.0,4.811708850474742,2.993540039746355,0.3176706643208432,1.6372975243813432,0.6780676865779806,1.8314261280586785,1.7195522590571821,10.69095371711846
1570178936654022.0,4.811293132245956,3.020484737479847,0.3511562305130704,1.6091338708139913,0.7031185055567062,1.787394229187678,1.7321035246707035,10.699964864045507
1570178936654022.0,4.8312149223219745,3.033301725863103,0.3866064691759081,1.5876403469456752,0.7255157290313112,1.7579343588821812,1.7602013284670526,10.561150324143691
1570178936665023.0,4.811659222660869,3.0561745113004033,0.41591801289981434,1.560873661744772,0.7463243132583619,1.7132663797381282,1.7745804193229588,10.443500287803905
1570178936665023.0,4.791059885399497,3.057971727788376,0.45576590898667385,1.5411829199974032,0.7647425337815331,1.6880863335464686,1.8036268985217963,10.259962226580024
1570178936669016.0,4.745097655021588,3.0584225716290763,0.4838047935952431,1.5144712495147168,0.7827459236431015,1.6496410772991286,1.8203352493469587,10.147530291677777
1570178936669016.0,4.700027048467052,3.0367847734996367,0.5227708902571863,1.4947934876451916,0.7974840862323098,1.6285706072913568,1.8476033765365516,10.029847601315131
1570178936693001.0,4.640545737859077,3.012269695400299,0.5484394301677642,1.4655779508632354,0.8082864496129725,1.5930323097041748,1.864165051217245,9.985045004493823
1570178936693001.0,4.594224646263057,2.9821816356058775,0.5799213216803671,1.4454888784707434,0.8145428440365367,1.5768142560875331,1.89423721060043,9.892170772935215
1570178936694958.0,4.530310367303753,2.9577285014051875,0.5939906844288172,1.4170571378234256,0.8191095308341737,1.5474956935715989,1.916777041217209,9.769780374464977
1570178936694958.0,4.470571860798038,2.938494464751611,0.6080675465457582,1.3976802698042363,0.8188597000234177,1.5334702231582684,1.949239347808662,9.569245544146204
1570178936731813.0,4.407227246008629,2.929176115433355,0.6112609845018482,1.3713681611470403,0.8168334398250147,1.5075244616296273,1.975252172674997,9.386972248211874
1570178936731813.0,4.346564561452718,2.921753104802475,0.622299380991594,1.3568722210447401,0.8136453953571416,1.498766226142188,2.0127374636980044,9.207012977167178
1570178936732811.0,4.26276805717409,2.8986119685584493,0.6293363428576841,1.3370307906041248,0.8116601839306874,1.4807568816730265,2.04330819981561,9.072271245972042
1570178936732811.0,4.166308350368462,2.850656602718725,0.644592952592195,1.3290408919757466,0.8087692484732901,1.477491241053917,2.080727818674965,8.944720592012008
1570178936733812.0,4.062968122759407,2.7887395501189665,0.6524666746623082,1.313744939738358,0.8088227213704398,1.4628610658333736,2.11022996148556,8.845864554885939
1570178936733812.0,3.968979275347907,2.734184285520255,0.6670562699993178,1.3041588331288707,0.8115112001228623,1.4626322176413926,2.1466304939209904,8.739608224599703
1570178936736801.0,3.8710580439440747,2.6766730054996413,0.6764916808149416,1.2844476354284624,0.8179955628277938,1.4533333310837813,2.174898034871564,8.633786063648582
1570178936736801.0,3.769351419555961,2.61959313729469,0.6955186605370834,1.2708321947300327,0.8266385005378802,1.455357487629907,2.204348226488803,8.495243782155255
1570178936743781.0,3.6634427316209974,2.559022195503316,0.708628796480712,1.2473533242346677,0.8357720753872301,1.444799626751785,2.224179902604941,8.336840998003073
1570178936743781.0,3.560417646819419,2.5080398180299,0.7268916109890077,1.2332009374808268,0.8443392779106256,1.4413286902957867,2.2456589437772414,8.163755798201349
1570178936751760.0,3.4546749358855005,2.457315502186455,0.736229307565984,1.2127401750876536,0.8532302674181181,1.427004000938662,2.2596778019300956,7.997368325422154
1570178936751760.0,3.354186320670405,2.4171162251399805,0.7507327273741627,1.2007370247034903,0.8648403099363243,1.4251626057109728,2.278249868629429,7.818739683635715
1570178936760735.0,3.2596969854662623,2.3750665044848502,0.7571247580360795,1.1807960705586398,0.8795909274663897,1.4156047012200386,2.2910949607464643,7.632406240168258
1570178936760735.0,3.174305769392289,2.3364725301494067,0.7684612766474893,1.167515021665886,0.8981719040143409,1.4186852320941652,2.3018681353694643,7.4519248653322805
1570178936773700.0,3.091519663188151,2.288190742003501,0.7742457539346664,1.147227173179639,0.9176347181883443,1.41315326354724,2.295806947151491,7.277121278048813
1570178936773700.0,3.0122894115294576,2.2427710649549097,0.78329172389428,1.1339417241987135,0.9350143648765916,1.4178759440127096,2.2716647288065213,7.102953044880439
1570178936783059.0,2.9386815273531157,2.193361441834161,0.7856805758860095,1.1149353458172442,0.9467852850688132,1.414380684868464,2.230573234350623,6.937543407242886
1570178936783059.0,2.876890583453395,2.1546310914306925,0.7933677805483865,1.1041684562319785,0.9547937592722617,1.4195557212894676,2.1955239032387093,6.7805661781441815
1570178936797105.0,2.821105018141971,2.1114761172044143,0.7975047528129885,1.090565437904096,0.9624834166457777,1.412596775404634,2.16740486734485,6.622629666588102
1570178936797105.0,2.7712202586575865,2.069424595004554,0.8074877135886803,1.0867751858983534,0.9712124058431861,1.4114608051949533,2.1476813240079258,6.47081379305846
1570178936803655.0,2.7207195238473707,2.0162436686273906,0.8137645562926942,1.081757332447077,0.9806785074979213,1.3989044677877203,2.128136412695889,6.326640938950819
1570178936803655.0,2.6714802304185374,1.9686359937690432,0.8234277500889283,1.0823397355181135,0.9921588406163222,1.3948935210988103,2.1109529609654976,6.193342857213262
1570178936811715.0,2.622255885339119,1.9178229550144255,0.8258939569690424,1.0770945635969404,1.0035208895817012,1.3804679920235023,2.089001561841677,6.073216993508753
1570178936811715.0,2.5807794304435947,1.8738383244290793,0.8300842111355603,1.0752053601535905,1.0129963308176042,1.3744161834553639,2.0643655883516967,5.966711910417152
1570178936820679.0,2.5423016979016553,1.8252192607562598,0.8289588409683589,1.0705680989814876,1.020663402456909,1.358510622070392,2.0399828410732854,5.864266044527332
1570178936820679.0,2.5095648851026233,1.7856088226828963,0.8337064048933945,1.070180526285037,1.0264027728951004,1.3526983866310707,2.0218129083106304,5.7522676264574715
1570178936833613.0,2.482045303250957,1.7443888767813442,0.8367343466934811,1.0644927073746366,1.031504117645016,1.3385531527547554,2.002143313481697,5.635483211809378
1570178936833613.0,2.463411783684619,1.7121104673153589,0.8453641485034381,1.0621357480360842,1.0355926947165328,1.3336975269557187,1.9859198094924482,5.5272836768835845
1570178936849499.0,2.4439385748977713,1.6760707122570822,0.8520760943912897,1.058647090461806,1.0382662996446947,1.3193639275873985,1.9722121367175685,5.437140203199762
1570178936849499.0,2.433454142756012,1.6460190281298297,0.8651061346827496,1.0613805944538344,1.037855325008324,1.315623882718222,1.9615978893354582,5.362271847553079
1570178936850495.0,2.4301113012039264,1.612635378951453,0.8726988503683697,1.063984513326581,1.034028515771137,1.304348449452381,1.9483709202836623,5.307534713445469
1570178936850495.0,2.4376347889347616,1.5858235715993196,0.8831284766131046,1.067905956855102,1.028572102826742,1.301840085113414,1.9375390679668558,5.265278011321134
1570178936863808.0,2.447339414708816,1.556772835790285,0.8898568708755075,1.0656527408849847,1.0254877865585976,1.2909638749222383,1.9309743516128346,5.243222251404586
1570178936863808.0,2.4654737433879164,1.5364042777516693,0.9012711433671184,1.0638569378489104,1.023876314738786,1.2865313118524229,1.9336492634766198,5.233780051192128
1570178936871517.0,2.4824369969764413,1.514603725707593,0.9089628374523278,1.0606585506577726,1.024771985407636,1.2725393518315997,1.9394624844890496,5.248586074054124
1570178936871517.0,2.503166350275984,1.4970271887068867,0.9212136513832752,1.0609632795037047,1.027295931588127,1.2690248801276822,1.9487771927730637,5.269305139682825
1570178936880619.0,2.522815436069288,1.473428449345082,0.9288341619135361,1.0593117973671564,1.0314734256322424,1.2593817079379677,1.959687069873825,5.3012748027564625
1570178936880619.0,2.5521816706163207,1.4515051550294347,0.9401483536087215,1.0608532844799399,1.0344194921911964,1.2586770792715563,1.9745817047790883,5.3363051395479335
1570178936893380.0,2.5820657738826447,1.4233453907395592,0.9473172324469312,1.0617755618694722,1.0368999375594854,1.251197694346023,1.986694047825671,5.392315716836007
1570178936893380.0,2.617830211825442,1.3987638524632857,0.960333039378887,1.064748822720705,1.0399793281853258,1.2515916345736484,2.0009811481255446,5.447825165260178
1570178936902356.0,2.6498123050489006,1.3703183533148482,0.9718666776443574,1.067273558968339,1.0456746091109201,1.2442684265599628,2.015942966722976,5.500817640762118
1570178936902356.0,2.6854249936414956,1.3444030979929191,0.9874308437480261,1.072672942303822,1.0512833646721038,1.2446549721141893,2.0325347544248418,5.527694367910493
1570178936908485.0,2.720873224354404,1.313970349480051,0.9977265858592912,1.0779134013430582,1.055630524991996,1.2356239834326253,2.049458367463259,5.567546694478533
1570178936908485.0,2.7656475290262987,1.2881165319257923,1.009477795760494,1.0869036632302682,1.0586992825464763,1.2322591454239538,2.071835076088822,5.618512202256341
1570178936932275.0,2.810551910434546,1.2613478524769177,1.0179644986783691,1.096128115853266,1.0624334154307573,1.2208368617681327,2.0931521600900918,5.6840768293856065
1570178936932275.0,2.8619159654304096,1.2407832990139827,1.030422456706834,1.1062651958924,1.065908345714358,1.2157236789474168,2.1121750104972405,5.740059476200902
1570178936932275.0,2.9109948098026064,1.218631742733481,1.0375380686906235,1.1136931642919723,1.0710867009620961,1.2042547585489922,2.1314548870543457,5.810689134726077
1570178936932275.0,2.960046409681425,1.1983297245986262,1.0449146038447048,1.121135457923145,1.0771779329504083,1.2012816758872218,2.1571920926897947,5.864592494819031
1570178936940254.0,2.9960560689950544,1.1747061625820108,1.0500012649206327,1.1257650724863841,1.083255689847423,1.1927176980842602,2.1842008427674395,5.890618468521938
1570178936940254.0,3.0342361556595097,1.1539691007207473,1.0587210765719193,1.12974643470095,1.088206846926744,1.1929156224909314,2.2073034947147914,5.886698337560044
1570178936954216.0,3.0751746729179903,1.1322449046955456,1.0630428154449374,1.1286365144789383,1.0941345951356258,1.186512219001106,2.2105839000410192,5.8768420215221395
1570178936954216.0,3.1266406710908003,1.1143878471071191,1.068233852915235,1.1267765106755223,1.1001046734390685,1.1854855611228126,2.1910713748226636,5.8495654553922884
1570178936971170.0,3.1796738951026136,1.095198938636232,1.072692905632201,1.1221712233907524,1.1055332435218834,1.1770115543285158,2.163013011545517,5.835058037917285
1570178936971170.0,3.2398774464115934,1.0792969054607946,1.0814560276445426,1.1208600856354471,1.1070617216309853,1.1754319377164582,2.1365154581281622,5.831791350981427
1570178936972169.0,3.298686854740706,1.0636599528949164,1.089183919355083,1.1189801968808573,1.1068991254949758,1.1668015352902696,2.1051607509084995,5.843259348502288
1570178936972169.0,3.361908737990902,1.0490725419651623,1.0968939556551012,1.119878656298089,1.1026254525001462,1.164501880992981,2.0675373499970164,5.850101230125998
1570178936984137.0,3.419627922022992,1.0338711539801875,1.1003538085556162,1.118417497912793,1.095296933131536,1.1572211980893197,2.0268026247445867,5.867474706904335
1570178936984137.0,3.4780914791522393,1.02319186295018,1.1049768649884375,1.116167527791157,1.0859977950355661,1.1567276719816357,1.9857424325076143,5.87950240764212
1570178936991117.0,3.5346069910087126,1.0170095732464794,1.1086007331951238,1.1068736717243846,1.0765395447806436,1.1505702857420723,1.9477442084431134,5.892297903009555
1570178936991117.0,3.6001114040568813,1.0152323188571395,1.1139273152646187,1.0980104783089297,1.0658038997955792,1.151034870488094,1.9166299146045596,5.903157041523489
1570178937000125.0,3.662358628109968,1.0165626902073222,1.116436885605275,1.0855418349256218,1.057758451993429,1.1463131600926442,1.8920696501777845,5.9223398982848225
1570178937000125.0,3.7212362082602444,1.0216474886793803,1.1166042016494215,1.0744089776170556,1.0498986132790735,1.1468111024696162,1.8730901283528345,5.928416929836324
1570178937014057.0,3.7740680802176194,1.0310808306736376,1.1145725182265116,1.0620995198014616,1.0428989679399105,1.137986690684158,1.8594218592914538,5.933476120570477
1570178937014057.0,3.834010744569159,1.0413130352741258,1.1128893291355724,1.0563177218760251,1.0357593445235391,1.131653499856413,1.8471508742626457,5.935889406417767
1570178937023034.0,3.898350668223857,1.053006522411425,1.110116798417635,1.050516130504123,1.0313799574462028,1.1182774837939717,1.831233951335669,5.957286081592391
1570178937023034.0,3.9737741424278923,1.0640259320100953,1.1094420043686288,1.0466522040881208,1.0281868736715833,1.1122678345229118,1.812762809567991,5.987531400404415
1570178937029104.0,4.051799629937177,1.07667482587688,1.109652064420779,1.0394026168724138,1.0280592641804076,1.1014589046754324,1.7935567532881918,6.027954111368416
1570178937029104.0,4.131709635756099,1.087095950264279,1.110742657294917,1.0346364576717522,1.0286499682060912,1.0973014822725156,1.772580167252743,6.059932107967831
1570178937043977.0,4.20150108078966,1.096439765958771,1.1098877950820585,1.0265636150372095,1.0287197922880604,1.088857840246057,1.7507097193669714,6.091872189278121
1570178937043977.0,4.270447045297607,1.1022145503562104,1.1068866496447418,1.0195671301707778,1.0250206775502717,1.0854388707069789,1.7318090099768808,6.1252088672150915
1570178937051231.0,4.3423884760058815,1.1111306259376432,1.1041211586791302,1.0118287374604402,1.0219322710571055,1.0753281346505839,1.7167910408620959,6.180158084676459
1570178937051231.0,4.424688827074635,1.1210949057241972,1.1029776626940475,1.0084310495764215,1.0182268108137777,1.0701835644826214,1.7046175753454391,6.249895113162007
1570178937059934.0,4.506561657378821,1.134487272770813,1.1020723636004428,1.0028405195636756,1.013489581069162,1.0600499629690223,1.6952084298046208,6.339299731159643
1570178937059934.0,4.569941986276348,1.1452675329546402,1.1027219643999024,1.001173244647195,1.0066308797493329,1.0577241144739646,1.684598495837889,6.408394190100605
1570178937073897.0,4.600385273046482,1.157460498290632,1.1056166244772567,0.9997507509086925,1.0004264071247184,1.0530148001137378,1.669799701465036,6.4412730217641165
1570178937073897.0,4.615490648731191,1.1691175568728558,1.1080222678237996,0.9996795117526467,0.9931938538400458,1.0529758040784059,1.6566601639787595,6.444609752045497
1570178937082872.0,4.607318854014774,1.186483011026405,1.106923379261488,0.9957625224684056,0.9867691611316426,1.0471602884131719,1.643274137984364,6.425763874094782
1570178937082872.0,4.573708540502182,1.2032897442925823,1.104243285185359,0.9916530525513303,0.9785093742835155,1.0451630042070144,1.6196661988259666,6.378875325201616
1570178937096891.0,4.525492426601144,1.225224631164812,1.102105550361742,0.9842213951694347,0.969040258112073,1.0368624578016639,1.5885857776937513,6.329030314994079
1570178937096891.0,4.470419240927808,1.2486704575608245,1.1002287623641345,0.9791804145316269,0.95534158942314,1.034260159226267,1.5585375780108286,6.274171591234103
1570178937106246.0,4.400302373224761,1.2791894242760324,1.0970457927926776,0.9740203295776763,0.9384013640180129,1.0300409730561655,1.5326828923278935,6.214446368935947
1570178937106246.0,4.31741943801059,1.3087863102658988,1.0909942418542249,0.9724066013455992,0.9197832628131976,1.0325531419544938,1.5088768023557693,6.144377355577151
1570178937110800.0,4.2327503451767265,1.339029688914867,1.0845960454407044,0.9710970851563648,0.9046834709520268,1.0325918648958743,1.4851778054916762,6.064487358548986
1570178937110800.0,4.159704344430883,1.3619836623226516,1.077129251382995,0.9723774351113413,0.8919447861363818,1.0357580785489788,1.4613974720405252,5.983055568054968
1570178937119774.0,4.098341131560416,1.3878849051055144,1.0702205525997546,0.9731307525234978,0.8833670563689701,1.0318221963420717,1.4385373566574045,5.910039943031421
1570178937119774.0,4.048058729194066,1.4150347642553371,1.0661519419132406,0.9764449139503245,0.8777817021258432,1.0303893993589068,1.419555574310722,5.845034441739634
1570178937133818.0,4.005511009399254,1.448613508844474,1.0666096118468493,0.9775500540156663,0.8756813363585587,1.025267113519292,1.4053361689807475,5.787159140160536
1570178937133818.0,3.968563950290626,1.478954070740214,1.0701381643629015,0.9781490620538843,0.8748434290596775,1.0259682278429452,1.393895102402074,5.726654177595274
1570178937142712.0,3.9299456877673897,1.5116217486868406,1.0732559701118318,0.9742890789199786,0.8762476931667605,1.0241442155291887,1.3829602330698199,5.660167034616983
1570178937142712.0,3.893256274750258,1.5420994326201145,1.0725143406730826,0.969417872070517,0.8789706634059979,1.025634372921078,1.371767105507154,5.595198007230658
1570178937156675.0,3.863814788475424,1.5776918798797395,1.0703119022510335,0.9636582873433629,0.8838597440651148,1.0222315331273049,1.3610072766197958,5.54478636821247
1570178937156675.0,3.845393606458043,1.6129715347408426,1.0671011058128559,0.9600544408081171,0.8892349418835347,1.022641061735106,1.3518962394313292,5.504745243897641
1570178937163657.0,3.8357639070490976,1.6543935143232127,1.0634085048227055,0.9548722420740684,0.8946550611639977,1.0184422676381,1.3419222687131867,5.472926982087427
1570178937163657.0,3.8352092441166152,1.6930575933660885,1.060626124551173,0.9506572868378936,0.8994791878195175,1.0168293754586544,1.3306567668724685,5.450183987067377
1570178937171636.0,3.8409780501175965,1.734900940614675,1.0593444289458473,0.9457852234398058,0.9051929984081577,1.0114181343484203,1.3196018148213142,5.441574938186129
1570178937171636.0,3.8567143426991635,1.7764263072739974,1.058056170683222,0.9437629202058827,0.911463232373794,1.0081493824642795,1.3091321836229122,5.447115696343008
1570178937180611.0,3.8804905074778913,1.8251627923662894,1.057224073063053,0.9424413116131836,0.9157334685668269,0.9966804503509249,1.2976653684486037,5.467661889356604
1570178937180611.0,3.9084212776821605,1.874174246363549,1.056409882686387,0.9430181725782716,0.9174325882514566,0.986260469307189,1.2859227647144214,5.486995103445337
1570178937194574.0,3.933220871936297,1.929610603982936,1.056006072719417,0.9424295316508945,0.9199125415633366,0.973710752655057,1.275190005514599,5.501797149375227
1570178937194574.0,3.9561204853150884,1.9849381416247356,1.0556589818485893,0.9443980068843643,0.9219623036699053,0.9664077257354055,1.2648296349472454,5.508404221583596
1570178937202552.0,3.979823094693791,2.0460911469222975,1.0556747221558065,0.9484822172375034,0.9228104588154764,0.9548858729079117,1.251462292836029,5.503154282593955
1570178937202552.0,4.0065411043682735,2.105694215688277,1.0557983297079012,0.9533749568337975,0.9251622805996181,0.9475457742578113,1.240273958162629,5.488047519155406
1570178937216514.0,4.032059079023557,2.169565434924923,1.0562308835540104,0.9545358846384999,0.9303542351754212,0.9401108283286422,1.2318106063947587,5.469189783463075
1570178937216514.0,4.062861479113462,2.2329736603787387,1.0578430920073938,0.953122298665531,0.9362691175557545,0.9395325851829133,1.2249672091249169,5.443385760229564
1570178937223497.0,4.099280614013914,2.301978028456497,1.0626786153417864,0.9506182971424746,0.9410447341250147,0.9392272439066908,1.21969150280957,5.412544558793166
1570178937223497.0,4.141755708329043,2.3688467348849147,1.0707971495889814,0.9504193939533812,0.9445562258601521,0.9429042146558353,1.2157490892133156,5.37490233070523
1570178937231475.0,4.187278724826509,2.4351750070244713,1.0800695289033084,0.9514296162870425,0.947893909218724,0.9448354205989812,1.2113028277683222,5.3388737628549165
1570178937231475.0,4.235699915993773,2.4929082216509846,1.0887376574628784,0.9557190970926681,0.9500273388467003,0.9512084798262637,1.2093988659013664,5.3024574717402215
1570178937247488.0,4.2836234754330045,2.549627515625185,1.0956909992232648,0.9625293301379136,0.9519968244605665,0.9564385422159591,1.2061638188217896,5.263103292714418
1570178937247488.0,4.33235207790286,2.6017293623404796,1.1020990669185007,0.970608327305342,0.9558371232846303,0.9640057792596136,1.2007573091326345,5.221319296575415
1570178937253498.0,4.380684890386919,2.6552004453375466,1.107913964517479,0.9783497041742858,0.9615376487069203,0.9693522804238776,1.1946544333349527,5.180256565621829
1570178937253498.0,4.4315894058793095,2.709420353172798,1.1121848050783385,0.9872234876487722,0.9702450102686866,0.9776560290616442,1.1923921371640565,5.139350131055651
1570178937262395.0,4.483687185222303,2.7682707896538323,1.1159790147202966,0.9988588144699029,0.9827604545421174,0.9850897248773216,1.194037876039332,5.097842808981965
1570178937262395.0,4.5411748612970255,2.8247999134944175,1.1211346101350983,1.0136577282238182,0.998237177121195,0.9946268461853605,1.2016140455228819,5.058366810684304
1570178937277353.0,4.609125842921421,2.883960880405805,1.128896136817198,1.0294305147988947,1.014410528867264,1.0023876049475116,1.2126035674801616,5.028942316335109
1570178937277353.0,4.690115504401907,2.942420991036742,1.1380995689364812,1.0446200445724982,1.03068093868346,1.0121361074438142,1.2272122152664415,5.003677574715758
1570178937283447.0,4.770714361869827,2.9998681363948956,1.1463473485628393,1.056986367588284,1.047797413286548,1.0212252368148438,1.2421443455139618,4.982282642665353
1570178937283447.0,4.836455988669224,3.051397245767396,1.1482863650485522,1.0662034708124892,1.065048327466069,1.0328480542323544,1.2570194094751657,4.967798988840288
1570178937291315.0,4.881495585287939,3.09796427360055,1.1444676271640992,1.0715436768276951,1.0793754267375189,1.0402887650027905,1.2687754439666616,4.963550435369371
1570178937291315.0,4.912859381036574,3.136157236304396,1.1386407623275618,1.074033555735939,1.0931889638363699,1.047119121670561,1.2813183533700536,4.963886785084536
1570178937300291.0,4.9424404473273595,3.177884663971074,1.132127004694528,1.0713555279673719,1.1072433662896348,1.0484487874337198,1.2887507557848252,4.94477130312904
1570178937300291.0,4.969010383401986,3.2180414507325907,1.122372278205526,1.0655656211350653,1.1178817744481144,1.0466580286230582,1.2915200934478512,4.8884987140000815
1570178937314253.0,4.981973179363178,3.2526030980279867,1.1117652968174399,1.0596726164416517,1.1251405242628278,1.0417037531200173,1.2929457992122502,4.818737923525811
1570178937314253.0,4.995208152374836,3.290719472400775,1.0994222582759803,1.0578108420891517,1.1320220433379042,1.041636204206815,1.2974301407014643,4.7472154965171205
1570178937323230.0,5.0230761455997985,3.3408725392681804,1.0891093252185853,1.0563257150469005,1.1405043098995002,1.0406228009729568,1.3041909306711879,4.67380257305974
1570178937323230.0,5.050919831551419,3.386561327056841,1.0781774174099836,1.0562434246147703,1.1506234061182514,1.0420391684680193,1.3139680093606094,4.601080079393558
1570178937337192.0,5.06376766767173,3.4121374985734594,1.0663167625504109,1.0545908445090721,1.1596934442859543,1.041548647377314,1.3226550735566611,4.53619313149823
1570178937337192.0,5.073561529286656,3.4216850538867862,1.0532706465777748,1.0514947552826897,1.1647010805567812,1.0419179927216058,1.332263868044933,4.479065527725302
1570178937344174.0,5.090422051270179,3.4270946911709204,1.0439751817235494,1.0451956058763796,1.165837812551472,1.0359444204577055,1.3383224881636457,4.424318405243181
1570178937344174.0,5.103502921340885,3.426414510952245,1.0369323965177761,1.0401918990026895,1.1637305231152517,1.0303148064960574,1.3413722041628033,4.3692965922358615
1570178937351187.0,5.090231059383561,3.4059584576707524,1.0319016319470133,1.0329602008016014,1.1576537355458867,1.0245112480077623,1.3422695758798335,4.323552636755831
1570178937351187.0,5.04491505095704,3.3654064979726668,1.0271335061118634,1.026874538840795,1.1486687175693822,1.024144798882349,1.3479833120845433,4.286911998543414
1570178937360419.0,4.988897071804862,3.320279707603943,1.0261178479719317,1.02138379276604,1.1411941793093372,1.0219139542697355,1.3562253968798617,4.261342813848246
1570178937360419.0,4.937752001250095,3.277485362802451,1.0277057605685251,1.0178406341617499,1.1348772471696391,1.0209459584578577,1.3664625304419082,4.244107421919933
1570178937374212.0,4.893688449996682,3.230772321961776,1.031209244807168,1.0101306188632968,1.1293859113798848,1.01840535113235,1.3757566796649703,4.24058862480296
1570178937374212.0,4.8566256319992105,3.186865353004401,1.0334432493961212,1.0016685816767759,1.123071348296319,1.0193486616765377,1.3860486311306532,4.242307350890269
1570178937383070.0,4.827980137907325,3.1511988629085947,1.0353489984666828,0.9912710600263532,1.1163635718126375,1.018270340537678,1.3928047782746675,4.249684115898876
1570178937383070.0,4.804552732669463,3.1266198076736345,1.0378590775889773,0.982246389176606,1.1105042117353674,1.0188876331974654,1.3970369173042,4.250453790155182
1570178937397032.0,4.790346662677307,3.108186819361762,1.042148419454447,0.9713381947814704,1.1064635412041521,1.0152467747602663,1.4004048376756622,4.249417514855826
1570178937397032.0,4.784870668373595,3.0937200692386457,1.0443035078581613,0.9608351644219348,1.1016164440579637,1.0126724396206608,1.408378504124633,4.253746107584964
1570178937404013.0,4.789521188095997,3.0826298745533265,1.0441568473369642,0.9478554218461887,1.0954119123614818,1.0074341300115335,1.4183974904756724,4.27688284562506
1570178937404013.0,4.807100216738294,3.078876269725581,1.0435491267928956,0.9380707735660408,1.0887240458921055,1.0044407144502865,1.4319512717738083,4.300636660745827
1570178937411027.0,4.837538083934559,3.0801981838247983,1.0437267022540817,0.9264337874929239,1.0854296933121383,0.9989380372934781,1.4451872628543267,4.315097156007793
1570178937411027.0,4.869732926000923,3.0867318030882993,1.0415534878737853,0.9149184786711573,1.0853151122026052,0.9949504360681802,1.4597246071449075,4.316346914330212
1570178937433967.0,4.896023130634677,3.09079652299247,1.0389913344796726,0.9018113549600792,1.0865685675680166,0.986192719475693,1.4730100553882592,4.320978750710973
1570178937433967.0,4.908773318632062,3.091871335094644,1.0368616983614303,0.8908986456352677,1.0844030582730593,0.9780353810503557,1.485525194585923,4.322182980610354
1570178937434931.0,4.899343388931318,3.0800091816755883,1.0374591160739672,0.877663722081078,1.077961295984433,0.9672149906502778,1.4958135114894155,4.3290192361256254
1570178937434931.0,4.8517727738793655,3.0471203835188443,1.0378362495253846,0.8653661876176686,1.068934357112129,0.9609287672044723,1.5094289960736471,4.335181848045098
1570178937442910.0,4.770897455173447,2.989289313826458,1.0360979454718524,0.8504213598232147,1.0592768602464835,0.9550001391630684,1.523865865742496,4.3544939071001405
1570178937442910.0,4.676514679102726,2.9251030282493846,1.0317692821969842,0.836946748883864,1.047813831213617,0.9526826382245772,1.5415686496732675,4.382803697148682
1570178937456872.0,4.583035455468905,2.8627672556326496,1.0280950829152993,0.8228271886376383,1.0382452965223816,0.9471368055590507,1.561281301574097,4.426437553828234
1570178937456872.0,4.489476406404201,2.805290768656809,1.022835177620721,0.8103744577791988,1.0312267740068493,0.9414834705461794,1.5832470936505443,4.470148052625081
1570178937463899.0,4.397620265197203,2.7457108226848095,1.0180813011859073,0.7962217512828782,1.025954863179981,0.9323373176304589,1.6007907525099143,4.521101977220025
1570178937463899.0,4.3048304674743525,2.690300519225341,1.0146401730411785,0.7851962286317132,1.0205076452487305,0.9265226500654316,1.6154034099464236,4.5701820923522005
1570178937470911.0,4.216753644759283,2.637493258084442,1.0128866931604055,0.7759767803174703,1.0148388452189092,0.9196811083270703,1.6265401199757716,4.6221704601125
1570178937470911.0,4.131672681550799,2.589583761564136,1.011543569684526,0.7703052097880498,1.005893570698049,0.9173267412323166,1.635400928137117,4.662018754104139
1570178937485796.0,4.052310010917236,2.5370390433297683,1.0128916467790114,0.7649048705639038,0.9938932518406962,0.9156290764236947,1.6403409367547392,4.702598629674029
1570178937485796.0,3.972771753228221,2.483149898675814,1.0139511410641586,0.7617355575042606,0.9804244372892041,0.9178909432433041,1.645798295484016,4.743514134071086
1570178937493822.0,3.891117513783473,2.4262179357076317,1.013816266741018,0.7580258028861048,0.969505310222214,0.9202558507757569,1.649342507058337,4.80099372072756
1570178937493822.0,3.8035709128547914,2.373032301916888,1.0112307705422197,0.7551295462564447,0.9617523265734116,0.9249548211129798,1.654888172616006,4.863758973436619
1570178937502750.0,3.71590734230817,2.3207869749128944,1.006352031327019,0.7537397751176625,0.9574329766430472,0.9267916030005698,1.6618662341140045,4.938502763328519
1570178937502750.0,3.6301844594866512,2.2743178726490894,0.9985972392540211,0.7560836128076868,0.9538626902035375,0.9297889159849065,1.6695115048624223,5.012172581461768
1570178937516714.0,3.5532496728839815,2.2280380001661735,0.9922042019704221,0.7604078396729386,0.9506412384499755,0.9269619349296292,1.672204504192123,5.094109354722614
1570178937516714.0,3.481532872676553,2.1868928816176263,0.9870447818768766,0.7652524497616585,0.9469606104485079,0.9220803231354192,1.6722982280747511,5.159675170692006
1570178937523694.0,3.4143413293452394,2.1449184251774414,0.982652611172675,0.7691277278931916,0.9425077359449534,0.9150009487512929,1.670769084605793,5.207070837375778
1570178937523694.0,3.3498224349180754,2.104042476668356,0.9745473347383838,0.7722635659560857,0.9362540033856885,0.9102130133125642,1.6708299461279787,5.235918732499588
1570178937531768.0,3.2919549976549614,2.0619846170466327,0.9656260896863224,0.7755405973176251,0.9307960989416003,0.9035880898828541,1.6690089530308105,5.2722725379460975
1570178937531768.0,3.2357655823106284,2.0260904137722733,0.9576602393255976,0.780952932913132,0.9256973633347151,0.9002833768948025,1.6676010516050128,5.3113293622055675
1570178937546633.0,3.184981650053382,1.9878494738207722,0.9519962733723353,0.7886073430891377,0.9205192540078343,0.8957101564876436,1.6673617478195137,5.3652539598025335
1570178937546633.0,3.140125642826343,1.9514521494047612,0.9485476220853861,0.7951990311970322,0.9155050222070521,0.8925657184386132,1.6723937927600907,5.424821993088017
1570178937553854.0,3.10345517606265,1.9152578885557718,0.9475434947982734,0.7981652292327973,0.9123274879720874,0.8878191468982451,1.679952190960764,5.497520025798379
1570178937553854.0,3.0657967670194686,1.882401163011182,0.9459758350027466,0.7982478299987468,0.9105502528916171,0.8855612629150709,1.6899467833289261,5.568096599851543
1570178937562612.0,3.0240862147309437,1.8454704572371086,0.9446531830586375,0.7999042115253296,0.9107450252833744,0.8809967785419701,1.6974885146525407,5.653973910760634
1570178937562612.0,2.9798793478909245,1.8095813177592448,0.9427122589164949,0.8045285997612625,0.9115070858927707,0.8777985209925585,1.7048854043147308,5.752570416687844
1570178937576552.0,2.9409280461873637,1.7716562227458856,0.9418820238784141,0.8116092134969276,0.913140369150523,0.8711401385163857,1.713639780527657,5.874775409308343
1570178937576552.0,2.9017626920965256,1.7379966053152491,0.941520532372061,0.8174235436642187,0.9163288482666169,0.8651654282456479,1.729112582669071,6.005629042219307
1570178937583792.0,2.863664535445663,1.7047727455776764,0.9422251819087267,0.8219297948165781,0.9204751123720265,0.8583196431969131,1.7490221995695072,6.1518881241260575
1570178937583792.0,2.824109583461997,1.6767673242033017,0.9444810765231342,0.8263627976135223,0.9252293980708994,0.8544579781653358,1.7741386723280521,6.30045134380607
1570178937591512.0,2.7842033193149414,1.6475522129735374,0.9468627404859775,0.8324653421373608,0.9309196061951424,0.8502397308622257,1.8010259914843234,6.460807774901641
1570178937591512.0,2.7446915565812366,1.6205582562530356,0.9468669334673422,0.8372674495223386,0.9362838738557708,0.8482779497602623,1.8290999105061956,6.613977599453899
1570178937606472.0,2.7101111315697364,1.591676704777466,0.9458720983123621,0.8398990674374852,0.9425245524962932,0.8440371806320518,1.851015796238621,6.766156832087946
1570178937606472.0,2.6781571456849678,1.5662156801398097,0.943450355023969,0.8415579657948987,0.9495140274091468,0.8415010202191249,1.8679510703473725,6.915188846206202
1570178937613454.0,2.653444697134958,1.541701338617362,0.939963510595488,0.8440972184643797,0.9565003649879161,0.8386922611852539,1.8834023353356217,7.072433192269573
1570178937613454.0,2.6359241194186382,1.5217711069133137,0.93698824308819,0.8465514898088363,0.9623295791478025,0.837896371525382,1.9010251136653864,7.21636243666223
1570178937622429.0,2.629919099627683,1.4977659023309402,0.9359019798808671,0.8498652980011708,0.9661832913803434,0.8359634344970686,1.914762778647614,7.351856083023148
1570178937622429.0,2.629613285547975,1.4736856477181586,0.9364581234461351,0.8520715582062501,0.9688028658505939,0.8360696346061156,1.9270423806112544,7.47714624558773
1570178937637390.0,2.624214217385505,1.4473878961519333,0.9378839566380724,0.8553011470893683,0.9704691575703579,0.8333194813336876,1.9380823289518794,7.6090761896337185
1570178937637390.0,2.6061726898534356,1.4224518291329498,0.9380377320960703,0.8583562467811894,0.9699114910783206,0.8301693659305983,1.9493248899432165,7.730284635211624
1570178937643374.0,2.583847908177,1.3914046471212933,0.9370005584856587,0.8614913580252124,0.9682721957534935,0.8246268210667961,1.9585675365619455,7.829556720093156
1570178937643374.0,2.5613765820345025,1.360381148177034,0.9377178172020638,0.8646527713910138,0.9662898742026578,0.8204063312655451,1.9694822575985018,7.881674718860261
1570178937651397.0,2.540395929604096,1.3282615756215244,0.9411698963239573,0.8710672371376633,0.9642402218943237,0.8159921614585982,1.9808182649439785,7.876845686777421
1570178937651397.0,2.516935268499295,1.2991825118661489,0.9464556068918213,0.8801684771077479,0.961826162525511,0.8123317931241728,1.9956800968230848,7.8316140299465244
1570178937666314.0,2.4957952024148926,1.2695692964838903,0.9523935064372897,0.8921163503999276,0.9602656993397569,0.8052869956174322,2.012980368806749,7.767106971402168
1570178937666314.0,2.475977062083502,1.2450522943243925,0.9572384643706109,0.9034527652568031,0.9603767186151183,0.8000833071314223,2.0333372044534794,7.6571560969687535
1570178937673295.0,2.459347410242406,1.2202258158993506,0.9608016929362218,0.9147691607790619,0.9614987992046174,0.796665525294173,2.0531989442786336,7.519831335535215
1570178937673295.0,2.4397772812739564,1.1975723338659408,0.964355694138187,0.9237327689646396,0.9623643288215522,0.7967321888265277,2.0723436277459277,7.388361610099395
1570178937683267.0,2.413470557159513,1.172980275762056,0.9686257477339018,0.930947926526413,0.9641598894187762,0.7970990380349786,2.087611393924451,7.269187740355826
1570178937683267.0,2.382700362395594,1.1518358739051762,0.9738844270709108,0.9352704254826784,0.9667658351721455,0.7998508645275838,2.1041061130385676,7.158137232303763
1570178937697259.0,2.356378726505799,1.129709776257506,0.9788596318672559,0.9380851088859898,0.9684004799291681,0.8021373105518232,2.1231332102756717,7.0623683601726945
1570178937697259.0,2.3351110408795943,1.1096839551715632,0.9838885148296932,0.9403184581824864,0.9697304746084864,0.8047303018371863,2.145742827419692,6.974243255504718
1570178937704212.0,2.316308328933391,1.0896820481912426,0.9886978206675363,0.9448602752358076,0.9730151642995754,0.805745455537402,2.164426997749016,6.8702328338214445
1570178937704212.0,2.29307891754239,1.0749512731572417,0.9945898250017132,0.9495136204275305,0.9771901262468178,0.8069111513381595,2.178322363740437,6.7336167339405
1570178937719193.0,2.2709397661242616,1.0607299546945106,1.001277435224482,0.9543394781490965,0.9804854436042186,0.8064667196447936,2.1901506497477894,6.588926021322413
1570178937719193.0,2.2504209646210183,1.048604468287261,1.009048781127269,0.9574291433911524,0.9826197392939359,0.8061007774988506,2.206570338109576,6.456351552428847
1570178937726192.0,2.2317849704776624,1.0329573405392483,1.0167201208666228,0.9588141830044642,0.9848277633538736,0.8040535444583924,2.226683843574913,6.338556303480942
1570178937726192.0,2.2112779574268755,1.0171099691202314,1.0196382803776773,0.9587489038530678,0.9859384938018178,0.8029589184057371,2.2507913016968564,6.239161365944629
1570178937742133.0,2.188569485872353,0.998199011448747,1.0168441247200846,0.9579005434845558,0.9861149749710678,0.8013481920681056,2.276018770751939,6.161275981447866
1570178937742133.0,2.1631653430550126,0.980102211901469,1.0121159507896726,0.9546850662850336,0.9861027011072881,0.7988786684791243,2.305020845969629,6.101492117209515
1570178937744105.0,2.137428524014334,0.9613861478107514,1.0075377490969866,0.9507018574543595,0.986232435487017,0.7936168196544963,2.33525787894215,6.058208435577668
1570178937744105.0,2.112205046992856,0.9473202400489734,1.0028377831898805,0.9463760750680017,0.9853175080498037,0.7891022868020718,2.3644187684035023,6.022884836847928
1570178937757070.0,2.0932259510384585,0.9348059579843132,0.999250962724514,0.9431796239916511,0.9816237455193676,0.7839025971495783,2.388877769675226,5.988677947270827
1570178937757070.0,2.077546830056201,0.9262945775762484,0.9974835768587165,0.9425612943285094,0.9745326101251728,0.7784742348128574,2.4132284181585666,5.957315656798091
1570178937764053.0,2.0621263702225976,0.9173277535667309,0.9959659822491181,0.9458957850257347,0.9671272005322346,0.773182555889684,2.433040979939614,5.9194012946013395
1570178937764053.0,2.0461649775709323,0.9076074646656889,0.9922821534751799,0.9515389077541091,0.9611638423787058,0.769748360792205,2.4474209066561037,5.855816144801884
1570178937779056.0,2.0354010564138036,0.8959298665741243,0.9887444427316605,0.9560310139795529,0.9570713387917879,0.7647078609063209,2.459233382680041,5.775360521557611
1570178937779056.0,2.029668103816433,0.8878935472946811,0.9859561294100164,0.9561776582979565,0.9556217506130087,0.7611754817043661,2.470056006351531,5.699689715907449
1570178937786603.0,2.0292608629887057,0.8809203300616871,0.9824897102050713,0.9554306783647171,0.955458329438703,0.759179430080178,2.475016049196497,5.643551384673924
1570178937786603.0,2.026568854874266,0.8752197691305381,0.9767626717787135,0.953385173635625,0.9521486880593831,0.7578884680486537,2.467345723968998,5.592773298814522
1570178937802948.0,2.0157835759706733,0.864071640055204,0.9683310651438104,0.9473764641466508,0.9466078718471175,0.7551963233537693,2.4402033101530147,5.527053076310921
1570178937802948.0,1.9987505629536666,0.8511888321106802,0.9562809803730603,0.94018070199166,0.9414089965230358,0.7529057065679287,2.4030456262404267,5.4553200967327
1570178937804942.0,1.9814269792463035,0.8366396291071423,0.9440875219037617,0.9338086988923292,0.938017942187023,0.7512571649076647,2.3627461776597594,5.396381892057591
1570178937804942.0,1.967034203062447,0.8227287216631549,0.9340433149949104,0.9281372629197768,0.9362236793614737,0.7509800146817995,2.3266771689872057,5.350291249943546
1570178937816942.0,1.9597637149767675,0.8083788744233708,0.9270557331276608,0.924202162671456,0.9354879663437895,0.751509653355998,2.297044481820075,5.318424988073578
1570178937816942.0,1.9574093714655383,0.7959621378904067,0.9204835953188716,0.9209113222481677,0.9334799141832608,0.753323839633966,2.2740495032018897,5.301778674694444
1570178937823891.0,1.96005514520989,0.7836219210524589,0.9148712164311771,0.9183395562365494,0.9303407508142134,0.7550690767501603,2.255613059489639,5.304413628702268
1570178937823891.0,1.966220885461766,0.7732193854289661,0.9106533295726454,0.9163776762295759,0.9267121211312577,0.7560016820402318,2.2362005383835157,5.318886202966388
1570178937839871.0,1.9731405566874185,0.7641017582063139,0.9064724558495951,0.9121378442698616,0.922934029965909,0.7568870252354813,2.2105194173053606,5.340054554702701
1570178937839871.0,1.9735748743835448,0.7583053972160051,0.8996892147353965,0.9055618211523209,0.9186932901506536,0.7569014195395899,2.18698835369482,5.361015610365836
1570178937845832.0,1.9669884308976826,0.7534549488307853,0.891669154941679,0.9006328581193175,0.913320766193103,0.7549292666289709,2.1673555439767203,5.37425604420386
1570178937845832.0,1.9561847913113497,0.7508152540545662,0.883860001817191,0.8982412192182175,0.9063027682000995,0.7540030998354011,2.1500475275353144,5.37075128102771
1570178937862787.0,1.9428048566459417,0.7482591358688436,0.8787413934779124,0.8954712127083471,0.8989174089149853,0.7561282971080608,2.134645416993524,5.356260521534672
1570178937862787.0,1.9288227987723021,0.7465400928152818,0.8760289107943471,0.8902651233492691,0.8907551181849879,0.7581863815164905,2.1249149969710857,5.329950662390907
1570178937863785.0,1.9193350360683024,0.745842805438034,0.8730531067301186,0.8837019758207925,0.8840473207211622,0.7563840717239771,2.1188570970034912,5.303457693070448
1570178937863785.0,1.9133887284318403,0.7469695108793608,0.8684786418181576,0.8776530051791281,0.8797117409547539,0.7515947434728899,2.114078848052909,5.285085476690865
1570178937876749.0,1.9095347420893087,0.7483852253617361,0.8644678741548425,0.8742095774768567,0.8761580251080296,0.7470132588071134,2.1083041705734837,5.274251632454308
1570178937876749.0,1.9082101876798876,0.7483969569246616,0.8608840222568471,0.8721353864633085,0.8720128850633374,0.7443582541743884,2.1042666701161457,5.265283143744951
1570178937883732.0,1.9100223341362355,0.7476010841899818,0.8578040113520891,0.8686928193598756,0.8674483685434067,0.7439259334822086,2.100959083044195,5.261950863137663
1570178937883732.0,1.9145683328937133,0.7493358063837908,0.8561913468037625,0.8646838983165552,0.8631440643225329,0.743213175690714,2.097146980835602,5.259209386852804
1570178937899688.0,1.9232714540039335,0.7547199106962634,0.8549873377261342,0.8634027283669652,0.8603952452570025,0.7418657308887698,2.0899680171041246,5.262641346376538
1570178937899688.0,1.9359480182432942,0.7636145628648806,0.8532970462965296,0.8643602380410401,0.8580455191697126,0.7402828017308516,2.08371363371467,5.271139671644921
1570178937906669.0,1.9518967858773228,0.7761593068921261,0.850958753100555,0.8670040232935184,0.856231355628921,0.7402198975665566,2.0812286420781887,5.282522125235014
1570178937906669.0,1.9689085862899323,0.7906280290318587,0.8481968242966966,0.8707347479106858,0.854815998770634,0.7407471906215984,2.0856416929610195,5.290826309044876
1570178937922159.0,1.9861062055416883,0.8044266321772265,0.8457579775248031,0.8741082612907819,0.8529054979703795,0.7428386229318164,2.0948831891609085,5.309554496620631
1570178937922159.0,2.001377388528341,0.8162686307276074,0.8449328912439815,0.8756545780183599,0.8523280487548264,0.7442951385576617,2.1073934839368276,5.338674924628901
1570178937930606.0,2.0137828473407007,0.8300067500647167,0.8442914995731948,0.8770507789704856,0.853273512334822,0.7455517043885479,2.120725207983646,5.3729666832564345
1570178937930606.0,2.026223691727839,0.8454047737631537,0.8443561122957277,0.8776700760255143,0.8536472381183586,0.7464547126095972,2.137732080069097,5.406242287278033
1570178937936589.0,2.039843501634106,0.8611340433661453,0.8455266202808256,0.8792339351448525,0.8544776554138824,0.7505604150888687,2.156679651645438,5.451011369436042
1570178937936589.0,2.053647049091176,0.8753138995965503,0.8473522475273988,0.8819975226769428,0.8567301481632053,0.7569886114413957,2.179910940188756,5.505657101797709
1570178937943574.0,2.066728018585795,0.8869076859316907,0.8482317300520543,0.8876327179745959,0.8604415834664868,0.7673729161453458,2.208632079676219,5.566260604700252
1570178937943574.0,2.077115198003214,0.893626613350326,0.84997982575279,0.8951661464611383,0.8656008690962362,0.7794280290950517,2.24404203366932,5.617712647141287
1570178937959529.0,2.0828871440655954,0.8999142888059275,0.8526999960254242,0.9033112300904939,0.8712081572260765,0.7938628373967496,2.2808691415471225,5.657374069646005
1570178937959529.0,2.084002866972757,0.9063298766225087,0.8561941319003192,0.9083909009735223,0.8753138184754766,0.80535550064675,2.3177486405453673,5.680814128865638
1570178937966509.0,2.0854370943152167,0.9119126267067852,0.859641489438682,0.9095340254841875,0.8779323843516966,0.8137311156754685,2.355277861994961,5.699206146474031
1570178937966509.0,2.0901954643057774,0.9170600974677351,0.8649274671785202,0.9092148693272863,0.8790877665661667,0.8175831167637507,2.3972963385401,5.716808344396414
1570178937982467.0,2.0963392602481243,0.924554337530003,0.8708845448321109,0.910876314075729,0.8778012600520031,0.8224549308304028,2.44076305962737,5.734164587709087
1570178937982467.0,2.1058889350415906,0.932083709837552,0.8763577233944501,0.9127460558175731,0.8750356611285022,0.8277736699689979,2.4853455872147303,5.742884772216575
1570178937984473.0,2.118804251098889,0.9410050777172516,0.8766175361507176,0.9134468454271829,0.8717799005888549,0.8357420372052606,2.5297974187130454,5.754747639373181
1570178937984473.0,2.1301973697368766,0.9509060695724464,0.8731492997409702,0.9105800999864025,0.8679996396156219,0.8449611621681238,2.5780504279996377,5.775004794589026
1570178937997428.0,2.1401063506176623,0.961767865857313,0.8680850251234876,0.9047442987986891,0.86369943003479,0.8584474672390789,2.628913612541471,5.81055183734006
1570178937997428.0,2.1515794289824797,0.971524199928704,0.8643169486471587,0.8974997617411935,0.8598367679376366,0.8721709096413786,2.6816599596915407,5.853400429492832
1570178938004409.0,2.1635573576094713,0.981593302671394,0.8627578157758501,0.8911450741007175,0.857412106309686,0.8856620427187823,2.7326660065040644,5.901044122487694
1570178938004409.0,2.1712197073902613,0.9908214902125018,0.8651196237913918,0.8871969275155875,0.8554254927424533,0.8951920988420918,2.782290170532723,5.945170627929216
1570178938019380.0,2.1746333313248907,1.0015438231371292,0.8680096992853741,0.884891470119086,0.8528704158407562,0.9057964764141533,2.829858955779753,5.9915575583823095
1570178938019380.0,2.1797825323611035,1.012005019454876,0.8697271501080241,0.8808998446155049,0.8497674814996983,0.9166561872188763,2.870778852394517,6.03542320528076
1570178938026350.0,2.1865843498533013,1.0217720966914592,0.8694677389577922,0.8756740680760751,0.8470949765389428,0.9299226720622212,2.897476881998976,6.062788557507395
1570178938026350.0,2.192142215298403,1.0309285230838166,0.87052362489222,0.8698246409861646,0.8468873826051075,0.9419394525595248,2.9191413198377743,6.066582163722222
1570178938043305.0,2.1944832095099187,1.041341309025777,0.8734763770997795,0.8637240108079242,0.8490320530426181,0.9533676454886914,2.9403416297963365,6.067827685474567
1570178938043305.0,2.1916984457010775,1.0495930919317453,0.8791568384755482,0.8580098790739695,0.852601547562974,0.9622662042163423,2.96272167883575,6.065034124296183
1570178938044302.0,2.1877153171538493,1.0565865259499956,0.8830953838042181,0.8550935749677794,0.8574608595370771,0.9709568127525876,2.987613123383315,6.059398691989803
1570178938044302.0,2.1864809346494067,1.0623832020034725,0.883974811230283,0.8553817209059043,0.8627022656530987,0.9775801692202531,3.016719784880042,6.055081568746041
1570178938056270.0,2.1879657339987983,1.0702123765263598,0.88104857944651,0.8593072217585902,0.8672313720917498,0.9861828494169492,3.048213269407963,6.059954852492589
1570178938056270.0,2.1931926818125427,1.0791756143521867,0.8788127587374936,0.8650590554724292,0.8702281712079224,0.9944419736143545,3.078798469065217,6.068977760545763
1570178938065246.0,2.204073590373654,1.0890560415914603,0.8786754030706005,0.8702972108270978,0.8716426159347578,1.0043439848109283,3.104093989040823,6.088463573019467
1570178938065246.0,2.2156647505503577,1.0955762489939098,0.8815010403835891,0.8735383184117815,0.8715669041285476,1.0136754945930988,3.1204412522007097,6.104636482047962
1570178938079210.0,2.2162363269491117,1.0987991376068509,0.8837581450584662,0.8754593923451504,0.8669900813758944,1.020316303288564,3.1137833969109714,6.102523389510706
1570178938079210.0,2.204902410421498,1.0981222713465928,0.8850144564904138,0.8735784052471528,0.8580841679717114,1.0213880242623845,3.0881036654905345,6.089312475586883
1570178938086496.0,2.1923980266299714,1.097280032860234,0.8842478313417651,0.8696441176756395,0.8487156049253091,1.0195946973729066,3.064183250903263,6.084690746948928
1570178938086496.0,2.1856013554597964,1.0976178884272048,0.8848481440765701,0.8650477506871664,0.8418832198366601,1.0137259089934985,3.049289210160688,6.0926913136678555
1570178938103144.0,2.183518504850405,1.0997879335921703,0.8851300629117439,0.8612454982740098,0.8384591580837942,1.007016900737715,3.03866267716982,6.11509769743626
1570178938103144.0,2.184184415137707,1.1014920798791459,0.8855756668244681,0.8585949805779998,0.8384820973737963,1.001088600789912,3.0348067809276187,6.141801394373744
1570178938104170.0,2.190536739769291,1.1040367147718997,0.8848121660376504,0.855510061454451,0.8407396006962882,0.9955224728883953,3.030329408467969,6.167719727462469
1570178938104170.0,2.2005614222860657,1.1059145366364853,0.8842827701845589,0.849628941407598,0.8443608064991476,0.9846240063401822,3.0145934595852637,6.182941919820268
1570178938116110.0,2.207339266103982,1.1063861514073698,0.8815706358651016,0.8424810910588304,0.8491134926915271,0.9695453250630085,2.9882885865116813,6.201402107656839
1570178938116110.0,2.2129993195079742,1.103944378459518,0.8786185444006603,0.8345416341012067,0.8531032981278686,0.9554725380394172,2.958496371200476,6.227976241843132
1570178938125087.0,2.221443492000429,1.10212166449078,0.8769529374785098,0.8252375446858641,0.8533456170613037,0.945711826440382,2.9279202229759047,6.25647841393105
1570178938125087.0,2.2317315789740775,1.1004930049416615,0.8786993128640174,0.8142219075165391,0.8512542257429719,0.9383650621340837,2.8980459031571795,6.283176666481093
1570178938139105.0,2.2429014222882,1.101312162917493,0.8811523908549032,0.8050347874526157,0.8495950197980124,0.9321126460254805,2.8649028492070467,6.312529680315548
1570178938139105.0,2.248220482306669,1.1039100639275665,0.8870760140497893,0.7990209798258386,0.8484413463653241,0.9262862753928263,2.828563629224044,6.3234255370148755
1570178938146030.0,2.241896092318659,1.1092209627874887,0.8951392412753649,0.7967291237284366,0.8476480147218,0.9225728468858186,2.7904440033265026,6.306998009331406
1570178938146030.0,2.2316567138527286,1.1145423686095348,0.9046097726951311,0.7972682578944298,0.8483281816157007,0.9190552960366273,2.7518950094353127,6.280655753474691
1570178938162984.0,2.218578547275906,1.1194955107153235,0.9099237461345312,0.8003285514055624,0.8492342396728071,0.9156742060067055,2.7152706248970526,6.265024558468196
1570178938162984.0,2.197441484343213,1.1234513885818602,0.9130014119230618,0.8039025056429033,0.8506437297072308,0.9125978466622255,2.6844282305073874,6.2638043995814074
1570178938163982.0,2.1739565379984906,1.1307700135878214,0.9153903448176308,0.8079776600674738,0.8532639464582262,0.9115954107128864,2.661321669478857,6.278406706778815
1570178938163982.0,2.1499577880799814,1.1398651715198203,0.9214583186158032,0.8106734903822224,0.8562503265790712,0.909581325641834,2.6338797310892628,6.282446876414142
1570178938175950.0,2.124408144208882,1.1487938010333518,0.9275313021614382,0.8152419274205632,0.8594325766645974,0.906836740058107,2.589224871026077,6.263166549110436
1570178938175950.0,2.1009998958731386,1.154848532944868,0.9328226264189375,0.8210495153265281,0.8629001595789902,0.9043385246305178,2.5396136295169502,6.240727239229318
1570178938184926.0,2.0819474552909667,1.1608033141360814,0.9360330046983961,0.8261355871061979,0.863501532907641,0.9030606287242863,2.4942513635506574,6.233337836151475
1570178938184926.0,2.064222073603772,1.164659458683926,0.9412000269757603,0.8276091017024854,0.8596652926311938,0.9018941742790452,2.4507871917679096,6.2257342249117436
1570178938199886.0,2.0438077476967806,1.164184641183349,0.9469533019152296,0.8259385845499831,0.8503870961806219,0.901951381422176,2.4109483347126566,6.1991742720889125
1570178938199886.0,2.0244150319575973,1.1589151122020291,0.9541232681363633,0.820435766967334,0.8369154457142098,0.9011363225896447,2.3764440151631048,6.154638373910598
1570178938205899.0,2.0111819928671033,1.1566705321865132,0.9609517941511341,0.8163538550360234,0.8240078926847302,0.9029281155595049,2.3448043447638605,6.111917066746012
1570178938205899.0,2.0031278591192296,1.1575376423646417,0.9701765483628779,0.8130028873993684,0.8135732603267894,0.9066056667824034,2.318636178529677,6.077061958129635
1570178938222824.0,2.0002302827240963,1.1604822699075825,0.9786241182843267,0.809748883737362,0.8044193737570653,0.9125786579253025,2.2999563576489455,6.052886970633961
1570178938222824.0,2.0014163584148346,1.1644848286236715,0.988341460490015,0.8075328881131647,0.7966818249556534,0.9192920360646886,2.2874849322876982,6.035899959648748
1570178938224430.0,2.0016090908312165,1.172594483356253,0.9960292561702798,0.8083360794514773,0.7901684061110115,0.9283272381285039,2.2785547026490964,6.020764837810957
1570178938224430.0,2.0009458236006146,1.1823807904330395,1.0011373650912534,0.809760007570019,0.7850542859504878,0.9379396931931704,2.272629389771036,6.00689997832121
1570178938236925.0,2.004271785968858,1.192946590916742,1.0034387632285076,0.814359829308625,0.7811364334493441,0.9498049800823383,2.2691184833398936,6.008922483522251
1570178938236925.0,2.0114782114364536,1.2010292606929949,1.0054244923800217,0.8212080751492621,0.7796312331397889,0.962008757693009,2.2672758549069,6.027102406839725
1570178938244766.0,2.017357875428899,1.2073924701518286,1.003560007691627,0.8305763502342342,0.7800204339179722,0.9751749574600698,2.2648133089752425,6.054344767291831
1570178938244766.0,2.015224431645815,1.208806913432063,1.001091808795024,0.8397251249767074,0.7805264936562284,0.9856835185906314,2.2629208798716918,6.0808609437346925
1570178938258729.0,2.0032907128020794,1.2059411273481122,0.9990376888343555,0.8491791205286627,0.7800216485309026,0.9947272090913727,2.2642249717559766,6.103309008520427
1570178938258729.0,1.9866779184768162,1.2003366612524073,0.9974743375021626,0.854460734914111,0.7800196788361881,1.0018785638702958,2.270680828947246,6.117846411659877
1570178938267704.0,1.968184532103439,1.1962995320521732,0.9931644314033446,0.8571921714458601,0.7810049876554225,1.0096877423045267,2.281151000349326,6.130588506749683
1570178938267704.0,1.9508811759217937,1.1938348191108732,0.9888990830027358,0.8590878476087314,0.7823115033398852,1.0164670431275946,2.2948344288375337,6.1507924366525515
1570178938282665.0,1.9365143067716877,1.1938010455258978,0.9840880083527836,0.8642965326433372,0.7837944489446599,1.0226587103209854,2.310062121860881,6.186881889412615
1570178938282665.0,1.9232406575177916,1.1947734930682177,0.9811538239196106,0.8694281711317464,0.7878382532520559,1.0250413394918727,2.32629118967654,6.230684705094671
1570178938284659.0,1.9130395523347425,1.1985903193744376,0.9791494123753953,0.873406198412259,0.7935176193008371,1.0243220898737337,2.3412985559000314,6.277517094039807
1570178938284659.0,1.908998452618048,1.201276828591625,0.9762883410474447,0.8750691673657299,0.799333839191208,1.0205078631566957,2.3574588810926365,6.3259534483770885
1570178938296628.0,1.9107041371924927,1.2030158171338328,0.9698489797876036,0.8770807552450512,0.8051779788227766,1.0166442209233821,2.3775237390291166,6.377560349819644
1570178938296628.0,1.918197193412408,1.203799410628382,0.9645123543012434,0.8777660301079383,0.8134753552456452,1.0114986326683504,2.3987703400854192,6.42169006128052
1570178938305603.0,1.9298851770624907,1.2058414783249156,0.9593922915623606,0.8788685584275591,0.8231815122735989,1.0062009782285881,2.4176080424964437,6.456002545003463
1570178938305603.0,1.9446798052378709,1.207348470802444,0.9549431732744862,0.8797668716546281,0.8337317820654642,1.0026933975351073,2.4392114303767576,6.49274928603181
1570178938319613.0,1.9549505609402558,1.2086576261456912,0.9498401302445787,0.8818167800595094,0.8433306990436834,1.002453261283316,2.453669820249425,6.5141627732361345
1570178938319613.0,1.956310492544006,1.207650529799524,0.9467607874187249,0.8826254787500798,0.8498100459126445,1.0004475548982787,2.4471308940776395,6.493880720821034
1570178938326548.0,1.9571233050894492,1.206082650011933,0.94592135878079,0.8859237446331378,0.8524990988801927,0.9959911949409955,2.4292410310339925,6.4613221266628225
1570178938326548.0,1.9620597325501195,1.202777488529815,0.9483694074063395,0.8903796962679891,0.8543601968092519,0.9912851962910193,2.4111438774423304,6.432427249050809
1570178938341585.0,1.969474352546942,1.2004297763533798,0.9503082629373742,0.8943222559230182,0.856718730553234,0.9868905000802592,2.3916906736109165,6.402518232947282
1570178938341585.0,1.980345751017521,1.1983932396644466,0.952795659054509,0.8937850587776247,0.8608186833636576,0.9801630520322538,2.376122082181751,6.381423287003144
1570178938356467.0,1.9888735430045792,1.1989847813089618,0.9552172469210856,0.8920975216647042,0.8658822641175761,0.9739863991051657,2.364482195936746,6.363009261132005
1570178938356467.0,1.9922942115116238,1.2008747856706439,0.9591130280021147,0.8905267339275551,0.8722712832652566,0.9693992618032566,2.352690638168862,6.330452365420122
1570178938357465.0,1.9935376033384826,1.202892691230899,0.9619721638359087,0.8902020548584728,0.8782612262244288,0.9660425577225779,2.3365788577093016,6.294110899725494
1570178938357465.0,1.9937470788594396,1.2012221618303673,0.967917598365313,0.8886337566653559,0.883612592852964,0.9632065169891035,2.3155331407457282,6.262198893309584
1570178938365443.0,1.9904962408417826,1.1986428486023797,0.976294203951967,0.8875508906818508,0.8878947021767366,0.962551868478082,2.294462902440203,6.230734456331447
1570178938365443.0,1.9836543458552038,1.1966869847391077,0.986410928023626,0.8864720185249784,0.8916889778376625,0.9621977524043892,2.275891332494891,6.199634281371729
1570178938379405.0,1.9768760381622885,1.1967164667234436,0.9946738506804923,0.8876779625083826,0.894333093103066,0.9629496308135912,2.257781700530585,6.170013612635111
1570178938379405.0,1.9698818016199138,1.1941284043473814,1.0031647328368105,0.8883548005951608,0.8943092962616762,0.962869513462439,2.235298946445699,6.11412613537041
1570178938386386.0,1.9576009671265462,1.1909906812076632,1.008985913731632,0.8893025599031242,0.8898237570596469,0.9599379217799268,2.2053683641240234,6.007785541138892
1570178938386386.0,1.9430960828404416,1.1892987447313184,1.0134041566411627,0.8891370265567818,0.8838515208786749,0.954659741144451,2.1760080244037487,5.885237949808327
1570178938402344.0,1.9298273880778054,1.1929075789947967,1.0149287544141938,0.8907171598389086,0.8777349034219823,0.9496601821583536,2.1508092625150903,5.7732409628405525
1570178938402344.0,1.919735049888333,1.1998942775344135,1.0165081593678107,0.894146361784125,0.8728505053552841,0.9441553530648011,2.127674171289539,5.669571281675854
1570178938408411.0,1.9089504160355322,1.2099989610437312,1.016155766179112,0.9005246730730567,0.8694938031810354,0.9388120609744152,2.1063730189594474,5.576241950988217
1570178938408411.0,1.8957430832259077,1.2193878767107924,1.0150223751329628,0.9061190240060416,0.8680258194197356,0.9329453592796605,2.0881055316424355,5.498933237590378
1570178938416307.0,1.8852577421109216,1.2292927871132582,1.0137523434239413,0.9130348739970554,0.8688883460997551,0.9282295754169788,2.072383797236361,5.438318098702092
1570178938416307.0,1.8824547081639345,1.2380049621267493,1.0165032122972228,0.9203623897169465,0.8729580505036589,0.9247881322255073,2.0605747528042153,5.3918912780687736
1570178938425497.0,1.8867919405226905,1.2464802618742572,1.0196587659842296,0.9296049825082905,0.8762287249705312,0.9211319580513028,2.0527767990795787,5.359195862845925
1570178938425497.0,1.8949292916932494,1.253752031305288,1.0222127017454488,0.9377491645134819,0.8769980149962079,0.9127509200265607,2.047095660870634,5.3403683474453825
1570178938439245.0,1.9015607378987003,1.2633173560585453,1.0229399638949392,0.9448088655410053,0.8772138103934577,0.9007435645369014,2.042638449842325,5.331138162724767
1570178938439245.0,1.9092028222100679,1.2725085984566233,1.0244646642759085,0.9494059555875344,0.8780145468194273,0.8894974632831276,2.0428713523562543,5.333314356088543
1570178938446227.0,1.9194359138231938,1.281883837270168,1.0239428820821868,0.9521628207898618,0.8778927948295677,0.8824673399396905,2.0474960381418756,5.343710591815159
1570178938446227.0,1.9284351928779881,1.287681507020289,1.0225267156393543,0.950227119306095,0.8775763324189573,0.8786277156035309,2.055394196961535,5.339408463328958
1570178938462213.0,1.9345588164437513,1.2912066448836603,1.01989764341992,0.9488276618947867,0.8776071888938424,0.8776439664349812,2.062761297586143,5.312806635503289
1570178938462213.0,1.9407003841900217,1.2936273391393789,1.0198178034875531,0.9498157073518645,0.8791572734474157,0.8774538050881552,2.069064580728671,5.28353865786535
1570178938469166.0,1.9463777956733421,1.298198170622787,1.022132519728499,0.9539999023155977,0.8804251096500583,0.8769066604149602,2.076729188451815,5.262352528103356
1570178938469166.0,1.9562968725962473,1.3036871470839388,1.027995880879941,0.9586538875402433,0.8809332445912619,0.872326941469865,2.0833984904643215,5.236148761469783
1570178938476148.0,1.9686781668754247,1.3117821378080563,1.0344094248428373,0.9640294916046273,0.8782789979591933,0.8672773593982117,2.085844952801937,5.191168099052061
1570178938476148.0,1.9751034793741449,1.3176853077963615,1.0420016235697613,0.9657791045553348,0.872792342415816,0.8634726388574185,2.089679746348118,5.141102612227089
1570178938485123.0,1.9736874645623452,1.3201602405457422,1.047225558697363,0.9640278608134835,0.8671755372527492,0.861962683483325,2.09721574030718,5.099707576464341
1570178938485123.0,1.9743664796537546,1.318735411346203,1.052502871461746,0.9589210838674562,0.862502197442158,0.8624232030727936,2.107054954530911,5.060764752214534
1570178938499138.0,1.9804055644020024,1.319970922023662,1.058052982668239,0.9537922036440435,0.8582845663611046,0.8658077170507018,2.116301247126202,5.02544570870972
1570178938499138.0,1.9880060970138462,1.3242823359944025,1.0660613413566664,0.9491886667972594,0.8557755550273375,0.8686032890243688,2.122722166887995,4.998327417539449
1570178938506084.0,1.9916980758195224,1.3304211009800386,1.0723382435576816,0.9468462948220921,0.8531690835336277,0.8715829512545212,2.1246541485060133,4.978517379982454
1570178938506084.0,1.9913346738539275,1.3331248357376022,1.0761746894813464,0.9432914750258927,0.8502089932126027,0.8744725450813915,2.123530007428616,4.9603896694916605
1570178938530004.0,1.9869034319142493,1.3354713355419685,1.0766723543684678,0.9379758638528145,0.8465224200499757,0.8806158318484258,2.121492686624153,4.936625821297773
1570178938530004.0,1.98110209644452,1.3359069922803921,1.077689848217356,0.9299917475926724,0.842884781515845,0.8868341344446805,2.122677266405043,4.911223264077347
1570178938531998.0,1.9775280432263749,1.3336335045497756,1.079285251231853,0.9205683629130351,0.8400270727056723,0.8931133463572571,2.1253527087899062,4.897862573946499
1570178938531998.0,1.9800546822634693,1.3286977782965288,1.0824277935135007,0.909805079992349,0.840413957613967,0.8988816346057171,2.127455255887331,4.900247660543616
1570178938545961.0,1.986583565864133,1.3257487859408204,1.0825819705785527,0.9007445618143588,0.8439247033211258,0.9055717654762003,2.130299268525954,4.916725860394991
1570178938545961.0,1.9957745148826642,1.3232292881022574,1.0810639919987288,0.8940503167398843,0.8506603963446222,0.9094630775230714,2.137305310047734,4.942941626174579
1570178938546958.0,2.007066227937716,1.3225909859147225,1.0786389707291586,0.8903603221096471,0.8585559273616419,0.9119331376859718,2.1492165732034003,4.977813310626613
1570178938546958.0,2.022915027805635,1.3218656442752226,1.0786755779024355,0.8864819316706397,0.8672320586650638,0.9135586072058389,2.1667363201439755,5.020044257908961
1570178938559924.0,2.0420527197757012,1.3227048237459114,1.0812522858921136,0.883798692711787,0.8748527553487427,0.9176142448940551,2.188415238341464,5.074428771445771
1570178938559924.0,2.0615534688407817,1.3230141704640352,1.0871565545637114,0.8819274378448287,0.8805244781883852,0.9199812873651875,2.2137158770655456,5.137853965828745
1570178938566059.0,2.0711718940221617,1.323494030303708,1.0926038776114102,0.8808949432137525,0.8842643309771526,0.9220837840738264,2.236381164375474,5.183078227904072
1570178938566059.0,2.06668095291822,1.3220816834303195,1.0961660580513752,0.8785401628516655,0.8879266116058593,0.9241904005961193,2.246012631332476,5.18335675568545
1570178938581864.0,2.0542135641808796,1.3222503488668207,1.095105181663758,0.8752846022872232,0.8917206613173558,0.928730087575178,2.23938341436407,5.163589261904813
1570178938581864.0,2.0448510576479304,1.3235869768689092,1.0910726937013209,0.8703508543579288,0.8959563536522928,0.9324599203590105,2.224519401733442,5.144707216218727
1570178938588952.0,2.04051364304797,1.3267746167538208,1.0821788799632845,0.8681863354543954,0.8991940014525295,0.9354303444853288,2.2081297986525796,5.112896829953249
1570178938588952.0,2.0408109988383476,1.328170071072665,1.0721104915826445,0.8689383337115454,0.9032633102831845,0.9352832554366768,2.1978054161324656,5.065328351542985
1570178938604810.0,2.0428760973359608,1.3304789805334847,1.0633845048775201,0.8734268839907348,0.9070620998969111,0.9355156776950309,2.19444878011326,5.014419178356157
1570178938604810.0,2.0446084905249435,1.332544544750029,1.0575598973347697,0.8777524601456927,0.9105529058195373,0.9371423035288912,2.192129023731462,4.961873382024039
1570178938606830.0,2.044303635690449,1.3359928421113592,1.0522286387864637,0.8807405811779045,0.9142580585319379,0.9424330678367611,2.1861359099439945,4.910139887816374
1570178938606830.0,2.0461847344862054,1.338606697687157,1.0475325527987436,0.881573916507538,0.919230050996198,0.9482060275718193,2.177664679994971,4.860241192672351
1570178938619772.0,2.0527778245753816,1.3411750689487905,1.042324683387085,0.8838995639938886,0.9223784296499346,0.9564058697542024,2.166082415952643,4.8147341510935755
1570178938619772.0,2.0657238502398183,1.3414525240481898,1.036690786331596,0.8877534229842797,0.9230990136055992,0.963882074927996,2.150249002926054,4.774555280724653
1570178938626748.0,2.0823828240473095,1.3419078298614493,1.0296988227430963,0.8928797286034234,0.9212282327022906,0.97306807988323,2.131241301994769,4.7402757365074395
1570178938626748.0,2.0999476539741466,1.3413480881121562,1.0223212787387437,0.8939842312442232,0.917974677533896,0.9825685509485874,2.110220531281634,4.709734331989388
1570178938641716.0,2.115352994188918,1.3441329911255084,1.0126755590919745,0.8925261066870894,0.9150472384901919,0.9932716866631262,2.0860027099913263,4.680893871797457
1570178938641716.0,2.1312439004512163,1.3490297460071181,1.003047949032406,0.8892875207987633,0.9145698029584426,1.0023795712029167,2.0613344440490144,4.654179000967853
1570178938648691.0,2.1456073034867353,1.356970668200624,0.9943624075348637,0.8866415166381149,0.9154510126060834,1.0131543824349183,2.0373855850349276,4.639435218210903
1570178938648691.0,2.1567569479544693,1.3644198450273435,0.989385395240596,0.8840896817701677,0.918137440944492,1.0230137258328822,2.0152972559440503,4.633059806071265
1570178938665654.0,2.1631286640403853,1.3728195904069007,0.9864159976328458,0.8837454091547958,0.920875977602665,1.0321805633013035,1.9948317415938666,4.629056600724729
1570178938665654.0,2.1679255410520013,1.380038754370007,0.9833686372133911,0.8828299270982213,0.924959153132802,1.0381887746017333,1.9718696147159467,4.619697747651252
1570178938666754.0,2.171257111398508,1.3873793567881971,0.9774843767728129,0.8820214758866818,0.9315219399365158,1.0445468288037494,1.9434151269959206,4.596690441287803
1570178938666754.0,2.1754636251281045,1.3933425743018981,0.9701884761674928,0.8799296118969264,0.9415653927495421,1.051092033754274,1.9151066417365765,4.564914963557227
1570178938679605.0,2.1795023797959687,1.3996626307605267,0.9606130605714657,0.8782109924788345,0.9535146736044283,1.0602519301501614,1.890014950814107,4.541590724329952
1570178938679605.0,2.186828249549514,1.4033520788323075,0.9522118359700837,0.8763467053036156,0.9654869135863738,1.0684578147835857,1.8693372268752673,4.532956411930938
1570178938686623.0,2.2004059741251925,1.4096741420669667,0.9455004022057877,0.8754909654278555,0.9744413935919735,1.0737119698956537,1.8534119938483997,4.540741861349147
1570178938686623.0,2.2195405807903588,1.4194983387441067,0.9416087111255244,0.8723335255115637,0.9820569537319153,1.0724240768846371,1.8435990302877179,4.561418036019361
1570178938702583.0,2.2389514364318615,1.433815046970849,0.9401679108618353,0.8700708848796124,0.9885600582626308,1.0692989319598063,1.839853801872529,4.59939317083266
1570178938702583.0,2.261483262429564,1.4491599843668304,0.9430336179790568,0.8688183237074674,0.9943607662015298,1.0664793694123733,1.8421549018284726,4.649851400965505
1570178938708681.0,2.2878595082582502,1.4682797919826116,0.9461622369928014,0.8700650237054071,0.9966879244394419,1.0668843408588253,1.8484587778242634,4.703727760972947
1570178938708681.0,2.3174046125138315,1.4867487394937409,0.9485810743732529,0.8729811343329843,0.9955556225666681,1.0674344503735838,1.8587246698384683,4.749719424336191
1570178938725488.0,2.3453797296103334,1.5031355506241315,0.9505561092057716,0.8787823209238046,0.9939350809135198,1.0687649379191377,1.8734404794481634,4.789610882592689
1570178938725488.0,2.3722820586914835,1.51619061480714,0.9564754978636263,0.8846368539689321,0.9934071766977469,1.0683151368658639,1.8939005463661929,4.8254474115873816
1570178938726480.0,2.3969476752820893,1.5304054857010523,0.9639858130098836,0.892257288167634,0.991057348569515,1.0670785981710027,1.919693960154588,4.865868698188879
1570178938726480.0,2.4191158001017197,1.5421545920992992,0.9739126502695199,0.8986534159099142,0.9872047811020308,1.065869480032885,1.9504377819982561,4.9087389015912875
1570178938740442.0,2.4383246534637344,1.5549426018018315,0.9854979663803359,0.9049916165972811,0.982680104726497,1.0687510960670374,1.983880030201589,4.961806919961935
1570178938740442.0,2.458417505615872,1.56918591465811,1.0009366915671178,0.909649068623013,0.9798616706738752,1.0734260041289145,2.01990970219023,5.023167483906622
1570178938746426.0,2.4784752921601063,1.588786471338711,1.0167133029136246,0.9146978517060442,0.9776209943535278,1.0781347344952552,2.053690005290849,5.083714490270371
1570178938746426.0,2.4995485496448504,1.6121748760079175,1.0324899431991998,0.9194168523103515,0.9766616627242783,1.0789261347214816,2.082796320418559,5.131351519451236
1570178938762384.0,2.519482291771712,1.6410136098817876,1.0438177533379998,0.9262877596196726,0.9759978857254982,1.077794218333726,2.1088258707307244,5.166586936639993
1570178938762384.0,2.5407734146779437,1.671760361651666,1.0525770063447122,0.9330629613975074,0.9757025757907593,1.0744374098588145,2.1346219109843254,5.179597443625671
1570178938769367.0,2.5636966132830854,1.7055027969821617,1.058038937133449,0.9400399542817945,0.9772772804090497,1.070294418155427,2.1589831178992176,5.176487180049788
1570178938769367.0,2.5888989702857548,1.73698735234941,1.0601597927001858,0.9416725318577469,0.9813824505861334,1.0661924540719425,2.1862695032274098,5.176307703879897
1570178938785323.0,2.6152526778288094,1.7676519770220689,1.0582647961670428,0.9393000755456156,0.9850624356714753,1.0647973528875965,2.219186474250322,5.191940328743895
1570178938785323.0,2.6440128853050004,1.7971488998157472,1.0568902848604687,0.934915574666668,0.9885799412783546,1.0615207504695487,2.256081447626303,5.216072348407521
1570178938786321.0,2.6704656398368165,1.8299090206406674,1.0539098981852137,0.9328944510809732,0.9924505515202557,1.0552057594591362,2.293347184282895,5.247615941585378
1570178938786321.0,2.69688187746448,1.863526031454902,1.0502373425791756,0.9328156876363902,0.9978177753658445,1.0481322741004573,2.3325642535098177,5.278671854647178
1570178938799370.0,2.7252129883443788,1.897332824268831,1.0464061722419205,0.934492294166303,1.0023261091199098,1.0439148380869245,2.373601486202886,5.311357645147471
1570178938799370.0,2.756143353171358,1.926229089778925,1.0433269618716585,0.9336418468119303,1.0038819954838396,1.0400857443279734,2.417122574842618,5.345020389989348
1570178938806271.0,2.789854359357569,1.954139748490546,1.0380068643871072,0.9337052647325963,1.0011776808422168,1.0367098381208415,2.4580512407983908,5.381956963180444
1570178938806271.0,2.830920700425035,1.9822430987189315,1.0353331776595487,0.9354370472089331,0.9978940730991899,1.031659966399676,2.494802675554678,5.424343000399549
1570178938822223.0,2.87626561113338,2.0145715776570547,1.034829617288442,0.9384382768280632,0.9958476803822981,1.0241575992265475,2.5312629171131724,5.481760888428909
1570178938822223.0,2.92491655760116,2.047681123217395,1.0357171144349377,0.9373416745651157,0.9949544240988805,1.0135660131868836,2.568341347215242,5.550738971208828
1570178938829205.0,2.9754667407749715,2.0819642214380774,1.0366349146775218,0.9337107414828388,0.9937775968857891,1.0028877352392436,2.6034075547105626,5.630745384209864
1570178938829205.0,3.030878358319165,2.113669697898072,1.0386167642438078,0.9271673580084467,0.9940949013499866,0.9919826380069061,2.636989909287008,5.7173188519533085
1570178938845161.0,3.0866348651428486,2.145548130115523,1.0371414285735756,0.9193834028241,0.9947816119067384,0.9817162081051334,2.658576795399896,5.7924749513459135
1570178938845161.0,3.1425635116708657,2.175917412193834,1.0326530555242515,0.9099267225968454,0.9958955444387723,0.9711415317530108,2.666277270221789,5.8205096122677435
1570178938847156.0,3.2009479162066516,2.207803466646946,1.0263687682294962,0.9000553085167696,0.9982081626210483,0.9622779728620074,2.6746060441478257,5.8064137749730556
1570178938847156.0,3.263580780824577,2.2401085663838223,1.0224053667144868,0.8876807732242582,1.0041051965789383,0.9548767641492591,2.691751189944791,5.77712480300046
1570178938859174.0,3.3281877511107303,2.2750819236987385,1.0187191868310252,0.8767905996062346,1.0130120548827772,0.9488745725198799,2.7124871309706964,5.754460824180108
1570178938859174.0,3.3980590861096585,2.3091179511401823,1.015845431407248,0.868400233664423,1.0248515180530502,0.9433120723829791,2.7333223709221963,5.734615784930852
1570178938866106.0,3.4700251526464525,2.344329128405876,1.0124643279259216,0.863352810769766,1.0368953762910882,0.9402422983126724,2.753526077838917,5.714729871730173
1570178938866106.0,3.5417249624713647,2.3787569130813124,1.0112561910253617,0.8589552650520171,1.045745506009819,0.9382901701247796,2.7757395203469613,5.698521593340989
1570178938882063.0,3.608864212712489,2.4174171199604766,1.0121233030701566,0.8567481621892052,1.048563814937871,0.9385466089818982,2.793486050412981,5.686408803779887
1570178938882063.0,3.672451630672402,2.4599546725399817,1.013775161253291,0.8539700822221488,1.0490712393963717,0.9385215767207822,2.7935144500858566,5.658035274591034
1570178938889045.0,3.735820144954828,2.5083334590514395,1.0115269567016227,0.8527887101156342,1.0505970947046286,0.9386632909911012,2.7701516019984207,5.608185028533109
1570178938889045.0,3.8049041478577212,2.560448382200732,1.0101943585654478,0.8522146431479444,1.0548445008252156,0.9367312195874141,2.7369281470305435,5.55871069230872
1570178938906162.0,3.8783379379327427,2.617814556563077,1.0117153881844652,0.8539325906965666,1.060522085450756,0.9347250162021815,2.7068490760517405,5.527435526266787
1570178938906162.0,3.9576907610949306,2.6756795178937893,1.01782903082956,0.8556513290442924,1.0679412513556406,0.9342270213619355,2.683559600004614,5.507450391622583
1570178938911592.0,4.040471015227137,2.734194803538005,1.0251662136299518,0.8573334536157499,1.0749622821512734,0.9371274845438343,2.665935676533973,5.501093851616968
1570178938911592.0,4.124202991550467,2.792489087064681,1.033503294940455,0.8572084262779346,1.0807594001799683,0.940647126348378,2.653873024559278,5.511558443572986
1570178938918963.0,4.20693933208248,2.854768920274465,1.0413870505735345,0.8608490430061811,1.085578915749696,0.9462558336466892,2.648106196875984,5.541035738736578
1570178938918963.0,4.292300955536919,2.9186001738219116,1.050181089560562,0.8671812022660554,1.0920020654170035,0.9509763092356766,2.64785323332419,5.582846655677675
1570178938925944.0,4.375723943637726,2.985040391101189,1.0562503017596505,0.8776883281085762,1.098793498952105,0.9545839391321327,2.6505968733767333,5.633807474531002
1570178938925944.0,4.458147750251599,3.049640223077992,1.0609138469783435,0.88861261500547,1.1068605841281356,0.9540077438779111,2.649737410798736,5.67832001732667
1570178938941901.0,4.544199648549082,3.1141343534029815,1.0630361734351914,0.901727622861725,1.115849988200528,0.9528966952924662,2.637278657751993,5.71280340307635
1570178938941901.0,4.636927803372409,3.1770126919108117,1.0665265948115548,0.9156212855802716,1.1240356901694402,0.9524366929011346,2.6188648711442166,5.75038142633683
1570178938948883.0,4.730303452601106,3.2396819981989085,1.0700466364686765,0.9320785668851402,1.1297291888680026,0.9550752727508137,2.602186211428001,5.80073462376677
1570178938948883.0,4.821647430481576,3.3002780987065865,1.0742338161327118,0.9477053144812136,1.1353810646346507,0.9596786315739967,2.591482313105027,5.857159410382555
1570178938964839.0,4.90922442693002,3.3616845331866907,1.0773971159945233,0.965004219681289,1.1421001258532029,0.9674624199676416,2.586186656865851,5.918921019128633
1570178938964839.0,4.996555987161101,3.423398325404991,1.0802794757795684,0.9805408412648591,1.150634477130233,0.9743457965936837,2.58639101900444,5.971549741265942
1570178938966835.0,5.079884249123575,3.4879921822533975,1.0816590587179469,0.9975351462569713,1.1578330063339155,0.9818250793544946,2.5921114334036797,6.01125842134949
1570178938966835.0,5.1550160225285255,3.550003721931098,1.0842184512141162,1.0142222855975624,1.1632260448850795,0.9891563314726705,2.6032276218918797,6.049538098252866
1570178938979799.0,5.229613447525515,3.6083898075175966,1.0871324035796528,1.033037789108322,1.1676938166847914,0.998982204478139,2.6186645672736564,6.099613000029865
1570178938979799.0,5.315651784919194,3.6634276183515286,1.0915728839191325,1.0521730176073496,1.1724513268995664,1.007933709075959,2.636348045166531,6.156453830269523
1570178938985784.0,5.410959854317659,3.721591926880657,1.0950491569810548,1.0729609535309987,1.1756374740211033,1.0175065722304726,2.6542461542066236,6.2191469798169505
1570178938985784.0,5.51272536855995,3.7818311402684874,1.10004763093562,1.0900357945192578,1.1772441270761846,1.0268200275290018,2.6747959548050466,6.288483282119148
1570178939003055.0,5.611698944448187,3.8331479292858983,1.1033115091750938,1.1058563816663367,1.1768106478998055,1.038496328698894,2.696435824301188,6.365803952203195
1570178939003055.0,5.705534737441482,3.8689127697837105,1.1027462918534212,1.1170675214727916,1.1741027243849755,1.048828292077644,2.7036300946658574,6.418822637146076
1570178939008729.0,5.794235233788746,3.899879062688031,1.096231428351784,1.1255557801413185,1.1692054682603596,1.0572195041646695,2.682642991849686,6.408420846167593
1570178939008729.0,5.866566211182959,3.9265657915437426,1.0890719198472765,1.1324790778630227,1.1644736258692765,1.0616895069904673,2.6477199939622005,6.352452053808729
1570178939024703.0,5.922060323262956,3.952685549434605,1.0832123389260087,1.138630929680616,1.157835967576907,1.0656260720158108,2.614888054873063,6.2977094299280685
1570178939024703.0,5.972254699448951,3.97535683093275,1.0792045547562943,1.138954364109382,1.14872067387683,1.0675081181997939,2.5853245822502764,6.25067322643596
1570178939025681.0,6.009812431122157,3.9864150623124783,1.0736748694480862,1.138261834894184,1.1402362279276503,1.072788452183855,2.558414828305625,6.203127520609227
1570178939025681.0,6.039543566351188,3.988534537555472,1.0685248755682344,1.138248523918599,1.1350411366342927,1.0814077572988725,2.5372632750765103,6.149219779593338
1570178939040698.0,6.077989581281845,3.993596948183873,1.06422694158405,1.1415208673108674,1.1319982556430694,1.0945719071722346,2.5248086701509362,6.093821858157329
1570178939040698.0,6.127769521926988,4.004017348622694,1.0616764875206788,1.1434688389375887,1.131192793807342,1.1094914355570764,2.521964599143366,6.044264460830982
1570178939046626.0,6.163122772357702,4.0018117588241475,1.0586010293893204,1.1459440157898995,1.1307542885366413,1.1253298656376671,2.5239995442075873,5.996421963871413
1570178939046626.0,6.169697545870076,3.967900412138945,1.0573674762449365,1.1495010887647876,1.1300162807046348,1.1354584652962882,2.5231341555168267,5.944803353777264
1570178939062589.0,6.149959824906818,3.912894190201306,1.0551225758060996,1.1524721665067106,1.1253565430255483,1.1405904615406637,2.5156602512082196,5.8929734707167745
1570178939062589.0,6.107084259256987,3.844362120139661,1.0519620686975057,1.1484333584717337,1.114778922525653,1.1409273981038353,2.505675251345068,5.845179204989321
1570178939068764.0,6.062109055416384,3.7710119291483597,1.0489833121253838,1.1420609465815243,1.1024284028379694,1.1407594860825954,2.4926244922385554,5.810526789474892
1570178939068764.0,6.016116434362888,3.700779641257604,1.0493067413099122,1.1344265296079745,1.0942142047053263,1.141144400078605,2.4768160792684455,5.791620842425835
1570178939084812.0,5.957418093031361,3.6325608756489607,1.0521194590559066,1.128174499854314,1.0894609248367744,1.1450241542837862,2.46523727109722,5.7825139261781615
1570178939084812.0,5.899189972403825,3.5712411513644584,1.0592698352171492,1.1232585028134547,1.0875631851067815,1.1490547402990854,2.460954550204464,5.776686378316921
1570178939085520.0,5.847050195325242,3.5215276901781087,1.0673969336468563,1.1208263133026066,1.0889908261515602,1.1541475952838078,2.4620726714207994,5.771815778197825
1570178939085520.0,5.798396628271072,3.478070010063169,1.0749658422610437,1.1194157639995068,1.0947121596266387,1.1585991715003596,2.468640065011176,5.766638821260521
1570178939107504.0,5.757609443992573,3.437310516775022,1.0790642004280528,1.122337240503154,1.1035569265686367,1.1641232802673642,2.4800673768131296,5.768496013935315
1570178939107504.0,5.732833053358166,3.4028304630151736,1.0807615588580683,1.1269423038768445,1.114492794981428,1.1688746460651653,2.497344870460772,5.77042794138044
1570178939107504.0,5.723925582105403,3.3753230546718487,1.079481665062121,1.1327684334904982,1.1248615122815004,1.173385707401189,2.5202392055753555,5.760728936533966
1570178939107504.0,5.722804261941054,3.353461835502959,1.0807240248209389,1.1374736380394237,1.1336000688933756,1.1743898273337439,2.5448696666715724,5.753255226545861
1570178939122539.0,5.720813584134661,3.3403024133495762,1.082637958901901,1.1428064050410962,1.1400329184628393,1.1742264612938524,2.559760480566739,5.7534668075835205
1570178939122539.0,5.715506099841288,3.3362184462356943,1.0825985740078417,1.1461115167549987,1.1470583707236837,1.1734021195734212,2.5520389854111767,5.728820870148841
1570178939129403.0,5.711836163413418,3.341213895940609,1.0781830242986608,1.1486425440594596,1.1543594894501252,1.1741710926222912,2.525266444903543,5.667642793659347
1570178939129403.0,5.712703217976813,3.353766874271635,1.0726095519040617,1.1502796967326097,1.1604771676528616,1.174842309311925,2.4968254889980073,5.599813947253283
1570178939144410.0,5.70935878862591,3.3691232614825486,1.0676630944382162,1.1544921111235205,1.165189497210582,1.1769697420801337,2.473659731216302,5.544374159153829
1570178939144410.0,5.69779799584985,3.383559630732667,1.0670761373980182,1.1601055950438164,1.167793839741134,1.179959985749621,2.45605638929782,5.496088419102089
1570178939145417.0,5.688499204745179,3.397598151278634,1.0684614939702703,1.1682531986695148,1.166410362514734,1.1848317829424153,2.444164264213293,5.444845682873405
1570178939145417.0,5.688209186646675,3.410329733333044,1.0711415306875145,1.1758702756404098,1.1620067611591978,1.1882085228595138,2.4365989220966906,5.392373263081584
1570178939167301.0,5.697117526346095,3.424086771718212,1.0737673114297244,1.1817775648000377,1.1544682158399997,1.1919781459332222,2.4297648344514835,5.350251995362498
1570178939167301.0,5.71433951418734,3.4397733939670108,1.0764339710313293,1.1846167814938808,1.1455574918332847,1.1956560777224836,2.4170914010214273,5.315539306195077
1570178939167301.0,5.739194818185495,3.457639192386022,1.0762675948222828,1.1890565577497807,1.1369222387149822,1.2005504599270687,2.396668711086708,5.2771291149377335
1570178939167301.0,5.773682709037278,3.482650234034131,1.076035258595617,1.1937665371438324,1.131567238072322,1.2053462190274937,2.3779941411810412,5.237836683638216
1570178939183265.0,5.82441964114201,3.517958075458989,1.0742104353730701,1.1980612115907985,1.1290359222899626,1.212387417732067,2.365886100108354,5.203361485687768
1570178939183265.0,5.897796946751439,3.5650682849850606,1.0724610559008654,1.1999311602734244,1.126415970171349,1.2209224416077142,2.3588780208001583,5.173718325705849
1570178939189248.0,5.995959943313563,3.6232686455908394,1.0703207451890342,1.2009814445966676,1.1229165457730366,1.2308491082510598,2.354425471246763,5.148725644127787
1570178939189248.0,6.092901572539704,3.6779471415240197,1.0690134480707423,1.2007085891501412,1.1206507256463905,1.2387815732444858,2.348683076743877,5.126585693926939
1570178939204201.0,6.126759350706226,3.6946566637044382,1.0672337082947385,1.196982292152935,1.1167004920017736,1.2411032482839535,2.3385545373669574,5.089549244949684
1570178939204201.0,6.077428541330901,3.662571284711177,1.0672389876525123,1.1859723100676207,1.1090120403976431,1.2322055701420709,2.3136335393965215,5.0224415935969295
1570178939205588.0,5.998098254597405,3.6151618991062637,1.0670481771314824,1.1734761239384088,1.0976122499342882,1.2172691970719107,2.2682654796713697,4.942653291649645
1570178939205588.0,5.92590323688129,3.575167491198117,1.0650744862967965,1.1606894641852226,1.082098715422322,1.2018428212385104,2.217629284183495,4.8709781476769365
1570178939227145.0,5.848765732579237,3.530835743166064,1.0599854247207212,1.1474027679631025,1.0636279568733822,1.1860836723199524,2.1745191604221743,4.812298287312547
1570178939227145.0,5.750684768869057,3.4702297588525512,1.0563819306243334,1.1336692774193255,1.0453934373513083,1.169301468560555,2.137302728116615,4.763982470196641
1570178939228139.0,5.645760240217825,3.3988716457243076,1.0540864242201047,1.1200835386808885,1.028610131602226,1.1539726537019646,2.102785559775216,4.717744728533353
1570178939228139.0,5.5478094686727335,3.3301092788178623,1.051899003650581,1.1049414747198543,1.0120942284550303,1.139286553495012,2.071953726122382,4.673488839879766
1570178939243102.0,5.448515545959504,3.263080136631911,1.0469645359616855,1.091233544579608,0.9939340803645246,1.1278863146594242,2.044507595842602,4.632963244760448
1570178939243102.0,5.3396221413085385,3.193597860092764,1.0409579549448873,1.0796560407466698,0.9777134643685751,1.120688812705226,2.0194672198661388,4.5971222489375645
1570178939249292.0,5.227559424278106,3.1226996603023855,1.0329330313818816,1.069703451670041,0.964438381916702,1.1169221889556347,1.9967122451475678,4.569842848978922
1570178939249292.0,5.1158238229698325,3.0554127509271,1.02655855786157,1.059622228795819,0.9521916950512164,1.1117996165190165,1.977335850820325,4.553889092647786
1570178939265094.0,5.005668300470262,2.9915705660080154,1.0228530001278309,1.051257703224948,0.9409661184160646,1.1045546123690049,1.9620593625106675,4.541144842646444
1570178939265094.0,4.899011581758041,2.9306977709880537,1.0211740286672721,1.0433285317620669,0.932812737070842,1.0976640224445224,1.9508652258406893,4.521578185766815
1570178939265210.0,4.797546829383639,2.869777435064305,1.0174471801362248,1.03376894180294,0.9256894391537546,1.0935359744103297,1.9434660484269746,4.505421950257017
1570178939265210.0,4.700495408443476,2.8124789092879947,1.0136739241391253,1.022346045208417,0.9172043706250104,1.0911529344644917,1.939838259897792,4.500017018160761
1570178939287104.0,4.608396301848895,2.7573741528052182,1.0095746036751023,1.0128407723678292,0.9076667196459518,1.0890114231469912,1.9386606346495674,4.499341311890396
1570178939287104.0,4.518645795795223,2.70047969502451,1.0075557849216243,1.0039671530619325,0.899692768651344,1.083635398784891,1.9402323432009532,4.497952030924947
1570178939287979.0,4.433611525815039,2.642010560259592,1.0067694144949135,0.9957579722251456,0.8944177876461893,1.0760921383186235,1.9461207853789388,4.4813406306957475
1570178939287979.0,4.354026455768354,2.58825758788476,1.0073516266205542,0.9884844715584632,0.8905972657486496,1.067739993724195,1.9559286325223217,4.44198435702486
1570178939303291.0,4.276328321877401,2.536132668098271,1.007211488407893,0.9849405283407093,0.8862087798555477,1.060086287910577,1.9661099387502834,4.396009570183934
1570178939303291.0,4.192457298217918,2.4823580530085576,1.0092460985758525,0.9844976744557363,0.883166227032612,1.0523774783929871,1.9752540679958162,4.352631356993234
1570178939308922.0,4.107804626171487,2.42708936355342,1.0136302416729348,0.985605570559255,0.8818887612821404,1.045218505196557,1.984757508198818,4.308704001875536
1570178939308922.0,4.0296521157211815,2.3724641558131614,1.0220896450542147,0.9845663707654642,0.8837715936715497,1.0379024303170383,1.986251213937512,4.252975685348995
1570178939324032.0,3.959856074786248,2.3142081163721926,1.0310374002181555,0.9839406468128375,0.8885930553563962,1.0310094753455934,1.9717772343724451,4.182901880894631
1570178939324032.0,3.8975788364285857,2.2544124997560067,1.0381129595687222,0.9831728413363565,0.8951621675350886,1.0228180986743194,1.9518160957994373,4.116099979933552
1570178939330989.0,3.83807975396585,2.19508476913238,1.0412317833153357,0.9812953288511088,0.9009725319014429,1.013162353375649,1.931107519092592,4.058322032038304
1570178939330989.0,3.7713954523527082,2.137587268421567,1.044555098394452,0.9765141763465509,0.9062874408252845,1.002544554786094,1.9078105113420099,4.002241945105731
1570178939346821.0,3.7030910132369397,2.0792302846498885,1.0474720462662592,0.9693209796850419,0.9120545702406724,0.9936096498801825,1.8858153727303608,3.953436109319494
1570178939346821.0,3.6375512798679366,2.0204568625459096,1.0534758107386477,0.9603369493087456,0.9202581034333448,0.9863966376194497,1.8676466232195723,3.9149715044202416
1570178939347917.0,3.574392932909855,1.9604498855003702,1.0608817146825473,0.9545404008899047,0.928201736201396,0.9805158614212656,1.8514669236541887,3.8820643556531835
1570178939347917.0,3.5133611652087655,1.9036708316676794,1.0689578198702516,0.9507604290575433,0.9341691035679451,0.9752988557658936,1.8322927744367752,3.8502100547830813
1570178939362778.0,3.4554295110225546,1.850355081048368,1.0754567510416455,0.9469552750435134,0.9388125150280672,0.9723863885922996,1.80772328014185,3.8227450933341682
1570178939362778.0,3.3971691558887307,1.8007139890792834,1.0818672513443417,0.9416708751916157,0.9449061885996412,0.969779181074388,1.7823480717180453,3.8047142546652664
1570178939376741.0,3.3381932897341686,1.7520072154287742,1.084570807576625,0.938320623611733,0.9522678756913191,0.9684395292016893,1.7586911810577948,3.7984667377849948
1570178939376741.0,3.2820355052251053,1.7050448231560795,1.0842438023542973,0.9362966275814165,0.9612889130300114,0.9671971157496965,1.7377837107910952,3.8010681508291913
1570178939383976.0,3.2365225444446235,1.658877923540535,1.0820706504560258,0.9365911331803422,0.9711557678426971,0.9650806552653524,1.7202518435521,3.8098232921409814
1570178939383976.0,3.1992893651602423,1.6162711483373733,1.0810686706805406,0.9367926074215313,0.9825842778442314,0.961478135363239,1.7071379646764353,3.8152791888933644
1570178939391701.0,3.16072784285596,1.5756165360246355,1.0793131294885694,0.9386467852431899,0.9955967627409034,0.9584739674781427,1.6987003457028045,3.818441234539128
1570178939391701.0,3.112098472860376,1.5370329915172707,1.0772390344822587,0.9415749535201288,1.0098973497509962,0.9561245181885274,1.6926666314153134,3.8212845596172373
1570178939406662.0,3.0554013818296615,1.4986238978692434,1.0736648318548687,0.9468638478056948,1.0227346841145497,0.9572494169797284,1.6870513838662544,3.8283835408107456
1570178939406662.0,2.9906189539598675,1.462127819649912,1.0697277110566572,0.952889288940545,1.0346013456451764,0.9601150034087398,1.6841432103749556,3.845016702564224
1570178939407659.0,2.921085436327221,1.427451545059271,1.062543255857127,0.9612347286576969,1.0457970563447072,0.9635351874291084,1.6827011525043691,3.8745467882388107
1570178939407659.0,2.851861462811189,1.3960424992435216,1.0563004385617734,0.9709804772871308,1.0551116127472857,0.963459270649769,1.6779514085834286,3.9122831273511744
1570178939422725.0,2.7876149205240877,1.3675908364129354,1.0517978187291013,0.9820453864352088,1.0592110485610018,0.9599209005863389,1.668716006426535,3.9612015523508894
1570178939422725.0,2.7275875806640246,1.345059865527486,1.0487789571533195,0.9914797651233345,1.0619126391209741,0.9543583859832896,1.6578549059127359,4.020019236042393
1570178939428951.0,2.6736568326060666,1.3273116696592717,1.0450077536091122,1.0031577347400225,1.065803554912009,0.9499137252822646,1.6472208029508089,4.090126248526091
1570178939428951.0,2.624866946401671,1.3148522737851365,1.0419588338789492,1.014245457172627,1.0702347725687364,0.94641935373408,1.6398038403555146,4.162329118650054
1570178939443607.0,2.5814590660522714,1.3054067919119046,1.0382408468128905,1.023692310328932,1.0726776823941915,0.9470383543855837,1.6342392388908134,4.234092518743615
1570178939443607.0,2.5430393440197134,1.2956403363531654,1.0352670220501543,1.0295655668455281,1.073821243913286,0.9509038950974246,1.6280161211957986,4.306809986128698
1570178939451544.0,2.5147392869989567,1.2827720556876008,1.031649089531151,1.033123981156327,1.075562678470047,0.9589209289756242,1.6220768439204054,4.383500354396458
1570178939451544.0,2.4922605568734535,1.2693013491069025,1.0288377312432953,1.0338842892694395,1.079345967313303,0.9680059453567986,1.6152065740169517,4.4336009688356866
1570178939467498.0,2.463847665854051,1.2541967246788897,1.0255591761236607,1.036981119532806,1.08202927311568,0.9767368117891936,1.6050977690811339,4.440024104620404
1570178939467498.0,2.430310155372837,1.2389862539762115,1.0244357933720092,1.043018832671145,1.0843801404818847,0.9835342028032371,1.5962736728341278,4.425987691242639
1570178939467580.0,2.399640723679647,1.224034229006217,1.025519925252603,1.0536818623937692,1.0877083902122215,0.9922545563949424,1.5918274659865685,4.417081365860518
1570178939467580.0,2.3689456902004697,1.2097595889929929,1.029091044441492,1.066500020937751,1.0920769895489897,1.0020437263565098,1.5922975005146691,4.413098548558364
1570178939482938.0,2.338943692248226,1.1930696691237106,1.0294033228823636,1.081371717739101,1.097083282541262,1.0153656196888565,1.5968414029379399,4.413623433317313
1570178939482938.0,2.3106962994076534,1.173819776833592,1.0265841381151948,1.0937403938847774,1.103814709633,1.030755359542256,1.6060908644902174,4.414594095747549
1570178939488490.0,2.287369668046738,1.1525077450007088,1.0232749928994413,1.1053825110463844,1.1101943932112142,1.0471826004369023,1.6163513206805717,4.413232552155342
1570178939488490.0,2.2666312703854192,1.1318502584506105,1.0240646270750107,1.1156044268994774,1.116345588003565,1.0605529927774415,1.6250451580806036,4.400162579257894
1570178939504293.0,2.2464425649803927,1.1134237577409514,1.0259621267246473,1.1250898231461322,1.1226983552076129,1.0733308999281932,1.6348238520990515,4.384236343148944
1570178939504293.0,2.2264421099813725,1.0989308916859097,1.02618987215657,1.1326398253863452,1.1290863791950578,1.0848524775285726,1.6477772688387924,4.376862542145024
1570178939511381.0,2.2068126923669413,1.0859950856785856,1.0218970033603545,1.1397084790640233,1.1330178305305278,1.096549741461738,1.6598817807915114,4.382835240585941
1570178939511381.0,2.1850270915659964,1.074061400748358,1.0186805832608223,1.1441474142637353,1.134610763031001,1.1056999343719425,1.6669992347340845,4.393945382726977
1570178939527338.0,2.161851226063558,1.0621746963484338,1.0171902863137812,1.1488363901574163,1.1327622258699162,1.1122872019579084,1.6677951002883062,4.408678701024945
1570178939527338.0,2.1382592865114005,1.0517934400141231,1.0183785550078688,1.152718223613775,1.1287564750529417,1.1154129532845614,1.666278184069965,4.426847345119299
1570178939527338.0,2.1159233108310325,1.0435927650815768,1.0203163349912654,1.1550153570458608,1.1230213326319,1.1164449227373727,1.6645898817037286,4.449733740656061
1570178939527338.0,2.0922197494977994,1.0375848617389,1.0232095233897407,1.1532362814708605,1.1160298205842052,1.1125964122698122,1.6626007621763712,4.4574606597919795
1570178939543296.0,2.0666745325319145,1.030279039909734,1.0238886175130573,1.150519564390479,1.1071904554220435,1.1080772580203688,1.6593560925495139,4.442439154525879
1570178939543296.0,2.0411208615601293,1.0194675044223505,1.0250811435808642,1.1476956099307156,1.096209566588782,1.1050992830875974,1.6570037376793452,4.415389723110895
1570178939549280.0,2.016972066920366,1.0059440428706545,1.0282816949786158,1.1487812452459534,1.0832257914898724,1.1052344032207326,1.6571858470254899,4.391506699315127
1570178939549280.0,1.988919894533267,0.9931301842655287,1.036087342100049,1.1533178824078663,1.0699537623862616,1.1066792424268848,1.6623660950065438,4.375527372752424
1570178939564281.0,1.9571441938811194,0.9829117404200992,1.0458490014266584,1.1606231288152933,1.0572778572585977,1.1083752503077733,1.6692494207920123,4.367281869945938
1570178939564281.0,1.9255067882654475,0.9771229744113139,1.057418344143368,1.166169056570469,1.0486165097439046,1.1075938718626517,1.6763595156972482,4.3620109427259965
1570178939571220.0,1.8971675621669843,0.9737415265642428,1.0658028056128426,1.1689546530424781,1.0442407057282899,1.106874295710121,1.685522248556671,4.36589136744694
1570178939571220.0,1.8709432938168367,0.9708287264147326,1.0700049204035227,1.1684657440799608,1.0428885997368598,1.1057475249475124,1.6961210007404095,4.3764066663349075
1570178939587179.0,1.8476281033799486,0.9690053256171589,1.0705631798560358,1.165793509111553,1.0432355502834874,1.104111934630908,1.7062736937504799,4.396868901839204
1570178939587179.0,1.8264795417338446,0.9685045838439286,1.0742245224936744,1.1582869141371612,1.0468692777227375,1.099043187608781,1.7183288625806756,4.419394831772966
1570178939588176.0,1.8099590247855206,0.9691216450810244,1.0795684716822929,1.1486711827705396,1.053389757565953,1.0911319376257365,1.7331824273778724,4.438802595271592
1570178939588176.0,1.8005658786079966,0.9719751006104327,1.085745035795088,1.1376602936446196,1.0616779192817727,1.0807102963092614,1.7511574181013734,4.456127155976569
1570178939603135.0,1.7984575003417196,0.9759879319446664,1.090469208691116,1.126103275456803,1.0702462319409147,1.0707700413982808,1.7694728745655857,4.478270947638459
1570178939603135.0,1.7992960708148056,0.9811393300791916,1.09538038070055,1.1139771751746395,1.079280288347806,1.0611099988911206,1.785798990119177,4.50074991975356
1570178939609120.0,1.801828402339145,0.9883852654814502,1.0978224019396075,1.1018195345574304,1.0859410040411768,1.0536647341480883,1.7993134830540352,4.527014423261424
1570178939609120.0,1.8067587349862275,0.9966163618624782,1.0990466240621724,1.0869151560608223,1.089563741431738,1.0480663859293669,1.813264839734626,4.559016270544237
1570178939624082.0,1.8116071859034104,1.0048288462833952,1.0987267187228857,1.0717789046718844,1.0891919670286843,1.0441589712056976,1.8269838979674309,4.593556453241258
1570178939624082.0,1.8089557989991931,1.0109031824166548,1.0981229162407848,1.0592886224174578,1.0853436519001742,1.0411461983220243,1.8397073771060306,4.615734055059719
1570178939631060.0,1.7982073502660723,1.012052371463813,1.0951194590724562,1.0505643898281642,1.0792781336163406,1.0418414192494647,1.8489812324468584,4.619141912258079
1570178939631060.0,1.7812054573894431,1.0093459242133767,1.0927544689156454,1.0433886342410472,1.0736112822477168,1.043550202394796,1.855368867204463,4.600258663036807
1570178939654001.0,1.7586720568173382,1.005900957208928,1.0911189241505044,1.037527396595468,1.0690435410344397,1.045773288412139,1.86218694409796,4.576864407226065
1570178939654001.0,1.7343751919812762,1.003593958593134,1.0910064103941004,1.0312450048892445,1.0642637594039943,1.0494909917153068,1.8701162889342153,4.557170507069354
1570178939654998.0,1.7128902720308625,1.004444289714798,1.0900636370996206,1.0265361742235415,1.057459399653846,1.055118548463202,1.875634299916782,4.543590680712692
1570178939654998.0,1.6924335630806715,1.0070618270009941,1.0906326118672744,1.0221133805405054,1.050762414122333,1.0586768390260273,1.8811840531615913,4.54029340116479
1570178939662978.0,1.6731203378471475,1.0076295938099136,1.0894979405177025,1.017973308290023,1.0445174450966177,1.0618260179448198,1.8883579751602546,4.549861498032095
1570178939662978.0,1.6565497592399625,1.0062488433145889,1.0857505937281993,1.0132266445783866,1.0403286008380528,1.0634386077484363,1.8958358558389679,4.561537586455142
1570178939668960.0,1.6456065872196248,1.0060189659413146,1.0790241430871457,1.0087476962477384,1.0388648759715933,1.0651381817491448,1.903164221921524,4.577205193954433
1570178939668960.0,1.6407501230852088,1.0055365537570815,1.0727682637311136,1.0025800984675144,1.038459678960741,1.0687308195425744,1.9130078351841444,4.595122857070512
1570178939683918.0,1.639661729705161,1.003089311354001,1.0651433997231545,0.9960537917565037,1.0361277583080835,1.075539654631942,1.9248176392436716,4.619021918986955
1570178939683918.0,1.639628425962959,0.9985725691085757,1.0571431904952535,0.9889503479995878,1.033445418800899,1.0821012778505719,1.9387010802414328,4.647539141757785
1570178939699877.0,1.642607961521595,0.9922611302289929,1.0499199063687292,0.9802853359448112,1.0310441941026394,1.0877599337603718,1.9536089243886559,4.676739221436992
1570178939699877.0,1.6506712130970869,0.985039074178297,1.04731235357057,0.9699960598632502,1.0306972446890774,1.0909585210600838,1.9697074938925332,4.7023769107111715
1570178939706857.0,1.6633685834321141,0.9790123445560972,1.0476385183062285,0.9631192122288834,1.0334263598494091,1.0950079748435333,1.9853490105510812,4.733707631502414
1570178939706857.0,1.6766189090755224,0.9727025789460284,1.0496523334299068,0.9587771670684176,1.0396872498159713,1.0992261773918175,1.997168524063959,4.754896899932287
1570178939707855.0,1.6852116735578597,0.9645667545761656,1.0504950690101222,0.9570223498400405,1.0470093757551737,1.1015318326709065,2.001059871500784,4.750170766341917
1570178939707855.0,1.6894451397898635,0.9565180180430405,1.0529410217666741,0.9577264345005424,1.0542178237796436,1.0996039307415706,2.001773377531718,4.728583952400882
1570178939722815.0,1.6943834008279373,0.9496238371912429,1.0550333544966184,0.9623550872320134,1.0613451209866267,1.0956860166031972,2.004562633200157,4.7129499536462625
1570178939722815.0,1.7031782134513591,0.9426151639323525,1.0575112800948816,0.9669908757076332,1.069473970357757,1.0887984297935023,2.009535650816328,4.7060073878602084
1570178939729799.0,1.716143954281097,0.936957087137005,1.0592110321762394,0.9705688779024508,1.0764481236677894,1.0790628502285324,2.0141038140676755,4.703831225503231
1570178939729799.0,1.7312632886443369,0.9330826586994689,1.062903227866658,0.9738202933499339,1.0812224440295846,1.0678788292061796,2.020458378717295,4.696987229199047
1570178939745755.0,1.7475671415806875,0.9302616982692031,1.068465964497458,0.9806458566354183,1.0833194575986187,1.057672635271067,2.027676118841569,4.69219360784918
1570178939745755.0,1.7630274451991728,0.9282559322152505,1.0762046059240442,0.9887242862623011,1.0856370934667898,1.0474921313657155,2.034498016644141,4.688730837912967
1570178939751738.0,1.7766593479091417,0.928342801527983,1.0812289390671206,0.9973191352892167,1.0871120438606763,1.0379547788450854,2.041231947178554,4.68802801080154
1570178939751738.0,1.7904729836553426,0.9288886585303359,1.083134346627033,1.0046157601946775,1.0841565776479491,1.0282541153245737,2.0492524098184077,4.693064419962824
1570178939766703.0,1.804519174230515,0.9307282988892905,1.0816281221624526,1.0133067434893523,1.075230785225114,1.0180375230723984,2.05769899019905,4.707513288056147
1570178939766703.0,1.8188720488640573,0.935038442552663,1.080478329246741,1.0225115084053127,1.06342802991141,1.006903183768475,2.067368187145934,4.727621773375436
1570178939767694.0,1.8365386217192805,0.9406415911791783,1.0795455775135399,1.0323154933949954,1.0516401443735455,0.998441514681375,2.078359366952524,4.760298337715162
1570178939767694.0,1.8575176499148103,0.9442240380258912,1.0783393094367275,1.0407234762991462,1.0425242957672922,0.9925192651915201,2.090436492958352,4.799935647542511
1570178939782656.0,1.8798115368407544,0.9472227724322375,1.0731254644538886,1.050344900729318,1.0347356972213564,0.9885325140340233,2.1020886762002338,4.841582300873924
1570178939782656.0,1.9034512810561504,0.9512147869398734,1.0670108334970305,1.060068828719179,1.029000907253737,0.9836318003927946,2.1138299825526063,4.880629028924255
1570178939788640.0,1.9215249670654475,0.9585541114855566,1.058116926073492,1.0687237928251616,1.0253982547898568,0.975802370400892,2.1237781611885604,4.912044281309997
1570178939788640.0,1.9304862773606337,0.9685166778346294,1.0466394338449394,1.0725066598163386,1.0242703868291334,0.9658032491046611,2.1311340882931744,4.927426174392392
1570178939803599.0,1.9402938292737042,0.9780954097742719,1.0340576764408769,1.0717137113029405,1.0257418639436138,0.9561158013379887,2.135279290620536,4.935784140366902
1570178939803599.0,1.9547733815704234,0.9846711566633455,1.0242616164898755,1.0661423340649405,1.0293332068178649,0.9459713750402492,2.1410055470716247,4.941688067545571
1570178939811577.0,1.9669843408394143,0.9916643026675859,1.0159078952811054,1.059272159780613,1.0325640922632955,0.9358886226367934,2.1516626681688336,4.954288105943534
1570178939811577.0,1.9741640578677488,0.9987304047179892,1.0080092457236598,1.0508767126450715,1.036563744158221,0.9242221443387671,2.1677548174335795,4.973276186080986
1570178939826536.0,1.980304217160349,1.0057844112999832,0.9992032925840229,1.0441561385839926,1.0404096050162988,0.9117304301421695,2.1880210442923276,5.00384842591436
1570178939826536.0,1.9893589449116031,1.0132757171983369,0.9940094378211743,1.0391377178075505,1.0442817094791281,0.8987311586563539,2.2101534107814276,5.042121172178209
1570178939827535.0,2.0023027786785135,1.0223757046923445,0.9909299810689675,1.035291319692812,1.0489819561994516,0.8857590792459649,2.232004028887102,5.086659807254409
1570178939827535.0,2.0143083126953925,1.0308732958032485,0.9903385992727881,1.0295460522669933,1.0558083850834525,0.8721089095991184,2.2534852012336777,5.127201531740589
1570178939842550.0,2.014750658024574,1.038520192602305,0.9915655801466401,1.0225240194112821,1.0646053441994106,0.8574425686051891,2.2611454314367325,5.144951196379232
1570178939842550.0,2.0025194836262914,1.0425860477210507,0.9950614450987454,1.0135164688959042,1.0748954642325994,0.8413868558244131,2.253783615481405,5.132124462588409
1570178939848538.0,1.988170905567182,1.0430809352626995,0.9961244874370414,1.0051831584440178,1.083986762097166,0.8268167602567079,2.249698840740048,5.1163200342398
1570178939848538.0,1.9775887472526368,1.0420498861861107,0.9956917112366486,0.9993463924445222,1.0922660162827016,0.8149053006668117,2.254902794757025,5.111235615162558
1570178939863498.0,1.9689269277176653,1.0418135458177937,0.9949992116067367,0.9983370175435068,1.099428683541688,0.8071486456892988,2.2604322271299226,5.11627441738047
1570178939863498.0,1.9581324789107801,1.04128254958543,0.9967763629127935,1.000165318084229,1.106456133711463,0.8013461878125203,2.263510460742786,5.125859684165639
1570178939879458.0,1.9460604994945772,1.0413372052571501,0.9980060285033946,1.004441651007208,1.1136469579477215,0.7976557604384049,2.2643557518345485,5.142194723471848
1570178939879458.0,1.93758147285213,1.0420397677483992,1.000549933646874,1.0077347783047481,1.1209755995997988,0.7961689311073218,2.261495003433551,5.144174588631144
1570178939887225.0,1.9348458123997354,1.0436114609756808,1.002209049538877,1.00965983815265,1.1270420980427889,0.7987311571213531,2.254160273490741,5.119060241018624
1570178939887225.0,1.9339725058254218,1.044304376377724,1.0031318174656503,1.0086166765336777,1.1325197522851553,0.8037492122929778,2.248259751307971,5.080354257721477
1570178939888189.0,1.928021919260943,1.0447644517551802,1.003449723554352,1.0064361184615565,1.135835889370679,0.8121244575875113,2.247459402604115,5.045472844567377
1570178939888189.0,1.9177611682459743,1.042234304387512,1.0050202921775078,1.0034667612820176,1.1374866738975076,0.8209392729728955,2.2537183073130516,5.0176789384258464
1570178939903220.0,1.9051879397918923,1.0377157156350436,1.004567739576982,1.0039385445371123,1.1385891611636687,0.8297981973897923,2.2665677382032308,4.998414884546419
1570178939903220.0,1.8881574644841232,1.0329089209888316,1.0058290753369237,1.0074861897276972,1.1412006658061842,0.8376464013984769,2.284546277711446,4.981340928449561
1570178939909204.0,1.8705149288857017,1.0303402607440368,1.0085020407200784,1.0135186801111291,1.143863002564581,0.8458202481938285,2.30449041262124,4.972696732892553
1570178939909204.0,1.8552454335238004,1.0294403745244047,1.014052039995021,1.0186734316043362,1.1462579079367985,0.8522915283305584,2.326273648936634,4.973597292276991
1570178939924224.0,1.8424150052080506,1.0297423462872755,1.0215837308202522,1.0237532280978738,1.1479537340988055,0.8608777875742146,2.3493082447445843,4.9850626923334085
1570178939924224.0,1.833020703376719,1.0308706138792365,1.03302164062894,1.0284260168540647,1.1493074015823903,0.8699738371374486,2.3746313787835147,4.998552733926948
1570178939931208.0,1.827096914700727,1.0350950530705645,1.0454874747468768,1.032251675869942,1.1487210130411407,0.8789359350749445,2.4003317494582426,5.015463164048716
1570178939931208.0,1.8246455471383405,1.0393267667278419,1.0580518669557784,1.0307268890824393,1.14648898412317,0.8855059575990653,2.419614555791975,5.038954930210849
1570178939947418.0,1.8246556782798522,1.04206620890146,1.0669312780763631,1.0267470130792973,1.1434757860361366,0.890478938338974,2.4238303962401786,5.06893035231429
1570178939947418.0,1.8281941959142607,1.0434262345952008,1.0750621472664503,1.0222919871084157,1.1407976366763155,0.892093828079718,2.4191513070882094,5.0993005422777795
1570178939947418.0,1.837162941843039,1.0454888021820348,1.0807919368961847,1.0203417905689884,1.137492987359136,0.894442565868879,2.418503428535226,5.126706619182417
1570178939947418.0,1.8515112679043344,1.0483107603660269,1.0869486836524354,1.0210163759005748,1.1329258534666096,0.8970088080817176,2.4246526622026603,5.143879221721156
1570178939962724.0,1.8710100875819136,1.0533159110719952,1.0943755716812487,1.024584649039859,1.126167214859103,0.8987881140408884,2.431150325452448,5.163892942804133
1570178939962724.0,1.8944757233166638,1.0589667910839469,1.1033367449283262,1.0277168456606587,1.118881591829356,0.8969492864990877,2.4355038758759227,5.1908986594798
1570178939968649.0,1.9156903099356766,1.0649345008784599,1.1107763648837328,1.032104224802562,1.1099391688717086,0.8936793539215456,2.4325472604294034,5.206547053672449
1570178939968649.0,1.9262961053340528,1.0697820067954293,1.1204099274690185,1.037033608826443,1.098055477389991,0.8888840710907814,2.4226218499121184,5.177408404509323
1570178939984282.0,1.9259320019895283,1.075576976066564,1.1279550139449526,1.0422790956134138,1.0826944009921102,0.8859190450041298,2.4147841322754062,5.109230423114694
1570178939984282.0,1.9227492460479003,1.0805883399496936,1.1327306253073222,1.0446738422245354,1.0660251371840457,0.8835518097076236,2.4128550246612344,5.033706874878566
1570178939991376.0,1.9223562328125101,1.0841090655194192,1.1364210550365985,1.0441344719546222,1.0494691340543585,0.8816640294012228,2.4119868460818497,4.971720881038615
1570178939991376.0,1.9236075794225809,1.0861908912676481,1.1414082114137818,1.0403707233908726,1.033981229500413,0.8761702462692336,2.410697479506977,4.921855119801303
1570178940007292.0,1.9235000062543246,1.0894600685617446,1.1439746511748161,1.0366052021925691,1.0188600863957578,0.870143961663197,2.410594727173473,4.885372565878303
1570178940007292.0,1.9231916995642058,1.0919244500057597,1.146574669959686,1.0312365253486269,1.004693024378039,0.8659702623770894,2.414314510572749,4.861998941602336
1570178940008291.0,1.9255128671800594,1.0924293304546462,1.1483430691808056,1.0248829810728646,0.9921622258194994,0.8650863838590714,2.420427683360835,4.8477122001662485
1570178940008291.0,1.929368233559807,1.0889013334282154,1.1506744783242764,1.018736748682562,0.9831109521365679,0.864841218274242,2.4259739497096153,4.824734051716873
1570178940023250.0,1.9297875885716773,1.0833632235155797,1.1518753903029706,1.0150556670206918,0.9755317505833279,0.8677856450438849,2.4257261280652145,4.789368424797916
1570178940023250.0,1.9250442853440237,1.0759927718093818,1.1532378687391842,1.010220853780321,0.9658597671138894,0.8713857047421378,2.418193542816889,4.753008902265935
1570178940029234.0,1.9171122997243275,1.0681436029083906,1.1519287144547694,1.0051025681459322,0.9538889315860748,0.8754602050745044,2.407527959870141,4.731455765738902
1570178940029234.0,1.906977552022489,1.0611924832926167,1.1477831697171512,1.0003982617659588,0.9450031038390047,0.878941008794316,2.4014618275227133,4.71914317400598
1570178940043363.0,1.8955473015142579,1.0569294644905,1.138292931861305,0.9957289788280028,0.9400350898954555,0.8843489808867269,2.40168327652674,4.711965929052051
1570178940043363.0,1.8838044218323506,1.0526328037469377,1.1264277651540437,0.9896049657530618,0.9374828517338832,0.8898036805972347,2.406265795072319,4.709127674746069
1570178940051506.0,1.8746458662275827,1.048733708256976,1.1149481764522409,0.9850942464634086,0.9361000886479895,0.8976382434611182,2.411993835739091,4.7130469871129
1570178940051506.0,1.869943107566223,1.0451255065343508,1.1057498575955544,0.9804772816960777,0.9372924737730692,0.9042103520097057,2.4179201153773042,4.7146485350572
1570178940066434.0,1.8655947693584622,1.041120509336126,1.0952351155936417,0.9758292177115157,0.9395288879725571,0.9096919163085281,2.420086478310109,4.7100743972150205
1570178940066434.0,1.8597242360227308,1.0351528749060606,1.0855498429734087,0.969179417541361,0.942347326108941,0.9116797343791134,2.416850257462367,4.700858766840636
1570178940067436.0,1.854234960581753,1.0319078165604019,1.0772010665288003,0.9620986651932636,0.944535285230062,0.9117604340712566,2.4092288248730305,4.686816661730976
1570178940067436.0,1.8461046460093666,1.030321215532295,1.0719125125759528,0.9542636370482396,0.943482936323855,0.9095572500578759,2.397650364212731,4.6596750877368205
1570178940082392.0,1.8304584726592341,1.0280718359109748,1.0680045445070845,0.945753282486179,0.9381752385099396,0.9065575362824231,2.384991255906823,4.631383150102975
1570178940082392.0,1.8114010001191834,1.0247250280206313,1.0673635377989212,0.9359159335880344,0.9331454952469276,0.9006042436045957,2.3774764229697003,4.611159044775735
1570178940088375.0,1.7957348794999197,1.023318413635898,1.0665515103804548,0.9268752345524462,0.9305615481898879,0.8951459640656333,2.3755564187593183,4.6058892057049805
1570178940088375.0,1.7833654647708803,1.0222263209005584,1.064640421866359,0.9175516460230614,0.9322102738333393,0.8902219579592066,2.379391716487756,4.613008402975127
1570178940103335.0,1.7732590287193424,1.0231095907228465,1.062122961339157,0.9104383145942266,0.9372678134841602,0.8881066734542518,2.3867778826178654,4.630313587678827
1570178940103335.0,1.767409115772194,1.0262335178461972,1.0615668004907317,0.9060398914260188,0.945405463960149,0.8873124613385848,2.3949372208811797,4.649205876523655
1570178940111314.0,1.7645799155604174,1.031238304064083,1.0596349254481774,0.9057577065470743,0.9544305808710624,0.8875856178983166,2.403623099685796,4.6674764132996
1570178940111314.0,1.7628606888715583,1.0348058572299874,1.0547059385887152,0.9065481625293988,0.9647131654618835,0.8847578465351857,2.4150287901931127,4.684470662229772
1570178940127273.0,1.7621823314754221,1.0371761169566083,1.0436365763268323,0.9079196984366629,0.9765545749947,0.8818466710903862,2.4275607099983563,4.709463840248073
1570178940127273.0,1.762674109907044,1.039003432253546,1.029036072855787,0.9092260876698348,0.9897804923510921,0.8782374910016983,2.4406485620589176,4.742390253286317
1570178940127273.0,1.765262311513368,1.0445360702062032,1.0110346831829133,0.9135245689072378,1.0032319030038315,0.8771197296593009,2.4535696715787565,4.783204397748006
1570178940127273.0,1.7720037409611147,1.0528836869291083,0.9925523392598824,0.9181917311836457,1.018810206157368,0.8781859581408529,2.4671264809641236,4.8246938103055435
1570178940143230.0,1.7843216505947,1.0639024585060757,0.9755188738385645,0.9215408811163478,1.035692490467539,0.8832473195262652,2.476999523005838,4.864439690806355
1570178940143230.0,1.7968398857266554,1.0745081594062833,0.9633353167909294,0.9214147803018641,1.0533612843487679,0.8884161100623073,2.46664370772486,4.890637229285136
1570178940157192.0,1.8029642203951417,1.0842044573066987,0.9535917586869334,0.9212546400904897,1.0682152655586326,0.8941130694857885,2.4341790612144596,4.905388365259313
