timestamp,emg1,emg2,emg3,emg4,emg5,emg6,emg7,emg8
1570181194280072.0,37.389463906926736,42.23117650165853,1.7047254912590046,14.90723283218304,8.769296565450444,10.268882139432487,10.255684127787633,10.898588989648427
1570181194280072.0,30.196932626163786,30.4626797073279,2.225801999101125,10.599049918943011,6.484655529999644,9.225134375890255,8.359227598245658,7.246014739997541
1570181194281078.0,30.87514594915151,29.907510105277982,2.370717501224471,10.241329709986221,6.393768452163398,9.223834102780339,8.22853131367656,6.267969833084554
1570181194281078.0,29.01369264393347,26.618490193073537,2.579427915256383,9.05907955974736,5.752905583785198,8.952913181390569,7.715880069662352,7.444406720520657
1570181194282069.0,29.47387264511879,26.24461386306197,2.6620737428361343,8.760450449024168,5.676646484602902,8.99426174502611,7.5721539089109715,6.962083818853203
1570181194282069.0,28.468233998249538,24.53011595150016,2.7768044771442684,8.119452911141897,5.3275146492774885,8.889867679853642,7.275548070255004,8.158301819801595
1570181194286057.0,28.508843891543044,24.142193289835546,2.8213110488722863,7.842676996584468,5.2637959959146094,8.959151831139476,7.138104327605962,7.838951204376508
1570181194286057.0,27.608097458284657,22.96030932274105,2.8871685189676715,7.41711083366944,5.044023721238986,8.93915914880562,6.939369096956863,8.796969599705566
1570181194292048.0,27.43747845038088,22.50517884612126,2.9014947170252943,7.172370951548744,4.992464859420054,9.042367873804796,6.825243565661101,8.612055571237699
1570181194292048.0,26.656945460051183,21.630060936087723,2.9397740914792183,6.872470839443178,4.83021286283311,9.083464123191396,6.678549899193176,9.380792512679811
1570181194303013.0,26.23819741867133,21.144088651242562,2.9542247666839105,6.656031361633376,4.7772569437889905,9.212392232219331,6.570340134403753,9.224666606520168
1570181194303013.0,25.30038849340629,20.345010548445092,2.9845466257900224,6.421705445814759,4.649459427751714,9.275984573321853,6.436305768140243,9.870756949191685
1570181194307006.0,24.588478050345362,19.686305801237165,2.9876324925752833,6.199687446045402,4.58106940996902,9.373434324777277,6.308639075036106,9.785636541161942
1570181194307006.0,23.684490287807805,18.93389624928119,3.0050676705286907,5.995348180599629,4.460290504853278,9.388141690815026,6.184237298500841,10.336404848576088
1570181194322967.0,23.043182240590248,18.274333184357168,3.011093015642323,5.785872367026781,4.383471509829561,9.374548632233964,6.068596947373945,10.26353587539151
1570181194322967.0,22.254128281337287,17.640347249262653,3.0337093146617926,5.620060633674432,4.269199107730101,9.294001642731308,5.963846552326451,10.724210629431647
1570181194330939.0,21.543553777126085,17.024254695157357,3.042629986995154,5.425418232999977,4.18508851614613,9.244432395331618,5.8452764689437275,10.683652719610144
1570181194330939.0,20.71846831162803,16.499551190597458,3.0562315133804825,5.287282810763519,4.085798956093992,9.174752544847344,5.732295634793622,11.119954635703433
1570181194353001.0,19.975180951263564,15.90532081757694,3.047476027519623,5.114552703535175,4.002916787933581,9.119263537640029,5.6147343710029975,11.113035311823248
1570181194353001.0,19.18481140834343,15.391357166423974,3.028847765252545,5.008621643273197,3.9099830742770334,9.053730659832564,5.522701471361535,11.467279263721744
1570181194353001.0,18.436347571905344,14.744804597094891,2.973010914335041,4.837677952533152,3.816903607620817,8.991617011837317,5.416890286695557,11.35206015509124
1570181194353001.0,17.685487172917394,14.23680024087354,2.895529328085353,4.712780133112223,3.707697478751892,8.886738592083063,5.322069492779091,11.517146668719604
1570181194367049.0,16.9841408292863,13.586651857943869,2.8046082669384758,4.515926866605821,3.6002051749780795,8.77321072829922,5.21415111254243,11.365316976847
1570181194367049.0,16.32127500575116,13.09881239830725,2.7226715979822433,4.3907859771299025,3.5038923942841653,8.67034272622413,5.136123758750704,11.55559341122952
1570181194408731.0,15.673860309034728,12.440084846935235,2.641111418651513,4.198914802282418,3.4128656829750113,8.582522477721227,5.055853105665165,11.483852049813967
1570181194408731.0,15.06140771699461,11.970304447604098,2.5720072243284564,4.086068411615506,3.3298817157441416,8.476840072136284,4.998553024771253,11.715233274680397
1570181194408950.0,14.47916235165099,11.349346109506108,2.503117739554963,3.911024991704024,3.2421194353756575,8.328631450846018,4.922401343460019,11.706185904363943
1570181194408950.0,13.959244287407277,10.9375252915624,2.442186968407484,3.8119059299901776,3.1622938269283494,8.151332109407605,4.859917595854556,11.971456683553876
1570181194412530.0,13.469447745941476,10.373432079380988,2.3825154274528906,3.649391744270114,3.0781365569310775,7.961520935054605,4.78677974779116,12.019675924618198
1570181194412530.0,13.029951760880655,10.010729974083294,2.3335873554729836,3.5631944191874303,3.0051745511808594,7.778646673412213,4.737630270149624,12.311171207269469
1570181194412724.0,12.596542424575038,9.489690319118315,2.2874909344488783,3.4147077936898165,2.9305025047433935,7.59113824161894,4.681199798600762,12.389530488148566
1570181194412724.0,12.190490809849553,9.160953840767759,2.2514718263115046,3.335373614023908,2.8675221185173805,7.409971472985121,4.647634619101442,12.668529110382481
1570181194419894.0,11.784757366610668,8.680360603783187,2.216066778020993,3.197270030428497,2.792387244115174,7.230480870283191,4.604784505456991,12.740890213654744
1570181194419894.0,11.4080982499133,8.381577342238717,2.1876945588912813,3.127662179821464,2.7165360135356105,7.0726155562009225,4.564341577417561,12.988650857362643
1570181194426815.0,11.037996531618775,7.9405861520473975,2.16146860143548,3.0069884089464267,2.629747173222561,6.915646055518658,4.486532300860673,13.04463735258688
1570181194426815.0,10.708479418605757,7.67156314496321,2.148278585556648,2.9520425272642616,2.5560165946995186,6.7636134166001805,4.416348648451494,13.281936890400074
1570181194434712.0,10.409855009583202,7.274709547100468,2.138565072575178,2.850595344949288,2.47975588569076,6.599078142818412,4.338182661944089,13.36393456489452
1570181194434712.0,10.143625835629491,7.037779507776059,2.1387917729233092,2.8037993013837754,2.4176577926543232,6.441640596277753,4.283885859552966,13.599628419522
1570181194448719.0,9.908110882770648,6.6931464163857965,2.1390133710631223,2.7074250805626936,2.353442879455034,6.287217175995246,4.223253949289082,13.684862558085163
1570181194448719.0,9.696411809247248,6.491617262042464,2.1447222727932713,2.6613118341619724,2.2959385276168778,6.161925040159817,4.180639364842492,13.910476450694947
1570181194463583.0,9.521448305016198,6.198102141574878,2.149410921370347,2.57593812807668,2.233024440606605,6.0464509217623,4.124658491344936,13.986396791075776
1570181194463583.0,9.358300010369286,6.025874971300668,2.1646131131353417,2.5385269370430033,2.1748357380423387,5.943945957553307,4.0804736939690125,14.133856054190927
1570181194480543.0,9.232658932934706,5.781587384407712,2.1801243003341773,2.4667929762317713,2.11328395507324,5.823479920467401,4.017000357495724,14.104541123998649
1570181194480543.0,9.113637852544203,5.636877590808441,2.202361417719724,2.4356203593660464,2.0593386182624465,5.693440599164494,3.95591216546414,14.177469300840198
1570181194481538.0,9.044487071554173,5.447120811977567,2.2239730185948927,2.374798141145926,2.0101601074011817,5.552795991715334,3.880718725743491,14.156590040696065
1570181194481538.0,8.973384553228842,5.338736987705861,2.251911591383677,2.3526313216283516,1.9653032304442462,5.428979111694411,3.826053421206843,14.229859690714644
1570181194494559.0,8.94328702217358,5.212801265617016,2.2765868938041134,2.311242835342574,1.921436355000629,5.301682997804565,3.7704459326275837,14.180894821531009
1570181194494559.0,8.888762520778464,5.1456526109068195,2.303836282058351,2.304197438445886,1.8793611361833293,5.175989546104533,3.728947850770733,14.19458868532827
1570181194503481.0,8.852363954271095,5.077482275039917,2.3207435957538984,2.2801235646292124,1.8457369811959328,5.032463169931854,3.6786421776430593,14.095655159260255
1570181194503481.0,8.74797376932989,5.027898183621425,2.3332670164375147,2.2763930414718647,1.8110112857793021,4.886143101670413,3.6377673547976572,14.000709507145764
1570181194517747.0,8.628441826981303,4.988799258635479,2.3368064118634706,2.2459191370186535,1.7853652286949844,4.73130247892473,3.5827594397711717,13.74420684091805
1570181194517747.0,8.448638412706222,4.94832539898255,2.3425245736519495,2.2268346886990646,1.756794101101083,4.59108834304976,3.530790226836786,13.503301426082599
1570181194524550.0,8.300600591686326,4.924149898746205,2.3472992426167765,2.1875758483253773,1.739667891283418,4.452845910561501,3.4693559848361395,13.21625399437703
1570181194524550.0,8.138003919550131,4.876416277686118,2.3591010689726026,2.163061576212698,1.7148464435270565,4.324545976049199,3.4153950736114917,13.027099022502538
1570181194540415.0,8.024030515644174,4.87809295007152,2.371182034999941,2.1209565665733194,1.7044285646519282,4.194530148439685,3.356295931542195,12.813104989190524
1570181194540415.0,7.893645325086585,4.851259844879585,2.3935183501212576,2.09296597086339,1.6867523832451095,4.075553602360014,3.3060150415437657,12.674760190381024
1570181194542381.0,7.826766558039767,4.8881459529885465,2.419116050284575,2.059001043153169,1.6872582704435808,3.9622387902080125,3.2576203054576385,12.496757053694521
1570181194542381.0,7.745753405308747,4.881285323832938,2.4537311192126348,2.0418576901053584,1.6751893893709535,3.862392393054683,3.2214922109486066,12.395591752928393
1570181194554533.0,7.742719285482118,4.9609538094343995,2.48871935239849,2.026087702133478,1.6816482837738287,3.771364719924021,3.194124799439211,12.277427315103969
1570181194554533.0,7.720337824073935,4.984408103995606,2.5310499653564342,2.0198907026501116,1.6733625257113003,3.6947699980878954,3.1790546596034943,12.228054648328046
1570181194563448.0,7.76502468190942,5.107846004620696,2.5727556322459058,2.014388247390359,1.6857898129968827,3.6292432855683794,3.1751894874671733,12.143982589169037
1570181194563448.0,7.763920659315114,5.1622861577151085,2.6193899361823556,2.0120162385210825,1.683517345670227,3.578710468999963,3.1778755694816314,12.120251188058015
1570181194577659.0,7.827570794613633,5.3258838900453025,2.6618435381780308,2.013166382081584,1.7044575260400714,3.5450534039488053,3.185285946910332,12.052507879478357
1570181194577659.0,7.844983309154435,5.405735305157056,2.706386365351495,2.0137318218927067,1.7066631192219588,3.521976781919058,3.194068361648401,12.019724345422262
1570181194585299.0,7.9183527239186775,5.597788061603987,2.750820961939582,2.0257009188593122,1.7305539488111945,3.5115540128995666,3.2115506891350694,11.958833585309163
1570181194585299.0,7.931356950385417,5.697671904846642,2.8021468262255915,2.0372988592952743,1.7312308739371696,3.5073192531774553,3.2220207193064576,11.962883949275623
1570181194600220.0,7.997698638480109,5.90689475756153,2.850771155574583,2.064451532109111,1.7524434626492014,3.5180526110740726,3.2302794827281387,11.90283415871981
1570181194600220.0,7.99136108063478,6.009909505270536,2.9018548879088892,2.0864436665070127,1.7500823886120978,3.529460243255441,3.227322685568626,11.821897675043605
1570181194602217.0,8.046104919581273,6.226655737706137,2.9492564171407136,2.1251929488323884,1.7713355910937612,3.548109772947059,3.2215826556685556,11.649371424358504
1570181194602217.0,8.053668715295442,6.348552941264082,3.0003536880709762,2.154671972068767,1.771548323165241,3.567734389559828,3.2045540927363345,11.478079712809654
1570181194614703.0,8.133581971489663,6.592059310211245,3.047331742447115,2.1955967340254463,1.7972648343332391,3.6017781161595837,3.201460710753586,11.267492462631099
1570181194614703.0,8.15607839780007,6.742022360557598,3.095110816843447,2.2178113638146373,1.7961491622762311,3.622024183286858,3.200159753848041,11.103112923127915
1570181194623225.0,8.243281157914891,7.011809583120377,3.1413655324812475,2.250114689372781,1.8172540631570704,3.6253570060663556,3.2130769024704273,10.927748326220698
1570181194623225.0,8.280627112691363,7.1869590652092645,3.19575964005213,2.2673191793398746,1.8179661474702546,3.607588498299836,3.2243996746290415,10.820898689042036
1570181194638122.0,8.3949497812228,7.473846380322363,3.249733837701773,2.2942969399873996,1.8500116831059894,3.603001681328503,3.253149907300296,10.706003694758195
1570181194638122.0,8.444208961820438,7.661833688560762,3.3068559538645195,2.3030135956048943,1.8617418556805758,3.600739866249648,3.278154950713499,10.64647315724002
1570181194639337.0,8.551606033242336,7.94606141628801,3.366530962921231,2.3211434321992446,1.901448663305277,3.615202746595217,3.3196742371022685,10.577015699771017
1570181194639337.0,8.597728163415136,8.12173310583985,3.436479510828248,2.326002545525531,1.9143305644782957,3.629179964933206,3.3573619517387168,10.571044022088746
1570181194660280.0,8.705748254340408,8.364431013371568,3.508442442527618,2.3427537234072706,1.9514278535067147,3.6530125100931596,3.414538874162961,10.551726330603952
1570181194660280.0,8.7491738657587,8.498986832485738,3.584263046606882,2.345532531259956,1.96020118470446,3.664995684491609,3.4631864938750767,10.595937843287572
1570181194662054.0,8.851061942176264,8.685387191810635,3.6583800459049165,2.362621673481684,1.9964828868522275,3.688526133117542,3.5269426844267895,10.623177505918305
1570181194662054.0,8.88362375622756,8.76768122440631,3.7338915137728375,2.369510062465186,2.0098607648865507,3.7104644528944424,3.581214824202526,10.708623826069626
1570181194674030.0,8.981491797788587,8.899891494981262,3.8026264106000864,2.391543039450839,2.0533595814158656,3.745914730455738,3.6536378399178657,10.774056283591685
1570181194674030.0,9.020942655808847,8.928187187956782,3.868309188584713,2.405142099523115,2.0730507551036994,3.7655962187708307,3.7151394809655836,10.883449815536206
1570181194682999.0,9.116977877929482,8.981774823192458,3.92751057221576,2.436237288750208,2.122637597861039,3.7865716634093314,3.7778151553838413,10.922817431986239
1570181194682999.0,9.151467529768722,8.973362373159617,3.982462234060411,2.4558477665802125,2.148922704596411,3.7965375352660513,3.8118838941037887,10.983392077934804
1570181194697955.0,9.241153513984752,9.015584225315138,4.028117194446777,2.4855216616065956,2.2049152070596265,3.8218412133305586,3.8620541110152415,11.016458973514656
1570181194697955.0,9.271871350877689,9.00144377582182,4.070662691650004,2.501296040543642,2.232935509675918,3.8409999813952203,3.9089803514294794,11.108854097557797
1570181194699956.0,9.357877561982928,9.005807341468987,4.1028738749172415,2.5284222431467427,2.2877421862203007,3.8748493037317187,3.972560613894559,11.181398684132093
1570181194699956.0,9.359115240743302,8.935274026986871,4.112648461238159,2.5369725101836007,2.3201268857102075,3.902251486861267,4.022116899778254,11.311001275042058
1570181194720967.0,9.394331507122617,8.855664384131096,4.080096483554592,2.5386878861390527,2.385016515567698,3.944462567138793,4.085025369984329,11.406996395457293
1570181194720967.0,9.367873409667455,8.702833127856346,4.0144569325743324,2.5199112804396195,2.425215203829911,3.974951230906908,4.137631937877417,11.553967988821187
1570181194721894.0,9.407289001926447,8.55346234069736,3.9363625841415986,2.505040118225785,2.494111017657467,4.00939811724386,4.202722895173846,11.662861872801221
1570181194721894.0,9.404784981057874,8.380025854758895,3.8615956561318066,2.4803763552549527,2.540266321359379,4.028414318173615,4.244573748290081,11.81026279872168
1570181194734044.0,9.473637107134765,8.232558372673234,3.789497262143643,2.467492960502525,2.6160226485500795,4.063948889765297,4.2825782780679615,11.922556454711582
1570181194734044.0,9.504561607511548,8.081372626825875,3.7259727119296975,2.4529910616613333,2.664153118527586,4.091166965856633,4.299769778390571,12.099222306665204
1570181194742877.0,9.604353129856595,7.968640896789355,3.673187123126613,2.450997361393698,2.7348311777192955,4.126778723849492,4.332332214382235,12.256674294360497
1570181194742877.0,9.656043412641557,7.854474140337748,3.6277612113069724,2.441465514437481,2.779550969914529,4.153045935804605,4.363366285490085,12.46061147103551
1570181194757986.0,9.781143168472594,7.778077998585279,3.584525762122197,2.4388105879098188,2.854510483277237,4.2030548327234865,4.418351712498898,12.630278133265548
1570181194757986.0,9.854370743369754,7.696543329422474,3.5516265198595773,2.4309872365639604,2.906389823617635,4.256212296795633,4.4706596204725715,12.834166443944058
1570181194759793.0,9.979285522499945,7.64102456313248,3.5291643703272784,2.433387048314223,2.980764426642526,4.334081660446226,4.537058164529411,12.995339389959355
1570181194759793.0,10.043544583533691,7.560130901451099,3.5070831675449248,2.423821183566486,3.02503201483884,4.407524634879442,4.591304233497273,13.19969760698017
1570181194780790.0,10.159380838401496,7.484471955598947,3.4769454436603735,2.417075732815079,3.090794146622373,4.5012625926771275,4.660436454589547,13.364928577414371
1570181194780790.0,10.220542018832973,7.393966617729014,3.4529420236139448,2.398385881182301,3.128694242853317,4.589466096130986,4.713418309259531,13.547836844733881
1570181194781984.0,10.320019793082563,7.344479845110869,3.4393407628612827,2.3850983030080637,3.1896659256156457,4.697672390193281,4.75221398710431,13.628858163585646
1570181194781984.0,10.338232112205244,7.298868755341548,3.4314697940391667,2.365077437870579,3.2285776220223585,4.803307833620316,4.756164944912894,13.659037409889637
1570181194793738.0,10.421074868111365,7.30403525593182,3.426560673782195,2.3565750632500038,3.2923276993271866,4.930921302019082,4.77238664407891,13.65493459769268
1570181194793738.0,10.472382333857787,7.308556625453978,3.4301089493852337,2.3411909885859554,3.3327415878300632,5.04975518648029,4.789294183408079,13.71681116190326
1570181194802704.0,10.572453352858178,7.350480910099132,3.438784713641353,2.3382533449171663,3.4000220514344153,5.18180305510335,4.819128483787793,13.718274886234811
1570181194802704.0,10.608375088389408,7.367512942160673,3.450871408426073,2.330380519578205,3.449567249110228,5.302757292057328,4.8376162114911,13.698473321072143
1570181194818636.0,10.718829863600984,7.409469344625348,3.459841102614699,2.3362721239088,3.5251439672893943,5.442852570355442,4.875790436254165,13.670740023486013
1570181194818636.0,10.807597457788038,7.420974167496551,3.4677721846264116,2.332844531127504,3.577703997537219,5.579338856888218,4.918820281397719,13.70156936795633
1570181194819637.0,10.976346629865063,7.451035854426707,3.4794388465751043,2.34254098521359,3.6535573437831372,5.737498877566298,4.983494098394268,13.70274253841749
1570181194819637.0,11.114319593753333,7.4466931995449,3.4992258643856395,2.341343412183872,3.7102464261058308,5.888905605468109,5.045737502691437,13.751328245663473
1570181194840793.0,11.330466515961533,7.47681305194157,3.5229444280092586,2.3564304239611316,3.791961035364394,6.056489069589623,5.1280756007911155,13.816888173572371
1570181194840793.0,11.5088544087294,7.493938895512597,3.54944241259351,2.365864338697703,3.8512065607733943,6.214752078050812,5.208589930287494,13.954908194951772
1570181194842203.0,11.75173161334639,7.551080743503552,3.5770618187808125,2.3974911229576583,3.931504887736571,6.388297480466273,5.3106961076229915,14.105638622416206
1570181194842203.0,11.950008827721938,7.581644371882692,3.6049339239311307,2.4188636047808436,3.991950678038571,6.547253579735685,5.411828748722824,14.306909227840745
1570181194854542.0,12.207943850394186,7.6402424101151665,3.627866377621633,2.4549965814521495,4.0754165435247875,6.714529451322119,5.5289927009907816,14.491835383926803
1570181194854542.0,12.404817263711847,7.670404117316773,3.6539419400059097,2.4778785359039266,4.13900625779757,6.871413001326769,5.639284679680635,14.71181828402782
1570181194863512.0,12.644504758197067,7.728474809618095,3.6832404565601267,2.521388236772688,4.22560999288142,7.045879423976174,5.762008135610059,14.911862542284714
1570181194863512.0,12.821109550257422,7.753965082768705,3.7111312689720526,2.5539973086287038,4.2911880332860335,7.21462471083165,5.876354842956181,15.15121000525063
1570181194878150.0,13.040470999274646,7.782047677645605,3.7269371943442127,2.6067239106760556,4.379184916697247,7.401457682975997,6.00506199126366,15.368795109256968
1570181194878150.0,13.217404447462323,7.755698483476299,3.7306717348558363,2.645710749361127,4.452878053605616,7.579781299541547,6.123685977768929,15.603649937203928
1570181194879548.0,13.45555440495386,7.762190289621617,3.734312003045119,2.705431818030712,4.552262292757355,7.7719116037179585,6.2271618471113905,15.769004938101274
1570181194879548.0,13.650119028561493,7.7561327033385306,3.749999863044465,2.752303994562588,4.636973335771912,7.956794678188499,6.2865930892363515,15.87613647928693
1570181194900627.0,13.903481087151782,7.784732587420627,3.7748170298549373,2.8171819959872195,4.747301881634693,8.158695513841296,6.331649915884809,15.921510184490748
1570181194900627.0,14.101480533197275,7.800875626223723,3.802458974727555,2.8624369273649357,4.841484035374745,8.35392230382998,6.3599213806475925,15.96517532586091
1570181194902473.0,14.340709533732674,7.869536327527526,3.8231352383380828,2.9176021487733186,4.955795773475525,8.56522276910996,6.399439593279565,15.97246158175889
1570181194902473.0,14.548011884381228,7.9257201105331925,3.835766474115874,2.9518583110932166,5.049501769708114,8.7700453658867,6.439960531352368,16.020504795519933
1570181194923542.0,14.817217823197185,8.018481312208264,3.833985560599824,2.997053450131804,5.163771432360881,8.98771872334184,6.495803010421307,16.052141777478074
1570181194923542.0,15.031648883851465,8.07990966515535,3.8178398256636523,3.020813129880059,5.2640435345721945,9.19400173758696,6.55084121775021,16.06591173761235
1570181194924743.0,15.268902271022407,8.166610249351672,3.8014845918829647,3.060936182567273,5.386042224372664,9.412720525468336,6.6100128194145125,16.077084543724748
1570181194924743.0,15.448108429781882,8.21582505593287,3.799524005444377,3.091088663737537,5.491629728098311,9.625226706099797,6.660029264756472,16.145507528155445
1570181194938353.0,15.677113309948995,8.296386320305421,3.8063885976293927,3.1328394240104434,5.613257858955956,9.847718031478633,6.718554309683669,16.202073521441676
1570181194938353.0,15.882699019714973,8.3522203731994,3.8176331198228617,3.1517382929050353,5.712095663922716,10.045520926333364,6.769110383863816,16.26188254615934
1570181194939457.0,16.16010983202237,8.457499016926612,3.834900898863316,3.1797143085356825,5.81933080477707,10.233081659274085,6.814064952886795,16.322757070093807
1570181194939457.0,16.407524819522834,8.555816667444303,3.8548836105236983,3.190484675170534,5.89814159192821,10.40340394191835,6.848176340945432,16.39623300986248
1570181194960302.0,16.696205426527868,8.697293328751439,3.869717455587246,3.2131294946629265,5.9869637155766,10.588512025044784,6.884400827707168,16.426342204702287
1570181194960302.0,16.952277937724766,8.803049999676638,3.8843756795096422,3.2258698567631,6.059886618167056,10.77397130569371,6.914828887779506,16.47315542808201
1570181194962249.0,17.244335502054497,8.944292842497061,3.9006943496471203,3.254665403033396,6.156707922034759,10.966881219615471,6.921886345415947,16.52719276084668
1570181194962249.0,17.482760796419175,9.063959228857899,3.9221904036900406,3.2768369871332808,6.250161448851669,11.137323696531393,6.879789949043138,16.59751237441736
1570181194983299.0,17.778480289937328,9.227874323679666,3.950608797754044,3.3213816142796224,6.370032575924206,11.32195465716797,6.831506008077312,16.64864282032332
1570181194983299.0,18.067140597783023,9.371288163763088,3.9909080666286365,3.359945825212108,6.4787247543973905,11.520161972348138,6.801350131008059,16.692638967938695
1570181194984494.0,18.4122938994032,9.563985174248282,4.044425993383139,3.417828828660429,6.6058945279962735,11.747287495690427,6.7930624752176385,16.73193113949759
1570181194984494.0,18.747567211593335,9.7494075242479,4.110742892763222,3.4673903322382356,6.726304282012349,11.983535211571816,6.796521057037429,16.797233104743277
1570181194997357.0,19.15828859190006,9.989937966007687,4.1853679169958715,3.5354782112338996,6.874327725555397,12.245134117677566,6.813702286691433,16.84905719990768
1570181194997357.0,19.57274483041459,10.216506588232907,4.264140525449385,3.5967793069001583,7.018431652513468,12.51397507553956,6.839311321971709,16.916999566229443
1570181195005212.0,20.057693163580804,10.49086071856991,4.332823799986798,3.6716055496849025,7.180584892434827,12.809478761228094,6.874190344601178,17.015265691388805
1570181195005212.0,20.536310026458285,10.743262081927508,4.38283346990425,3.7313095996206656,7.33325069993534,13.113299323099048,6.911047216231585,17.1696973980621
1570181195020132.0,21.07270055363642,11.042929685514878,4.419531167292221,3.8061331988558287,7.513085352224966,13.432960001944473,6.9591340065058525,17.348120517439032
1570181195020132.0,21.59473255993842,11.328587473157125,4.457397597366664,3.8700044406405785,7.692293502904282,13.747318840258224,7.020508248988328,17.56188929799562
1570181195022091.0,22.146835083617226,11.640128343710057,4.497156480957224,3.9411513493665375,7.893441817045447,14.080070712969293,7.1028230595158135,17.792091961390586
1570181195022091.0,22.6679403525514,11.921145400861468,4.532342672255744,3.997877057575648,8.088621417192021,14.423028257097766,7.191783384142023,18.038470230292894
1570181195043038.0,23.245853513171888,12.241870909280635,4.567500237896773,4.071848577062237,8.301280577629486,14.786621416864232,7.275628888463797,18.244524152400178
1570181195043038.0,23.829203045039215,12.565444747742271,4.616644872439552,4.144071522188231,8.505794216542126,15.158012605372107,7.338469423416181,18.411667509129742
1570181195045028.0,24.455720073529665,12.943761788269887,4.677432662496226,4.233567999759868,8.73261827931333,15.559041301492545,7.390161636331119,18.571066199715936
1570181195045028.0,25.065943871712904,13.325472112648736,4.74614281314579,4.317931194466957,8.961219496128626,15.977287841884724,7.451323237508541,18.766988611470172
1570181195065803.0,25.68953039836609,13.732292723986786,4.827198230334568,4.422103896510082,9.214104746775742,16.428135779692866,7.535800757502466,18.98457069104659
1570181195065803.0,26.25522734685167,14.119318096526518,4.9226707145761734,4.525950385577763,9.467369987654262,16.899590749072882,7.637321411312499,19.221717342278772
1570181195066976.0,26.746835567463137,14.498190388335617,5.021318832455711,4.64518102909074,9.742048052870592,17.401159107610635,7.754890240714108,19.46460834562047
1570181195066976.0,27.06241391712324,14.794804509092415,5.117918821263396,4.764151597415009,10.015704412631163,17.917620754952853,7.884735277554928,19.722313514516024
1570181195080934.0,27.24223169614185,14.998124230571378,5.211142406852816,4.897646235852986,10.300651471607608,18.454846989963038,8.032619301833972,19.966258564819988
1570181195080934.0,27.351352449570065,15.144644033735588,5.299407404759508,5.025455773201123,10.580016687205946,18.961757096471477,8.194615147975519,20.189842701016847
1570181195081976.0,27.451744913413897,15.292058748939658,5.391207762142111,5.166515228341139,10.882653695247807,19.41084049138103,8.361880437491262,20.412917828994775
1570181195081976.0,27.506018818481625,15.437368866109496,5.483705368380666,5.307228257438043,11.182404423377209,19.8111652393147,8.535028912182225,20.6490672599895
1570181195118928.0,27.476224727812614,15.494987030229241,5.560387644671446,5.450036488484074,11.465144788963924,20.15715079821325,8.720105424545858,20.906039652187943
1570181195118928.0,27.355214373507675,15.490032989983744,5.6316540293607105,5.588367111382042,11.718359831936361,20.411347152148622,8.889998411232474,21.170196524700646
1570181195120824.0,27.17071439422568,15.427187829341902,5.683635523226259,5.707726851713725,11.91933806960325,20.552148401522537,8.98060935249998,21.343994222492338
1570181195120824.0,26.90663014735338,15.309502627195355,5.680010211356824,5.751410965734913,11.949948195484039,20.508229966473017,8.966424044141407,21.343994569521804
1570181195121823.0,26.551120172512963,15.095012754922097,5.6316006578239755,5.712180306256238,11.815833810120676,20.331539175688633,8.886286523536395,21.272367226586717
1570181195121823.0,26.153526980745458,14.86981449507765,5.5648397371819645,5.641713911067598,11.62965621612073,20.143790219992045,8.790171015278492,21.220062071839664
1570181195125814.0,25.69002112864404,14.587647730180272,5.495678661838956,5.570163496903627,11.455203043608826,19.957048942200053,8.680148184143842,21.19255482364707
1570181195125814.0,25.18267834421758,14.325324947028198,5.427496357624747,5.507173119085057,11.27283338631673,19.711512566277147,8.580025908312578,21.130415026181506
1570181195155733.0,24.614331715110804,14.023597062745067,5.354067548406613,5.429564176241636,11.068553819550337,19.40392799916478,8.490448542523575,21.04982009884775
1570181195155733.0,24.043019182182558,13.764643776544808,5.277685486826983,5.35608059136745,10.88056437495803,19.091068333097436,8.412384923164472,20.941153199445132
1570181195156732.0,23.485095668352635,13.490706290517327,5.203746380949396,5.282062823087177,10.727163777559227,18.800069703143077,8.32876183490037,20.846101248032696
1570181195156732.0,22.98204741988502,13.282761370151237,5.131585164104907,5.225739666688034,10.58785964874623,18.5098908242252,8.25556629612295,20.763781421670704
1570181195162718.0,22.46240353211228,13.040920517606315,5.059354545889435,5.163712583717643,10.443701122654021,18.191044104591157,8.180317925409469,20.69054787509552
1570181195162718.0,21.936041230610027,12.82799973689671,4.98108555871404,5.105834276392817,10.292405407827372,17.835289025725206,8.098876947586582,20.546421937656447
1570181195164710.0,21.36241583291053,12.554025629963737,4.897730559915262,5.0260823929756215,10.12055806276599,17.476729527770136,7.994688464022471,20.377100205766663
1570181195164710.0,20.81644294423042,12.322946753723668,4.810093411578383,4.950238293785946,9.951048717983243,17.157860727735645,7.900454884339813,20.20629032398954
1570181195177675.0,20.277001940921096,12.043481129548862,4.719516837662612,4.86372732740091,9.795186475547125,16.88304146638632,7.818168767294906,20.065029540667076
1570181195177675.0,19.79791419680976,11.808476495508458,4.631132754906892,4.798422678315988,9.667508220074692,16.662791516549845,7.757932094763719,19.8909720739527
1570181195183658.0,19.329512165202118,11.527854705179186,4.553535957883525,4.7312894368346186,9.552351783571753,16.48246076023724,7.693066630149175,19.73065421067477
1570181195183658.0,18.920915400412035,11.303161271741471,4.484755819511402,4.679421127471142,9.435712525915164,16.309275828225392,7.630307138675917,19.558326023509355
1570181195200669.0,18.528628556585925,11.041620305201546,4.422293742067997,4.614612108830294,9.302831922480127,16.123287341932997,7.568681336460712,19.43506625107854
1570181195200669.0,18.19396159790534,10.848789520848976,4.36414337605443,4.571687944049902,9.190529633184168,15.95759132634844,7.527184353197222,19.358749182051703
1570181195201968.0,17.834706430675244,10.610368144383946,4.30730663928409,4.524991608741064,9.08629076368487,15.804664295100794,7.467007040170847,19.352738067111392
1570181195201968.0,17.501643109762245,10.423678254500473,4.243438095792386,4.488234562244154,8.965159864715844,15.643476224201905,7.392901851402471,19.3395688221854
1570181195230532.0,17.15970407064814,10.186767589878947,4.175328877936322,4.420358073612847,8.80221009980808,15.48505951217951,7.308991532253286,19.33676306827759
1570181195230532.0,16.864076496829323,10.009243732777497,4.10887649336832,4.355071295110302,8.638687439867137,15.349137872205223,7.247395132524195,19.262889818993084
1570181195232526.0,16.54266503502099,9.79107436421155,4.051598828673916,4.2736722591075065,8.479271428826426,15.228528940043118,7.1908001864949425,19.134899028952002
1570181195232526.0,16.235600577557058,9.639713300064995,4.004488420251791,4.213294046710003,8.340521335255334,15.131616396842555,7.138136828202966,18.909730711806795
1570181195237516.0,15.895541927108882,9.447775556038543,3.959471066412761,4.142715324478767,8.196398400282177,14.995510777598383,7.055420036984344,18.650220759584634
1570181195237516.0,15.58725797183317,9.320690925268261,3.907527511928066,4.0863012549060125,8.049084849740426,14.771369126403984,6.959343731562348,18.340516179869315
1570181195244497.0,15.26134324629532,9.15370470152607,3.8555529045104246,4.012984939730454,7.879853232167086,14.48570998451237,6.847071696795874,18.05315001764243
1570181195244497.0,14.982688791179537,9.053602291257437,3.806118970993671,3.959970030804059,7.713799961329385,14.20961336278669,6.74533698950517,17.730071720106885
1570181195260451.0,14.666426482925413,8.894181383333823,3.761702940117402,3.8931746680111745,7.541576331055836,13.94451427682628,6.6365062142752045,17.423610823685
1570181195260451.0,14.337705790624694,8.763887069395796,3.7218309310850657,3.841234597980443,7.378430876558241,13.677148997523462,6.537915651339378,17.091079892579334
1570181195262448.0,13.956652917385044,8.55758101548085,3.686493959165987,3.7719572945936135,7.20593326686874,13.395011633088515,6.432344636630992,16.797760253973255
1570181195262448.0,13.619047758616064,8.398264835030556,3.6562758477839696,3.7190163006397587,7.047749945579509,13.120637652439742,6.339575372448101,16.505776527694152
1570181195283391.0,13.272990384334472,8.179226706877172,3.6339075299532193,3.652277877419153,6.887767826389128,12.848333532682739,6.242984677949811,16.272942788547915
1570181195283391.0,12.97334867520302,8.014120814135504,3.6187930068526413,3.606836271083209,6.7428903107502345,12.575037770303028,6.1587137844859114,16.031337859767692
1570181195284439.0,12.645045671086622,7.792327644704018,3.6124121362276176,3.5496376085772363,6.592943244198431,12.283795759063693,6.068205621644434,15.832219799666081
1570181195284439.0,12.336450613162759,7.623990082773789,3.614339838684397,3.5144779177916585,6.458969673315787,11.995928016361873,5.993098724803419,15.622014081791457
1570181195297354.0,11.976818397454734,7.395861876151879,3.6242153785365607,3.4697868356508277,6.326476826245412,11.71438463390104,5.919012974760919,15.433124398053907
1570181195297354.0,11.638293009456447,7.224397874436864,3.63970411155162,3.445339259734193,6.218022815132876,11.453133074495454,5.864072412429438,15.197910955930444
1570181195304335.0,11.277525778092214,7.0026934072057365,3.6648607162850833,3.4086220572950605,6.115160543994833,11.197846232457618,5.803616277351478,14.977644640319683
1570181195304335.0,10.960224953675647,6.845050647578033,3.7007801148690023,3.390884099063878,6.0283623682372465,10.961725839048531,5.746661280452266,14.69420607352001
1570181195320292.0,10.620768486560516,6.641309931901325,3.7427969900865565,3.356325193015952,5.93371070380492,10.740400575335629,5.682368566252243,14.402711982414274
1570181195320292.0,10.314089037250842,6.501505739170408,3.7873011068045477,3.3365204765668324,5.851418601456596,10.530036582545149,5.631714755898505,14.070272564830464
1570181195322287.0,9.978137099617411,6.3087015655130205,3.828731481834234,3.297665229433168,5.7661421116124485,10.301778389905175,5.570798218095775,13.773660076042606
1570181195322287.0,9.675020984316268,6.17228525415912,3.8471114784006883,3.2680945473511978,5.695167951058288,10.068614381625947,5.519410880925716,13.44807891834421
1570181195343231.0,9.34357223016355,5.983848804767309,3.8438418754704236,3.2199865892326947,5.613110490494674,9.822814564462325,5.4629410341675015,13.15144927830065
1570181195343231.0,9.045915875363509,5.851853452024274,3.8366936782553176,3.190688940484104,5.536089466561365,9.57651586021742,5.417655631886508,12.826069732176764
1570181195344621.0,8.72599895925704,5.669580078231866,3.8314672336373916,3.1500869928409574,5.4503059410759125,9.329519126347131,5.368284457832911,12.538028080388225
1570181195344621.0,8.441294693601854,5.54365411126399,3.8214338211096006,3.130911465223056,5.3790281185625854,9.098668117651235,5.335361805054822,12.232729421920133
1570181195357216.0,8.135956776178327,5.37151592093628,3.807528748557402,3.1021662880290317,5.305998867334359,8.87029474191109,5.294072660010055,11.97065948430193
1570181195357216.0,7.872904484535342,5.259586604974044,3.7883675074492937,3.0948611772901953,5.249180765525946,8.653431008659238,5.246020411420899,11.682016760395987
1570181195364214.0,7.601635057273145,5.1056732718040605,3.76567568326998,3.0779908075862648,5.186596414944745,8.439860384676921,5.178133853371945,11.421832087035938
1570181195364214.0,7.377064297119095,5.014288626682101,3.7416098989832154,3.077336315463634,5.135869953931474,8.239511842478239,5.118190149030354,11.134295833863238
1570181195379171.0,7.1470718755376685,4.888317316207191,3.71526180327721,3.0558384618735395,5.080298525034286,8.038390984395159,5.053453388940394,10.886576442043863
1570181195379171.0,6.966089239159649,4.819518760728556,3.6866071911119924,3.045686427362881,5.03958905055045,7.845868488808617,5.003780336616243,10.621464190250252
1570181195388112.0,6.7898919300987,4.710680708959239,3.661998559309497,3.0232875469514005,4.994400954550588,7.649442755246804,4.9522114897609,10.399046068412604
1570181195388112.0,6.661369846105127,4.658326668979485,3.642341396403582,3.021212123086061,4.966262846793183,7.4635919057870845,4.915805455940661,10.16080173041747
1570181195403159.0,6.535537787658318,4.57143715816761,3.6304833236450107,3.007490158854536,4.939593096671986,7.282848800085572,4.882256232385942,9.969362676858267
1570181195403159.0,6.447369569143544,4.53217221563527,3.626646113205455,3.010945673693325,4.926083484675327,7.118257725743306,4.869033140903279,9.764491586773389
1570181195404075.0,6.352210989688207,4.454578230292498,3.631009161311965,2.9985616674758164,4.901083760252712,6.957704642379258,4.858205100877555,9.59026197847917
1570181195404075.0,6.28859036768843,4.4260085909630495,3.6421149712231378,2.9981956766482787,4.875528867550314,6.805950549347369,4.8552362200682,9.379106644238748
1570181195426018.0,6.230201264332817,4.368285544611345,3.659662759245428,2.97871577583034,4.827388048043524,6.656079281791535,4.831031629337928,9.194583833670604
1570181195426018.0,6.205499722462831,4.358341631029221,3.675590776991342,2.9691871505108005,4.780466468699282,6.51869691721561,4.799621952067385,8.979062012176229
1570181195427011.0,6.188162628257075,4.321100407453841,3.688126898568296,2.940035476061783,4.717910208231124,6.378879564236473,4.754630489100026,8.787576267927705
1570181195427011.0,6.2041423796275215,4.329743159274661,3.7012748681925975,2.9202626056920193,4.658441067743334,6.246694419383057,4.714914715049611,8.565165551224055
1570181195448125.0,6.228188222514436,4.309372525755482,3.7193556506238834,2.8763144952420103,4.586089353507272,6.107292285905626,4.662182329627614,8.37209991726542
1570181195448125.0,6.269534568427529,4.321583581068805,3.7427303509289502,2.845077808649486,4.519461575364413,5.972597119587721,4.617728544511857,8.158095523950625
1570181195449950.0,6.322916829310698,4.30543294825688,3.7714892260353103,2.7977231254807595,4.438629455633393,5.842044739221659,4.576816018691412,7.9824716149902155
1570181195449950.0,6.411259404622032,4.327617245295391,3.8008603026386334,2.766590668715357,4.366438364982787,5.7259465786896335,4.553578458114563,7.791082047167245
1570181195462950.0,6.526172500033789,4.329827385745592,3.8252898464906835,2.7228949216490212,4.285816042599952,5.617620986793037,4.527430131252487,7.637517571888101
1570181195462950.0,6.667829449879076,4.368924546067302,3.8382407953129856,2.699786199421519,4.215053645833618,5.526910135887091,4.510064671329489,7.469541087308949
1570181195464906.0,6.83170325659786,4.384808804649496,3.846179121239798,2.6669351597321556,4.133221245644141,5.448483686017663,4.487519523176372,7.342999803005691
1570181195464906.0,7.020771833676311,4.4304776043228555,3.8478111990252732,2.65304746822319,4.060885697285332,5.395340274039167,4.4776223432168845,7.208760446190249
1570181195486002.0,7.238266774836997,4.462266530763937,3.839576651826429,2.623868258776964,3.979362255781111,5.362658048376755,4.469180932415082,7.11481037561359
1570181195486002.0,7.481602262016307,4.525542861968878,3.8249786766725498,2.613412173605503,3.907131157259702,5.346348547714371,4.477315116757462,7.013774411849626
1570181195487236.0,7.754131714652288,4.567822718753168,3.808285074024497,2.5931632078554525,3.8267518062727954,5.31330020418036,4.493197640173686,6.952880411494955
1570181195487236.0,8.045245211586835,4.636874662102997,3.7896736871323307,2.590677123706663,3.76095816249613,5.264791032967877,4.5290687963590885,6.879216689862879
1570181195508797.0,8.3631464508567,4.699981698442764,3.7692898088423497,2.573058232376989,3.687576286735897,5.212530810927478,4.56320440968286,6.84037776332814
1570181195508797.0,8.699114134335868,4.801837190241236,3.740608267957047,2.5686511246875083,3.6214310247774413,5.173549390768996,4.602061992421713,6.800816301573089
1570181195510089.0,9.04138894007531,4.902175575866241,3.7062098269293853,2.545364162363335,3.5440144596599947,5.144955237644494,4.633764893041637,6.810165007972374
1570181195510089.0,9.330757921347542,5.025233811654276,3.666780942003055,2.5307106390239023,3.477679170871119,5.130538168737485,4.670817172691183,6.823086656496769
1570181195522758.0,9.5563203389046,5.1173113746228385,3.626173513803197,2.49628300167552,3.405997805447095,5.117560125073626,4.703722394103948,6.861770241843887
1570181195522758.0,9.752962868762037,5.21589250095589,3.585443001493668,2.4769396833598285,3.3496087196451065,5.113521633671743,4.74761640740467,6.881899613482054
1570181195528948.0,9.954694546039443,5.295210128575105,3.5482768164788827,2.445162254720456,3.2889890989614723,5.1174527185399254,4.796300694996673,6.932845018224045
1570181195528948.0,10.167374433969998,5.403234951065165,3.513738481024734,2.43185797574305,3.239134556663211,5.135266677705384,4.86050677952877,6.981073883565362
1570181195545795.0,10.371443554887318,5.496351286599779,3.479063248436194,2.402798639007997,3.1773147354263025,5.161546995503935,4.904040278563167,7.039737352788419
1570181195545795.0,10.521559516879314,5.592879998569973,3.439359442845136,2.387254225143894,3.124361865859021,5.197986649338724,4.919912351428603,7.0395088947445865
1570181195546689.0,10.631587557220922,5.642038604658998,3.39536484555886,2.357745933427309,3.0654946313232108,5.2348422292169134,4.898860727847339,7.025528482562235
1570181195546689.0,10.736484874902047,5.690203438250519,3.3448773152977,2.344146608917363,3.0171950179777096,5.269531865867455,4.870728941779504,6.980167319406271
1570181195567848.0,10.837283723520066,5.712101502713488,3.292575906927419,2.318981538350457,2.9598883638749665,5.307106104486531,4.838994278091624,6.942521174237644
1570181195567848.0,10.933406558848656,5.7549281455935155,3.241124834881305,2.3145017221339668,2.914585921918707,5.355562812524093,4.823591078500388,6.878399504726415
1570181195569666.0,11.016908281857491,5.766887208188981,3.1931492443193203,2.2990756708561637,2.865831445625203,5.402964301214167,4.810409986439806,6.827606146541875
1570181195569666.0,11.09012006719006,5.801540137568989,3.146287231899622,2.2927985216150253,2.827841964154747,5.453899132461105,4.8056253190479,6.765624840960026
1570181195581821.0,11.085178918373966,5.78971404694244,3.102521460483733,2.2635923481309836,2.779411397934624,5.51094020501162,4.786738309165602,6.736173809310547
1570181195581821.0,10.981946087047971,5.7638932009810615,3.059421943518213,2.248101590811424,2.7398739617862318,5.568040355632399,4.765737181770259,6.7066139335713855
1570181195590572.0,10.813039181933574,5.686529457491937,3.0191010065656183,2.222278557784321,2.69223451847504,5.616757839201565,4.7340664681779705,6.705766523649756
1570181195590572.0,10.616921981489748,5.625976821789127,2.9809268166776928,2.210133031704433,2.6549802252875354,5.668497077724133,4.709337877171201,6.6891136882631645
1570181195605709.0,10.387423492552502,5.526968890825211,2.942066576168331,2.177241386175025,2.6135790019353204,5.718346688025417,4.6693616321291005,6.680950654347339
1570181195605709.0,10.157596995559098,5.449564496658675,2.8999425825746505,2.1558347117198324,2.5832129158178048,5.749466894572291,4.62507949234853,6.655953118939756
1570181195611518.0,9.912797274525856,5.336059888450073,2.8606728413351266,2.123211768120553,2.544917091869697,5.753333311265673,4.571127126795561,6.66065791893676
1570181195611518.0,9.687623124028176,5.256177529685481,2.824112833379379,2.109676480515338,2.512089530789599,5.747698098063751,4.528455460566852,6.676201133792413
1570181195627623.0,9.463821223789042,5.152789184170155,2.790395699155839,2.0866041905849193,2.4683445778569335,5.747376759226735,4.482985880480205,6.729661157664157
1570181195627623.0,9.26483579437657,5.0859609216002974,2.753809151849473,2.0805629490191873,2.4336708327176626,5.756086623318497,4.445075166814592,6.767882753093929
1570181195629469.0,9.068977518449213,4.985119710731573,2.7141543137360093,2.06259920370233,2.394275279414749,5.766466736318161,4.400459821915444,6.801220391533952
1570181195629469.0,8.891207499620286,4.908068403516253,2.6735741757046463,2.060051445411865,2.3664185330346403,5.78925818281339,4.369404690568217,6.791076799590054
1570181195642653.0,8.711893098871679,4.797638239751373,2.6366505193755083,2.0453922806939313,2.335747585392298,5.83024172869181,4.337529754834774,6.764015664540755
1570181195642653.0,8.548200892095325,4.723001309247579,2.602817792171794,2.0436723325120676,2.314559408381956,5.890392243399459,4.3140216389226795,6.696772808738064
1570181195649412.0,8.36498200845293,4.614115821934757,2.575465255139745,2.0258042485105756,2.2874491235424155,5.9699447805251165,4.28418467440807,6.634860835715608
1570181195649412.0,8.190879071700369,4.528940966494086,2.5490443763913673,2.017801175170645,2.2710836076721237,6.065146141070904,4.266499391849151,6.563757840633407
1570181195665595.0,8.01905749648821,4.404510705977314,2.5193605554239396,1.993882249709165,2.2486141686335555,6.149288826942504,4.239415682760529,6.510804287193327
1570181195665595.0,7.873312318168709,4.308263929012669,2.4865382166710845,1.9823258632542593,2.2298750411193646,6.206410937272594,4.203675932944874,6.438621233822133
1570181195667371.0,7.728953722811159,4.178699477343915,2.455772159965243,1.9585062246952243,2.2041364064023683,6.2488909073663566,4.148221311441802,6.380453405323943
1570181195667371.0,7.603063049082768,4.082835299788375,2.42499522887353,1.9485538375290636,2.1887053593218218,6.29631814626541,4.099031586823974,6.308562511788344
1570181195688493.0,7.471885431743345,3.9577133407342666,2.3935291863399075,1.92584928868529,2.170226827540034,6.353648004473542,4.045192608524192,6.254599129461288
1570181195688493.0,7.344482562315239,3.8649133434070175,2.3573764876907704,1.9175622677064208,2.1593217813337366,6.420860794311467,4.001437703151882,6.188557286103474
1570181195689309.0,7.210871440543768,3.742882951850623,2.3198562173527266,1.8979145741203305,2.1430762298950934,6.498120591419869,3.9508832113274925,6.135465058933323
1570181195689309.0,7.097571601189651,3.6545307298815737,2.282719102418555,1.8909868325206582,2.1372542469624194,6.5892120909027225,3.910400393400379,6.072530842581293
1570181195701647.0,6.995160891236814,3.5418010853058997,2.247364114565631,1.8715711276306384,2.1296916136077506,6.68887021928914,3.8664492870524083,6.031172139540414
1570181195701647.0,6.918099331519073,3.461896217142909,2.212752891974935,1.8665934872716432,2.1264880654846205,6.7931166650081485,3.8255322318160525,5.990267584180674
1570181195710398.0,6.8510463047570065,3.3594921662167847,2.1823341588981418,1.8539261253326027,2.118275911383387,6.907888280617523,3.7730883924292313,5.98065739426417
1570181195710398.0,6.794629264308396,3.2913491018272563,2.1552241355051116,1.8578943190230104,2.118800118040913,7.046057975838948,3.728248972024135,5.967242124183378
1570181195725602.0,6.7393180319998995,3.207669104105877,2.1314324848228985,1.8486494861623894,2.1142936932885648,7.204667800329954,3.6793996042199013,5.959448495108689
1570181195725602.0,6.701307702527217,3.1569416870852502,2.10876176604278,1.8457201452738619,2.1166110197474066,7.3672740192047,3.64465713481866,5.9357773639050935
1570181195727209.0,6.6763701420510175,3.090299173083703,2.089087687026314,1.826543631430612,2.119002345230351,7.520252864520376,3.613394055729714,5.930742748830118
1570181195727209.0,6.665173671716171,3.048984350582466,2.069834749467216,1.8178499610508685,2.1318962469581666,7.67541261499956,3.599195978388887,5.923573206298431
1570181195748151.0,6.670299067301255,2.995459768611323,2.052600173095106,1.7974332923321634,2.1486500086530773,7.849948997775516,3.5904966751353395,5.937551590659931
1570181195748151.0,6.6877349684136895,2.969723620322387,2.0378017419928276,1.7900857725109145,2.1753998497968055,8.037838277909886,3.599923224580985,5.945006337086234
1570181195749540.0,6.712710451365222,2.938765209258811,2.026350126605803,1.774472649346543,2.1916393528690783,8.208325430579277,3.6060645496972334,5.938967223686739
1570181195749540.0,6.749448431348287,2.9322126746865393,2.014625727680927,1.7745898428068276,2.201310026114622,8.335788426982996,3.6228351119453097,5.892427163361145
1570181195762152.0,6.806610444351933,2.9246033735851324,2.0025493244254124,1.76512436096288,2.2002522464160674,8.382040809958351,3.636199086941491,5.850437736823245
1570181195762152.0,6.87484282862504,2.9338682305679695,1.986255715332735,1.7639714181933699,2.198370830177447,8.333211322932769,3.6377599952560153,5.798274238878254
1570181195771088.0,6.9716616177671575,2.945926297577901,1.9678884992299241,1.7494367598257634,2.19175003520168,8.231763632002432,3.6105038430004277,5.756359667307239
1570181195771088.0,7.09353417876833,2.9792626319491724,1.9488796833426234,1.7457014161678275,2.192381820353919,8.12713113994768,3.5802719324648318,5.707463256720675
1570181195785053.0,7.251670926036667,3.0273716956370875,1.9297883141899126,1.7291639795722167,2.191215085832458,8.01564367371802,3.537557366107,5.67150922552769
1570181195785053.0,7.427114069573902,3.09195710476369,1.9102344414600962,1.723355052787819,2.195314550868441,7.893763239175097,3.5003196203609477,5.639146829146071
1570181195787114.0,7.631016476510493,3.1699240123749233,1.8949115291129504,1.7065204886480745,2.195867622420118,7.765669180177031,3.462300401671944,5.634663096298573
1570181195787114.0,7.841166056680778,3.2556187574191524,1.8818118358192082,1.6983772679616758,2.2011273596636824,7.641378957030137,3.433580897606071,5.632718063288959
1570181195808144.0,8.079060913961573,3.356700803132146,1.8682305537020598,1.6784905449239433,2.203324889689171,7.521348912082557,3.397403084354848,5.637253221275041
1570181195808144.0,8.32964862184037,3.462765172986124,1.8528480646894587,1.6693832404362046,2.207641824530468,7.417196656944842,3.364782704658181,5.630075009261997
1570181195810124.0,8.61711349733385,3.5875648599064203,1.8401361403506276,1.6510095525454231,2.210380370880657,7.327100952949673,3.323374457584765,5.637907366015922
1570181195810124.0,8.920560367500972,3.7130680724540923,1.8298635094081275,1.6460848621582538,2.2230807593583046,7.250409715730269,3.2881403665057265,5.656355915771895
1570181195822111.0,9.261665002422776,3.8595571219713123,1.820141055376828,1.633591649466178,2.241063659439229,7.176933086076166,3.249460648925735,5.698676881052283
1570181195822111.0,9.61360944105057,4.007201917830354,1.809365471170673,1.6311081322365262,2.2684016200258608,7.112127814081753,3.2213193056665625,5.75075009174663
1570181195830929.0,9.99397716257552,4.178153702783037,1.7998000675011092,1.6189119094958777,2.296359983580295,7.057729905135636,3.190555078892282,5.8202224350839735
1570181195830929.0,10.375758010787361,4.344358989167236,1.789836143573097,1.6175015446176912,2.329073837129082,7.018143151048593,3.1685553432447477,5.882896676367925
1570181195845888.0,10.785752857659894,4.530760985403497,1.7829704794121555,1.607981680902133,2.3630362559826454,6.981523674465742,3.1450648188729544,5.936276028575571
1570181195845888.0,11.195520561245075,4.71022025402089,1.781567215414351,1.6098314584428404,2.404736720398295,6.950832516940772,3.131956879530757,5.981056249422496
1570181195846885.0,11.60341254276591,4.903038259178443,1.7872457541506752,1.6067005379783261,2.443908865964455,6.918510842597332,3.1154592455161443,6.039518949902676
1570181195846885.0,11.955840972925117,5.073466144748196,1.797754527919537,1.6156011023871588,2.48068544325818,6.8842558493847985,3.1040028282581447,6.094325664939591
1570181195868084.0,12.292306341440232,5.251996680065262,1.8129264003326544,1.6167132549642307,2.5119801305444596,6.853697435067936,3.0884572758517024,6.147979381724433
1570181195868084.0,12.63462823705758,5.425314628333802,1.832022641529929,1.6273054823074866,2.5455439892115157,6.8364570628863275,3.081520986404554,6.197767992790791
1570181195869824.0,13.014527075378444,5.6252586296597515,1.8554320592598939,1.6319894152655223,2.5758454306706335,6.8245282362378505,3.071655150794498,6.2511411932239564
1570181195869824.0,13.398805077878604,5.82576810977981,1.880477236080265,1.647879570572163,2.6060406231479285,6.809754056061034,3.0711701157367752,6.306842245959995
1570181195897746.0,13.789751589150647,6.052076324075772,1.9064088780779396,1.6568597248678572,2.6262472959494385,6.783910479943927,3.0750798246889817,6.376323478701215
1570181195897746.0,14.176058156448734,6.278904274481943,1.9330466680071403,1.6712699054185207,2.64224955869475,6.759879113616351,3.0920353829744096,6.443355460900674
1570181195899742.0,14.594611671197077,6.531228218879319,1.9624802437885966,1.678211804263119,2.647019519328201,6.728855342811381,3.107772192112348,6.52154103511759
1570181195899742.0,14.99389282089584,6.769884017504202,1.9950706383697894,1.6975771498653442,2.6456725773637797,6.691515646782883,3.1337230368542253,6.61259214582005
1570181195905726.0,15.315785327163468,6.984673243587078,2.028082589938417,1.7126469728062188,2.638167051210248,6.653688665514906,3.1615141243587233,6.714088788085946
1570181195905726.0,15.542818646481162,7.151407457824356,2.0543244672325147,1.7321626392048968,2.6325138094019644,6.629045533637698,3.1923949641633382,6.7993016386319045
1570181195906909.0,15.75795894364242,7.312665768684486,2.0765543543382754,1.7387788721673272,2.6185955081367585,6.619467113129949,3.217317659866532,6.873934182816455
1570181195906909.0,15.968438462971777,7.462731416619807,2.096749694807494,1.7505292517365896,2.604604610687846,6.630741711789221,3.251266883556163,6.936497153571567
1570181195927667.0,16.149417019982188,7.613074373831433,2.1155635129171992,1.7550311647156438,2.587919500451559,6.659147159796963,3.2879666332334483,6.978877347920383
1570181195927667.0,16.28972330585394,7.750973690102546,2.1356512444839817,1.7679328465587258,2.5766957576803464,6.710644729289029,3.3362395180708444,6.9863607347145225
1570181195929662.0,16.40388002910105,7.8642925171804245,2.1516707255849004,1.7698278750144867,2.56268435561179,6.786008803265712,3.3876649149855376,6.991092283308202
1570181195929662.0,16.507509981060256,7.945050208333487,2.150769232859835,1.7706430106550144,2.5499993912425376,6.866191429191624,3.4419279346172376,6.998787184757182
1570181195941635.0,16.641809559847143,8.035753126642579,2.1382805780114795,1.7575636506535863,2.5289681506940287,6.895966806123631,3.478326726491452,7.017903247788746
1570181195941635.0,16.823270034286857,8.149665474014382,2.1259224900584774,1.7518474406745146,2.50929289410742,6.871283095827174,3.508807668985586,7.0403363207974525
1570181195950608.0,17.051015680483754,8.270064635244102,2.117842963376023,1.739400421349985,2.4872559061324213,6.825932168412997,3.5353817940028116,7.077534298660984
1570181195950608.0,17.288611610490275,8.383833282313068,2.1123424915085947,1.7378663430661403,2.470684687336706,6.788830247999845,3.5565815617451837,7.096304357042472
1570181195965567.0,17.47884591074293,8.485079842976033,2.1093379206022607,1.7325474791660591,2.4526373701971997,6.755824420157876,3.5513161394376676,7.082710828223812
1570181195965567.0,17.608586753942607,8.5701762716277,2.1044114227643185,1.738434112467149,2.4403307962383223,6.720387419011878,3.5372915370214124,7.039497085264249
1570181195967564.0,17.718436325704122,8.640897245460662,2.0993762583413575,1.7377098521397463,2.427591823996878,6.684824831435674,3.5160505600986967,6.996434825655228
1570181195967564.0,17.85225948894686,8.730438784643168,2.099453595766577,1.7469331894743862,2.424094156154781,6.662678526108124,3.4991700274311097,6.938522296586735
1570181195987530.0,17.98608243649426,8.829349512149996,2.106222018221527,1.7502597724149538,2.422798419807591,6.628627077041809,3.4731543420307,6.88226455897117
1570181195987530.0,18.062115133031003,8.92172759830901,2.1116505183696894,1.7573138319392985,2.425813226401948,6.573372437696113,3.4434448855967688,6.826367579162253
1570181195989502.0,18.071745325106253,8.991075582799343,2.1117724848983035,1.7490355227996919,2.4230872266840957,6.511698372706689,3.4044513702216603,6.784245597532522
1570181195989502.0,18.074789612020133,9.061239035084052,2.1075760791564795,1.7455189698540778,2.422647838417253,6.461277468983575,3.3713777140125,6.731650384665972
1570181196001805.0,18.03966874192937,9.09514838114592,2.103125594147952,1.7349607866289434,2.4233834505570817,6.4138581435827025,3.3356943038846087,6.679911168953698
1570181196001805.0,17.958858788366722,9.101669584329885,2.0984163932454263,1.733378040313016,2.4331990461578363,6.37587564578481,3.308259895848156,6.6246937427131805
1570181196010450.0,17.875266806600816,9.097020996590151,2.093534460450591,1.7203645491121367,2.4407259986703207,6.344563429947145,3.2794856314459824,6.584420322688752
1570181196010450.0,17.835203072194908,9.126451496349706,2.0873162376416126,1.7107606813807885,2.447687650108988,6.320716481681358,3.256810584843323,6.54080863935445
1570181196025702.0,17.815014462191197,9.157735023106195,2.0805792066910898,1.6913784836404229,2.4443792825301167,6.289580391472402,3.228769948651678,6.50462235378696
1570181196025702.0,17.835512923012878,9.21202775438961,2.0722170493385863,1.6800896790969213,2.4358938161080186,6.248855258764866,3.2068245297255493,6.468591288227071
1570181196026407.0,17.892345255284923,9.276334674432745,2.062633638734167,1.662308166754269,2.4208113871000676,6.206900899925065,3.1819975841924033,6.44606157071883
1570181196026407.0,18.003843898799644,9.390955004669296,2.0521216968586287,1.6569012715675246,2.411766376350839,6.176843900691455,3.167259861635395,6.423973599338796
1570181196048363.0,18.138208302121562,9.523494061699196,2.0434601676095814,1.6467813533505378,2.4033069978051906,6.147359517527771,3.156884337015015,6.418523196815771
1570181196048363.0,18.260018084279544,9.656996508095398,2.0348097033013253,1.647251743646109,2.404639727544016,6.118886877342608,3.15845117421236,6.410798984411423
1570181196049501.0,18.28601061646706,9.703791325945716,2.0285969387690317,1.641843937676739,2.4109137701625367,6.08720535569326,3.1534689564039926,6.406923491931696
1570181196049501.0,18.23799711174928,9.70203875077901,2.0265251224296894,1.6445949228255314,2.422458285526865,6.0623849130847836,3.145033843806474,6.386130589606402
1570181196061313.0,18.12580333042629,9.64564814626877,2.0284235260228547,1.6380541338031087,2.423769803083492,6.042056068847273,3.125856205848781,6.353541918377774
1570181196061313.0,17.998072664172728,9.588506979271553,2.030606433466855,1.6372689220922696,2.417606401155975,6.0205813096291,3.1108422398816167,6.313292880888942
1570181196070290.0,17.863106312864087,9.51131851259239,2.0318956413336693,1.626560224718915,2.403218240357741,5.996185889123335,3.0921943385963244,6.293693575921549
1570181196070290.0,17.77078412257961,9.470637370833476,2.028402574638544,1.6233670868849042,2.3923369673454014,5.981858711053015,3.078250208417314,6.279001940381635
1570181196085461.0,17.682347186297527,9.42094975706275,2.0200437735093733,1.6134472735057743,2.3769243191510503,5.969906518981375,3.0579471659662985,6.262060921194458
1570181196085461.0,17.57874603782477,9.394021151784347,2.0070144986581324,1.6131765249933787,2.3643316815432938,5.960248467495247,3.0403139001209216,6.206907614197274
1570181196087243.0,17.420390935795194,9.332262141085915,1.9904070684357766,1.6068501592064652,2.352614522620206,5.94900897384182,3.014898225594112,6.135077139515927
1570181196087243.0,17.271624634407615,9.286414149902,1.9717416901874933,1.607517052059517,2.348805030717495,5.9446578328795665,2.991619256822894,6.055392399101771
1570181196108187.0,17.11619783858341,9.214727799336018,1.9527598469374214,1.597011850625611,2.345498522488201,5.950485787402633,2.965043083920259,5.988712110884367
1570181196108187.0,16.973893523025204,9.172186696579326,1.9291117464762089,1.5928339620021172,2.3517030257814735,5.970724228503271,2.951646175557347,5.928368049534665
1570181196109190.0,16.78766541813243,9.097765543291732,1.9032947812218686,1.5814500836260426,2.3603943066514645,5.993350463627066,2.942035544050461,5.884570880752954
1570181196109190.0,16.569082701012185,9.029889551383024,1.8792983290385334,1.5762992156616953,2.37121047595675,6.013414709269889,2.933660830782102,5.835630537857025
1570181196121199.0,16.29655450757283,8.914604280737942,1.859625033381538,1.5591197187453745,2.3731121948677663,6.0110335814022,2.907468080237286,5.79635749029349
1570181196121199.0,16.02044820217953,8.809125635534576,1.838811915410274,1.5463520815980827,2.373287426121047,5.987971838820087,2.875960176022686,5.761506633573926
1570181196130676.0,15.704038171968833,8.654567662869397,1.8154251639223848,1.523416907844986,2.369624699572688,5.952563111467822,2.8384018870421843,5.741927252593113
1570181196130676.0,15.394322788110458,8.518303949019193,1.789360429130736,1.508744903403846,2.3674565130891474,5.913297462086257,2.8095287322366915,5.728171803412445
1570181196145138.0,15.073271037043499,8.353585612644626,1.762072507857061,1.489978688872127,2.358147032677678,5.867504995100017,2.779590473920834,5.723722792182966
1570181196145138.0,14.784194930880952,8.222581939896797,1.7340067483512362,1.4823919268246608,2.351324106532644,5.825886293900021,2.754286058072531,5.706814268936331
1570181196147081.0,14.495616302994705,8.062472673023748,1.7079289486714977,1.4684305762448078,2.3427839792911453,5.791921122327888,2.722347052559214,5.6830672773411335
1570181196147081.0,14.250608434521078,7.93807419025581,1.683446672907521,1.4635555512532983,2.336632146017263,5.7700598856798315,2.6944674805419933,5.65246795156847
1570181196167261.0,13.999936017837758,7.784191049656871,1.6621353586393868,1.4542747254955577,2.324177507768077,5.750246201279893,2.6620076330444356,5.634756626346572
1570181196167261.0,13.764023239943324,7.65642417586983,1.6438212261253424,1.4559672645122772,2.3140520685733423,5.7357891205980716,2.6373312122325596,5.623741697985813
1570181196176006.0,13.49921347502802,7.491560301068732,1.6291097586831702,1.4531032695823534,2.301177152594684,5.726308122819339,2.612991167871086,5.63088868661249
1570181196176006.0,13.251553269549273,7.361240900771606,1.6137919732377808,1.4579415944782703,2.29266679361339,5.730345011875852,2.594398623933513,5.651120147174483
1570181196181987.0,12.989694603514753,7.205865519875433,1.597011958999369,1.458547143963321,2.285845875810602,5.748445957367246,2.57171486497179,5.688186566151866
1570181196181987.0,12.7519831796766,7.088142850937712,1.5784733376045248,1.4686662059980993,2.2861963051141077,5.780440414235402,2.5529821312095953,5.729225286253553
1570181196190966.0,12.4912825224518,6.938503656790764,1.5610449087747134,1.472860481355562,2.283750603242957,5.813209639787095,2.527162165358379,5.77164889325951
1570181196190966.0,12.252023521430825,6.823740238433975,1.545862927916525,1.4841473642390794,2.2858884689430856,5.846693100317555,2.5047055037016395,5.813906775851444
1570181196205965.0,12.001900940542134,6.67656058772854,1.5336377218958863,1.4884065685943406,2.2836870555051445,5.863238600076618,2.477997738297615,5.866616723085337
1570181196205965.0,11.781011868090916,6.559851799823801,1.5210780715364893,1.4990802167478576,2.2819838059928963,5.855713827988118,2.454106729482684,5.91784169863165
1570181196206928.0,11.546734907306135,6.409760252611764,1.5087048781118102,1.5053176431125344,2.2772202729650926,5.824844968425533,2.4296844443373504,5.956151209372071
1570181196206928.0,11.330108640153224,6.297692201882418,1.4942251952757353,1.5167488967785403,2.2754786653925763,5.792547887635197,2.414001104981802,5.953509667409706
1570181196228019.0,11.08126606952483,6.157268669592749,1.4780959115856072,1.5146009970326337,2.2704958184350064,5.767223321201771,2.393123762730043,5.918207487453698
1570181196228019.0,10.847184658179701,6.05521596547968,1.4614124153005863,1.5115897367763178,2.2728359197500954,5.753699886914492,2.3771382309228035,5.868919114647434
1570181196229861.0,10.593177320841221,5.919408673791291,1.4451353492289816,1.4977284110563982,2.2751319266646712,5.751842327370746,2.365168682267791,5.824998387662986
1570181196229861.0,10.362888553943892,5.81572286165565,1.4269282405189048,1.489869116357538,2.274523837874404,5.768840257590513,2.366590070947666,5.781814854390631
1570181196242132.0,10.120025096525321,5.680460576208445,1.4068102715077244,1.473229545320003,2.2580687149711243,5.787590925083112,2.370629787414134,5.749654027870219
1570181196242132.0,9.910112286502232,5.5819503875546275,1.3844818988570582,1.4626186794623062,2.2356124252384126,5.79504581769365,2.376182109227475,5.727387963006371
1570181196250814.0,9.69045121870478,5.450973776580077,1.3634852451055397,1.4441042444543757,2.2030983791454988,5.782054996266665,2.3757721995014727,5.723275976465972
1570181196250814.0,9.501063770280162,5.354594361203431,1.342843419261853,1.4316479816764334,2.1707200109746023,5.7533072697503425,2.379236603112008,5.73318562410406
1570181196265801.0,9.29830458067921,5.223659968548182,1.3230439667379557,1.411767346002357,2.1360356382845724,5.714223076014306,2.373637771494247,5.755332910639179
1570181196265801.0,9.11502313603303,5.12545217687131,1.3042800245062722,1.3989473591411923,2.1064949813311173,5.6806733990505025,2.3606904907949535,5.781055991459531
1570181196266764.0,8.9083979106516,4.993846389920086,1.2880385614578496,1.3795208092102662,2.0716925156504384,5.642106881275108,2.339753986026597,5.8171404134528295
1570181196266764.0,8.724511378105465,4.897384912594831,1.2740937879087666,1.369520368088777,2.041800058297079,5.5955543367866,2.322266735779593,5.861246297292789
1570181196287880.0,8.52617035136575,4.768873209714917,1.2624488729563546,1.3538366973288067,2.0132742438958515,5.540787836290126,2.3040165223977955,5.918816517282748
1570181196287880.0,8.3576774390033,4.677654160035601,1.2494855126070672,1.3438139216593918,1.9921723035721914,5.486190978840407,2.2905344912203276,5.989257525166581
1570181196289707.0,8.181528027300182,4.555901234927,1.2358232209175062,1.3259788377249557,1.9690627205015883,5.4256085955012345,2.271958163445,6.0779017877225225
1570181196289707.0,8.04264874447054,4.471702670412178,1.2215240527264692,1.3174411804287003,1.9500805442227847,5.367884369889353,2.2566705748966682,6.182413164354839
1570181196301872.0,7.903817364946046,4.357401054832397,1.2073938056692053,1.306019438610367,1.926222861282799,5.31156262426453,2.244136940688622,6.2840622384983815
1570181196301872.0,7.796296350575954,4.277379710428741,1.1933657363809131,1.3041060822562272,1.905366833859239,5.264674513180769,2.2393473259250687,6.342121340041711
1570181196310644.0,7.661118954490054,4.164224804256897,1.181002416823286,1.2964305744855356,1.883658321225889,5.227574692724113,2.2356799429934875,6.355612850859442
1570181196310644.0,7.536596106529684,4.088178343296654,1.1684360779645047,1.2953306777302696,1.8699992346289094,5.202544648357296,2.24158128446096,6.347328061883506
1570181196325740.0,7.392851085065422,3.9839884249386515,1.1571133073296422,1.2892643072785803,1.8546467393621147,5.167750516005913,2.252032200502064,6.328437113742898
1570181196325740.0,7.266199009762759,3.9167890892923696,1.1472241332244386,1.2889872077677742,1.8418320373926875,5.120721197880057,2.2658055942993487,6.281862448105201
1570181196327074.0,7.110750926735579,3.819771685201334,1.1370853740212064,1.278233844445385,1.8227886549054606,5.064673827543397,2.275486818023575,6.2175874241729385
1570181196327074.0,6.973610375857137,3.758927169594759,1.1232252563050469,1.2713658102777472,1.7993243251487947,5.003028808886628,2.2847041373598027,6.145043749208327
1570181196348609.0,6.822110290044616,3.6671656417338996,1.1080891119808274,1.2572382100005668,1.766166607568739,4.927956332144825,2.289847384567305,6.071991791440732
1570181196348609.0,6.693078209617893,3.6087761610028366,1.0934083908875352,1.247254325258689,1.7360996588892676,4.848614536274098,2.2957925102762307,5.978885346608539
1570181196349541.0,6.540578526139219,3.5155788217976474,1.080715258909609,1.2298147406720759,1.7058265062828082,4.767131292412477,2.3005961135077886,5.878016993035734
1570181196349541.0,6.402443252130931,3.4522633698889065,1.068640811242033,1.2200483331229999,1.682795225151474,4.693291559606673,2.3088046497418326,5.7740853291528
1570181196370680.0,6.244354159067796,3.355904393969609,1.0575046306545233,1.2053184541089623,1.657858585300626,4.615344527686375,2.314793593312946,5.677894696914311
1570181196370680.0,6.1093947975796254,3.294090116975175,1.0477014728698564,1.1976029334878528,1.636579982233019,4.538840076690212,2.322169909933718,5.583762738018568
1570181196372481.0,5.956077112452002,3.2036106683286767,1.0402559403013882,1.1863541707834808,1.61356236656478,4.462273724989612,2.326747674681193,5.4964455880820156
1570181196372481.0,5.825191397468133,3.1484124483826514,1.034728748183915,1.1824855723642458,1.5959116506577473,4.386743106220301,2.3282514175694975,5.40558256659887
1570181196385791.0,5.68329792801855,3.065699216194445,1.0319479918593883,1.1708793187837996,1.579346112847065,4.3075006208819016,2.3191618180730433,5.329877141032738
1570181196385791.0,5.571228325416508,3.0216852629720097,1.0317529212160246,1.1624638583785958,1.5695612892508708,4.232570179434239,2.303759363805848,5.261328273683666
1570181196387438.0,5.446842445581198,2.949354989797699,1.0333491808403847,1.1487137612892588,1.5584728030041841,4.153275163283419,2.2807973602730818,5.195701309298117
1570181196387438.0,5.335816943150277,2.9060628069019003,1.0327959507733016,1.1416479824265524,1.548427667395599,4.072161053393974,2.258340940476026,5.125922215928186
1570181196408391.0,5.196815731022015,2.8301850516945595,1.029590170343739,1.1293946962821768,1.5353510766108407,3.987531161518044,2.236804877003505,5.059309456196665
1570181196408391.0,5.075070923113302,2.785315126690761,1.0237854560773751,1.1225650152685247,1.5255815606500032,3.9075538178072313,2.2198428177507785,4.989255801168889
1570181196409593.0,4.937690891993261,2.708621072244786,1.016461489493874,1.110613271770562,1.513207297721225,3.8292531204058715,2.2058302980404805,4.925244136940914
1570181196409593.0,4.824793063620438,2.662347425244423,1.0090648999777683,1.1037944340777297,1.5042797043354001,3.7587538907959126,2.197902804941817,4.863368077503922
1570181196430420.0,4.6953681049110525,2.585744096696036,1.003378675052355,1.0920301810293478,1.497141657554636,3.6884980778306304,2.1948199696664865,4.810194535582413
1570181196430420.0,4.581157512592069,2.5393104566960494,1.0002061244371394,1.0850693151675124,1.4946270462098867,3.6224935687465405,2.19926416646105,4.7681870784364655
1570181196432326.0,4.4489873603936285,2.4607331017839034,1.001575009065608,1.073342506524117,1.4913941857494244,3.559229671138487,2.2085108956875525,4.738394868484324
1570181196432326.0,4.339856206039562,2.4106893974428685,1.0058767790225698,1.0659331515339785,1.4930613330792812,3.5044244607897372,2.2213650937271985,4.713947908192619
1570181196446678.0,4.220020332466587,2.3304720713936553,1.0093591574134013,1.0547157842683128,1.4968431506094673,3.452156424732008,2.2340238379570243,4.697728860372989
1570181196446678.0,4.123214729091904,2.280405934326786,1.009873099689195,1.049625931121037,1.5032479652036412,3.4104705607755075,2.251605528123703,4.686418720606409
1570181196447289.0,4.013066264835708,2.20373426827621,1.0092910513252362,1.041893517039897,1.506726430710741,3.3763320572756466,2.2744717318165235,4.683516842632893
1570181196447289.0,3.923155068021982,2.1601656212801217,1.009375764206056,1.038087091422029,1.510732790191092,3.3449306937091317,2.2974412701315887,4.691047409287522
1570181196468418.0,3.81990800789938,2.09144628746369,1.011745430499406,1.0314799493983755,1.5135277802632714,3.304825574223574,2.31670943020616,4.7048887877049275
1570181196468418.0,3.7392376771732945,2.0528552497674943,1.0154806128563518,1.0312018077686609,1.5187647545059175,3.2644491146607377,2.3366485824165064,4.72406879269099
1570181196469224.0,3.650730036978915,1.9881337371430532,1.0188053019214978,1.0314617276018316,1.5244722664129113,3.2218680892381064,2.359126187293321,4.739052580890451
1570181196469224.0,3.582177170010486,1.9543499101917965,1.0212405815893428,1.0364661426124144,1.5282352148626792,3.1762136671015297,2.3813158129506222,4.743517083093808
1570181196490352.0,3.495590842007316,1.8974093762725097,1.0241166673795197,1.0385332446379443,1.523840286689482,3.127951981599885,2.403330962672827,4.73217775226312
1570181196490352.0,3.4171533251074537,1.867748384451442,1.0255166377589655,1.0422120757922606,1.5186153166600374,3.087491951426426,2.4270379710052117,4.71049421110277
1570181196492160.0,3.3225315592760594,1.8129675740681122,1.0215474948030367,1.0458052056202092,1.5161759793561684,3.050350348559234,2.451787666811254,4.686908427311628
1570181196492160.0,3.2487453942352813,1.7867914412109385,1.0093025260031403,1.0541334765039163,1.5161357696852273,3.0172369650356154,2.4752241172842124,4.676738525442052
1570181196505180.0,3.165664094058163,1.7375731582790879,0.9921473476637926,1.0593698042212856,1.5124877163352102,2.9821821332307445,2.498136302629163,4.674848351872009
1570181196505180.0,3.09922228207788,1.711672728294488,0.9759940470942566,1.0644179528005444,1.5073876419305756,2.9532614490194335,2.5259101612705583,4.691351458072182
1570181196512108.0,3.0245327309290975,1.66404441325664,0.963621263708941,1.0701560781827673,1.5033020344336832,2.933154915844311,2.5597542420270982,4.720062686178522
1570181196512108.0,2.9633541108643175,1.6420261664612463,0.9552827773631022,1.0807137265546694,1.5049116902195583,2.9215792139632963,2.583711562216391,4.758612293160894
1570181196528193.0,2.892087635474789,1.5984677179588667,0.9513135814092296,1.0918964420022197,1.511465919888764,2.912169000966212,2.592038122038447,4.7946237155616656
1570181196528193.0,2.8403174727601845,1.5770796544183585,0.9517565480030816,1.1045735095548894,1.520990031822332,2.906756176030169,2.5985519035272544,4.8452225783614145
1570181196530056.0,2.7915889152621274,1.5388119905498245,0.9546225014838058,1.11810802674673,1.5296437636394098,2.9047251405175913,2.6158507062749212,4.907953748841125
1570181196530056.0,2.765463555723004,1.522089147707296,0.9578078766395998,1.134868643895106,1.5368872431151808,2.9100835989393756,2.639149012544463,4.993890806257256
1570181196551124.0,2.74424861190575,1.4884787562450803,0.9612603206278675,1.1529276792196677,1.5432337997922292,2.919635039007332,2.665986917146021,5.0891476124864745
1570181196551124.0,2.7425086420596263,1.4746732900403818,0.964099174110133,1.1710710367249004,1.5480520077032762,2.9287357359945707,2.694958979905291,5.202945523379947
1570181196552014.0,2.7438406983411765,1.447817439700639,0.9675115371405767,1.187707376539358,1.5481125881212077,2.926503823314971,2.7269142315468247,5.318931366366453
1570181196552014.0,2.7628260347277602,1.439156604908847,0.9747718586664342,1.2043437079971475,1.5455377499176712,2.920391645386092,2.761250843917783,5.449579065296928
1570181196565195.0,2.791487139032592,1.420599193494082,0.9866201634065102,1.2216330382961396,1.5444356316654844,2.9171498109906255,2.7999458931770835,5.585040554269967
1570181196565195.0,2.83481111095171,1.4180445493314868,1.0030742929058123,1.238084861952267,1.5467487975838994,2.9148672100696613,2.8412598303943195,5.73900933200656
1570181196571952.0,2.883031876168689,1.409868757161734,1.0235909025826209,1.2494016216659702,1.552839779032528,2.9138582952025236,2.8904968443450954,5.890660103231952
1570181196571952.0,2.93571806782074,1.4176345669865138,1.0469847843951507,1.2560551205497876,1.5601996122753776,2.919856367547026,2.9457421803219863,6.052905491701783
1570181196588054.0,2.985399190777589,1.4242402355619588,1.0708103580765178,1.2603784183385307,1.570705921685131,2.9325038265028995,3.0070606521185064,6.202093497525625
1570181196588054.0,3.0332274646037636,1.442132608731613,1.0944887697481747,1.2630929864871523,1.5842430458779257,2.955863581521437,3.0680709740992684,6.3516782389314415
1570181196589907.0,3.0860764748099294,1.461039626813715,1.1167629302864872,1.2643893314315606,1.5989435785697248,2.9919161928451135,3.132188264322211,6.499004328820407
1570181196589907.0,3.147992873451546,1.4880931712437018,1.1374994474973366,1.2670541614724045,1.613815728467669,3.0370300986308787,3.196674319226191,6.661713995048887
1570181196610153.0,3.2263976857703645,1.5204383783361701,1.158672811745574,1.2694178422581992,1.633395680872026,3.0857426384614954,3.2650387469423996,6.822926054386429
1570181196610153.0,3.3157926739525245,1.5600059109607733,1.1810925812590842,1.2721466035603848,1.655569786027635,3.1368586219409567,3.3370430329302323,6.996463058615602
1570181196617832.0,3.4166273227249397,1.607713417214832,1.202312815678755,1.2756697872481961,1.6791328206171028,3.188412756049647,3.411240848823665,7.158091877674225
1570181196617832.0,3.519396974867959,1.65851914423834,1.222155664914819,1.2805139887416537,1.70058914062422,3.2373508919386,3.4822098807572606,7.328189749805307
1570181196625031.0,3.629804423068065,1.719497677538758,1.2406519636000677,1.2873445385747817,1.7256811309809073,3.289395151955313,3.55914861572529,7.5017066602408775
1570181196625031.0,3.739866948849221,1.778594059332487,1.2595471610611304,1.2974144675460075,1.7546429194966906,3.34690219977498,3.6444595690708006,7.697172744521849
1570181196631805.0,3.8686475545737995,1.8480416545597342,1.2803724913304608,1.3096895676597409,1.7886615317517052,3.407545010226508,3.7412724572218954,7.902346267001802
1570181196631805.0,4.006877506663356,1.9157993519314471,1.3038421549903771,1.3231391153100323,1.8251931243720716,3.47393079736853,3.8451460455562905,8.129286387722935
1570181196647828.0,4.158451309823082,1.9968036137511431,1.3272197993599093,1.3369482961248438,1.8686723352433636,3.5510497039808655,3.9569004365265155,8.346530541276914
1570181196647828.0,4.304088443494387,2.07169656599481,1.3503495660902218,1.3499948350453985,1.914984693301636,3.62858034044501,4.070995159041816,8.56466391808321
1570181196649862.0,4.4575361249447,2.1591724438944757,1.3726073714649305,1.360536398933306,1.958491863303367,3.6883335497685974,4.1899347470113595,8.777744543776546
1570181196649862.0,4.605105895328828,2.2388602696541127,1.3917865157919531,1.3665570660885011,1.9904686499837843,3.728608903993081,4.310196477634968,9.001154152279936
1570181196670681.0,4.760674360693631,2.326481257190132,1.4086872979319156,1.370078575386203,2.019723613332348,3.768679535027084,4.429938391316319,9.219965017893795
1570181196670681.0,4.902718408293735,2.401381984853636,1.4268913629344688,1.373114827910745,2.049092510864489,3.8176877853339373,4.542244157157902,9.424531361156093
1570181196671834.0,5.046474266653215,2.4935279469076814,1.4475830647594652,1.3765923695780777,2.0818335346160635,3.8767341182552895,4.643765454092224,9.591380113825041
1570181196671834.0,5.184235919287668,2.5818101111552685,1.4715147876686303,1.3815891284325943,2.113995424377373,3.939210790756466,4.723298452817451,9.762260466040225
1570181196684871.0,5.332248311001296,2.6842115558808017,1.4965268942829335,1.3880844163912378,2.1477189224748314,4.002285574871186,4.789860997110561,9.945048600989045
1570181196684871.0,5.477785834094412,2.7731042427701613,1.5190975078013753,1.396114011593277,2.1815565594070616,4.06981504457155,4.860476069867257,10.143797483651484
1570181196691625.0,5.644268863159018,2.8747970857652376,1.538180493906446,1.4047267242556563,2.220286702961135,4.148894475616667,4.938235432018733,10.340344312409753
1570181196691625.0,5.8138018398849045,2.96872513869151,1.5574607394839937,1.4100169075014528,2.262630852170207,4.239415580078616,5.015037727557026,10.52123730430239
1570181196707620.0,5.994936149080047,3.0785606507448713,1.5758701222723916,1.4099746870453607,2.3086762079482055,4.342295441761212,5.087559650520436,10.64959551103599
1570181196707620.0,6.167631316012655,3.177628659687355,1.5911887648759695,1.4086237083995876,2.35230422808332,4.456263920922638,5.148992855006143,10.716336772779135
1570181196709635.0,6.352059287217765,3.290559576360039,1.6040715312783878,1.4088279676979192,2.3977556603090964,4.578579407575575,5.187408218133248,10.718766048131782
1570181196709635.0,6.5403416560136325,3.392965120777931,1.6188849258835867,1.410685717919021,2.443156564463232,4.699584466963861,5.206631971590853,10.713353588357476
1570181196730695.0,6.752551414846328,3.5103622617917964,1.6351384613620403,1.4152387928531265,2.4868392527719907,4.812990819770048,5.217829906538969,10.738394704496809
1570181196730695.0,6.963494973580966,3.61294164043067,1.6491971068476663,1.4233620076206648,2.521443224740207,4.9135735077768175,5.224580831468566,10.788853546842226
1570181196732522.0,7.177577089693427,3.726986121362888,1.660527539716785,1.434326138451567,2.5464275186405465,5.003590650866251,5.232695748960671,10.848662741055406
1570181196732522.0,7.37960950718121,3.8341263860990975,1.6706718303373262,1.445781296971764,2.562968662815078,5.085277480772669,5.2502850620775305,10.923881604294571
1570181196745499.0,7.588614874174063,3.9586506821543503,1.6802113963255696,1.4572778603936052,2.5786988250036647,5.1689231178602935,5.266189875595253,11.003208858217704
1570181196745499.0,7.784449255840928,4.074482819415673,1.6881281261094425,1.4703248867492535,2.5945990629219695,5.249924211666639,5.262329767118258,11.074457022913188
1570181196751683.0,7.99438447450865,4.206780040429649,1.6916384073144115,1.4874903996306885,2.610848892845066,5.318929196819663,5.226663190590381,11.143144936409485
1570181196751683.0,8.212742898026665,4.332024781607024,1.6927940882039492,1.5070888190729836,2.6254401575974744,5.379747131039719,5.184302435978692,11.199843013326054
1570181196768531.0,8.450794442533018,4.4771623316862215,1.694160791459799,1.5258556329868815,2.6435853760440624,5.44032141498755,5.152234345479417,11.192883006167852
1570181196768531.0,8.680504587171535,4.621738646153705,1.695655624693699,1.5375292198026274,2.668855815864995,5.503469075351691,5.124108103157259,11.080664581878137
1570181196769934.0,8.919838315040025,4.788836494135108,1.696232708100482,1.5417397229675178,2.6998904662588297,5.57215420659664,5.083321021511491,10.893643118189797
1570181196769934.0,9.169799447961502,4.952017844201991,1.6974790188993567,1.543162324226833,2.7332009799157446,5.630289209857981,5.034309719021252,10.68497698977679
1570181196790600.0,9.44777778577991,5.1353319095431695,1.7012539559436284,1.5458001626898612,2.7677250433615157,5.663334142444868,4.97591353750523,10.497865263777275
1570181196790600.0,9.732869034205727,5.318000513761091,1.7105984583428437,1.5515740545236656,2.78998946516001,5.68702236203539,4.917908183366276,10.325801417167247
1570181196792594.0,10.032441201256198,5.513374942482861,1.7254626251051732,1.5605262002575724,2.7921972688352295,5.711580040084357,4.8663285229872875,10.15641663579242
1570181196792594.0,10.323175308467668,5.691355875473114,1.7438312405976888,1.5707083509155253,2.7858896501660424,5.7276393897455335,4.831194589636704,9.977136096758308
1570181196805322.0,10.628349283127307,5.8793775908625765,1.7646501254916915,1.5801767220704381,2.7753946053093554,5.744009576533286,4.804970786982705,9.806562776783412
1570181196805322.0,10.951472103257768,6.068347484238797,1.7893090593149057,1.5880763584217759,2.7587538697994383,5.770591307562947,4.781199065440595,9.646018296813457
1570181196812302.0,11.30375475838388,6.271575279735493,1.8180302889143385,1.594277972656384,2.7424885575176563,5.805325042200844,4.750231914185899,9.506112635713967
1570181196812302.0,11.661133154727503,6.463297406390012,1.8486883423553702,1.5980769550401832,2.733569793047167,5.8419768864223,4.716712591792721,9.378141923158632
1570181196828263.0,12.03839172471824,6.662616904500611,1.8784510119697824,1.5990704732181025,2.727635686220748,5.874249036118716,4.670017103823775,9.258632624119128
1570181196828263.0,12.43244641727398,6.864692090934936,1.908371444607296,1.600609577646509,2.718939103775279,5.902410918197186,4.61851383102587,9.127417528027284
1570181196829389.0,12.845795289101128,7.0867713434730195,1.94027910957219,1.6042323887423058,2.703601993350831,5.941678710949999,4.562338710541868,9.009621181414484
1570181196829389.0,13.2444283929049,7.304036513111966,1.9751601252300806,1.6104609783078516,2.6861658353935955,6.000363871019603,4.511152129298574,8.905013340272903
1570181196850416.0,13.637138289017985,7.518236402570426,2.011570504383396,1.618884518300571,2.6707613379525745,6.073587485536136,4.46165305275284,8.813678031950612
1570181196850416.0,14.043034518894764,7.728845960805951,2.0491238380526435,1.628982535836967,2.663308378199944,6.149549064228098,4.415127521997769,8.718124869679338
1570181196852276.0,14.49269259400489,7.95744756045743,2.0886695222596696,1.641361449374431,2.663988327407719,6.217324773565357,4.368846716032066,8.628451413830476
1570181196852276.0,14.963518934404695,8.19488606138905,2.1302533897225073,1.6584577960671272,2.670930874965523,6.284274083089657,4.333467804752766,8.540687583099073
1570181196864396.0,15.415407541884095,8.418588771066714,2.171524037515464,1.6790453127816816,2.671838276213329,6.361525748753203,4.299290454672284,8.463185416938439
1570181196864396.0,15.763377654406698,8.566215555455507,2.2061874700277797,1.6996965191475133,2.663423607199317,6.448398309089648,4.266849031155251,8.368245241536597
1570181196873150.0,15.969175853047386,8.606685021355837,2.227969398080436,1.7170781683900083,2.647255831925706,6.546500660903248,4.229189325290704,8.254772328757626
1570181196873150.0,16.086364496188153,8.606094647925351,2.2404224620913027,1.7328302542272276,2.630401979585269,6.652101374880066,4.1974614867733235,8.12240913738165
1570181196888322.0,16.17785341263812,8.615294572866944,2.2492915755166027,1.746257267198377,2.6120616793637703,6.744117791710847,4.168726808222784,7.996847621471587
1570181196888322.0,16.291983243248335,8.643641499511402,2.2563045461179843,1.7602415290991604,2.5912478196830655,6.807730312577448,4.1496293337424754,7.867814148442649
1570181196890097.0,16.45092477591305,8.674636303522238,2.25938789497422,1.7758754687777951,2.562227046543603,6.8579768061036965,4.138590272001353,7.7544556124316
1570181196890097.0,16.62779836687627,8.714855137585838,2.259679642200442,1.7917078384100884,2.528674708962352,6.904758097011524,4.133715926215698,7.648535636813086
1570181196918324.0,16.783823199761375,8.74281842184273,2.260964373102024,1.806253578294431,2.4904321488792727,6.931302786692461,4.115286488732056,7.558703603244866
1570181196918324.0,16.890345223850062,8.76539805510163,2.260451210328504,1.8236302666902986,2.4557977664099173,6.924928152401121,4.094257091438292,7.4671824672348
1570181196919019.0,16.870122047023003,8.732884784689071,2.24767491743377,1.8357700475087262,2.4219522305282726,6.879349143795419,4.064595080782053,7.362781696084054
1570181196919019.0,16.71871595235063,8.648120151317103,2.219901674356864,1.835644043698057,2.387353452458563,6.810153667442636,4.025982096181935,7.219225384601806
1570181196924269.0,16.520951822937093,8.525366343195815,2.189706047405537,1.8247019168506478,2.3469568861837837,6.738013683640281,3.978171994084483,7.070970430321449
1570181196924269.0,16.34636458218792,8.41434693735755,2.16579321339071,1.8165247015583381,2.3076967706610336,6.677663782934447,3.9361104423275277,6.918914623394512
1570181196932978.0,16.186019325212854,8.290287627666038,2.1466242186894866,1.8105206984077422,2.2667497441700006,6.633855295011646,3.8945456887672485,6.777528640273335
1570181196932978.0,16.06675432074426,8.183767257827666,2.129998229898503,1.8087273488696929,2.22446729145355,6.594473785608395,3.861322245068038,6.640960836787267
1570181196948210.0,15.982420424818827,8.073865611941864,2.118017483924381,1.8065864841352475,2.1764388516337125,6.547526789693642,3.8304226616109607,6.523957675055354
1570181196948210.0,15.950871984784959,7.999502168730555,2.1112645081436354,1.80651184222592,2.1304022438247547,6.501698267015876,3.8037877688107087,6.413596419647758
1570181196949932.0,15.930893010817734,7.928805237219671,2.1039080578435456,1.8012587139085745,2.0874225421717756,6.4595552445938,3.7707202789317296,6.324153647880419
1570181196949932.0,15.87319880206825,7.861610322003126,2.086718647024158,1.7939054270916874,2.0517379814966086,6.418703371124932,3.7401070855792486,6.240423420877523
1570181196971082.0,15.737014046704402,7.750089336382032,2.0571383981035973,1.7789738219357905,2.0170379899034194,6.369273377708129,3.7053029243662157,6.166853490783445
1570181196971082.0,15.570653467615482,7.644428780844467,2.021207075242909,1.763624823936588,1.9855098009219772,6.31447858715864,3.6698589530797165,6.090763078525878
1570181196972123.0,15.388760272498542,7.526202563184701,1.9850048576025383,1.745588886320585,1.953189419024953,6.262956759432393,3.6243577868530976,6.028446079627903
1570181196972123.0,15.212323641890869,7.429301440735218,1.9496085464435446,1.7306653926961846,1.9250577392905264,6.221477148444443,3.5793253072196247,5.967657665433219
1570181196984020.0,15.014037602127539,7.3175596998994745,1.914476703020749,1.7131387466715664,1.9003661022904594,6.191474018474557,3.5294779806407157,5.916496590842679
1570181196984020.0,14.806399546956557,7.2221389792720405,1.877897189079594,1.6989150976950451,1.8820018577066546,6.175081999515108,3.4789453402312986,5.855429255728891
1570181196992932.0,14.557853624358188,7.095986944652234,1.8416168977054452,1.6819668036846753,1.866066069082128,6.170439012281612,3.4220438489256155,5.795864251873576
1570181196992932.0,14.30181157789128,6.978599230632608,1.806579595531457,1.6685552375374721,1.854836383890418,6.181083885949577,3.3688833998168723,5.739790077504933
1570181197007944.0,14.037899931812756,6.839543657071484,1.772118359878299,1.651642308925657,1.8416722351934107,6.199086489728954,3.3100892352974842,5.696566024567612
1570181197007944.0,13.803444297713936,6.7234435327155575,1.7375882170972405,1.6353570273958422,1.8250412305799866,6.2029544507008065,3.2522887827273164,5.646959905366963
1570181197009774.0,13.581225941188128,6.595211219222122,1.7040238974386421,1.6130005526567484,1.8049491814908754,6.182046335285868,3.1899206239807034,5.607403049119844
1570181197009774.0,13.386315408685682,6.4936517354131995,1.6722648318571307,1.594042477710107,1.7900568200891718,6.157303988966601,3.1330136886312587,5.578785965796261
1570181197030726.0,13.174712837321417,6.374085552768365,1.6419079225012196,1.5722291596415554,1.7810112004853518,6.139150162244145,3.072869921994377,5.567499798710431
1570181197030726.0,12.952992410208758,6.274338931288753,1.6114121686203233,1.5531897187197556,1.7806078060666408,6.125446364204944,3.015713660736847,5.554030818603024
1570181197031717.0,12.708028896319775,6.153016480469728,1.5807122106743599,1.531474645631558,1.7864461350777465,6.1127647672068814,2.9549097170994654,5.544448500516069
1570181197031717.0,12.48441704673467,6.051918200646905,1.5500781295126802,1.5159167183008437,1.7965401899712468,6.111365437523313,2.900107292688476,5.523549428961623
1570181197043686.0,12.253271434538286,5.9312214370039404,1.5217324824141585,1.4970705039489978,1.8057697681477347,6.12274261817895,2.8462569768873345,5.494510586963409
1570181197043686.0,12.034030864541931,5.836140951955522,1.4969733183054155,1.4801648674323908,1.817387716382439,6.1457376936596235,2.801198049079166,5.46016773696345
1570181197059705.0,11.804172992170644,5.723923718266046,1.4736619461665126,1.4587832657237052,1.8283591489964883,6.171015333130931,2.7545516623696455,5.437606994624939
1570181197059705.0,11.593416513838482,5.63410128537712,1.4485962937192225,1.4396671595800647,1.8356143697511604,6.179407086609318,2.7129302257174297,5.409499331016313
1570181197067837.0,11.380178200551669,5.522500072605843,1.4254534498110432,1.4172689197913657,1.8403972867434353,6.151699609846495,2.6709510945690136,5.382267684526893
1570181197067837.0,11.190752871701964,5.432175520042899,1.405752403598676,1.400301258584024,1.8470748573583384,6.100747688295244,2.633490738178335,5.35001464104591
1570181197069615.0,10.987307200842142,5.322185705226246,1.3877425955108154,1.3800672287838314,1.8547675118321267,6.044745598954258,2.5914051429952565,5.315025441781511
1570181197069615.0,10.791254275874694,5.239060828672252,1.372857541672124,1.3628749546036865,1.8627853360222788,5.987570690811105,2.556035334041749,5.276308810312377
1570181197090759.0,10.584613046948538,5.137455229151235,1.3639345102814915,1.3427241536283008,1.866995961158069,5.9243074990137465,2.5244987185957677,5.253863888831872
1570181197090759.0,10.398145784776046,5.058369839274504,1.3585424894043796,1.3273126512763782,1.8681999863939367,5.861434818106734,2.502467550040714,5.234493823783606
1570181197092040.0,10.202578636213525,4.959150468636813,1.3506798595537213,1.3105159257119956,1.8653027681488177,5.794355293981096,2.4795884266589336,5.221187130827548
1570181197092040.0,10.023970743631876,4.881768272570053,1.3381110278755057,1.2975119856001984,1.8590277225878618,5.72880550683688,2.462112911858429,5.2019499855566975
1570181197104522.0,9.831239555879561,4.779713728843354,1.323599674414256,1.2837833179563833,1.8521943907085487,5.665188745335942,2.440798767323858,5.163174180511399
1570181197104522.0,9.646364316709548,4.697930789560027,1.307917887662937,1.2769317049082811,1.847978724475472,5.60241891820584,2.4179181503672433,5.087078401108532
1570181197113498.0,9.444780891661061,4.595780657417749,1.2930955650673537,1.2705871683888217,1.8455933297664124,5.5470543711390174,2.3898759244590733,5.005560107190897
1570181197113498.0,9.26105420343518,4.52001456924783,1.2812634193752601,1.2702976669046833,1.847942301425239,5.506155753213774,2.369368082806814,4.931711432794551
1570181197128646.0,9.070661861396461,4.426702797385201,1.2718046756851507,1.2701721848630865,1.8535677509317683,5.467115273189453,2.353360006987145,4.867423436120886
1570181197128646.0,8.901310826350834,4.358766766900119,1.2645142272248915,1.2740104857548964,1.8610328512783698,5.430984386223364,2.3467313076980427,4.791197931846486
1570181197129626.0,8.725976605575942,4.271782038971194,1.2606049654791478,1.2770946206350478,1.8718221907640058,5.395331227476139,2.338277721187807,4.719510818742706
1570181197129626.0,8.572886402728207,4.209775529777789,1.2590494703583734,1.2830256048140962,1.8864698843839485,5.356408449309137,2.3314268719624054,4.65780360357792
1570181197150592.0,8.418130849262985,4.131075619127922,1.2598591352864255,1.2862721728033764,1.9016932295487876,5.317194709966367,2.322447894203272,4.614901888076978
1570181197150592.0,8.292177091214482,4.080015019959548,1.2629976682581796,1.2908076671895834,1.9167384350204788,5.2908741139534525,2.318995767876345,4.581957850121413
1570181197152392.0,8.16605786151489,4.010961360934184,1.2665059325835295,1.2932848496686935,1.9304326590810825,5.2746555585357315,2.315440042136479,4.564118860250935
1570181197152392.0,8.06693856530843,3.9668448050115988,1.2683030344001398,1.2998811768608305,1.9429670379521342,5.269678304233181,2.31592099631626,4.551878887985084
1570181197164437.0,7.973409357667801,3.905699519228011,1.2643971679472241,1.3062914990852355,1.9522685433722782,5.26674056972765,2.3126827362186764,4.54513330648034
1570181197164437.0,7.9107279482237916,3.8694130435275658,1.2535290980829341,1.3134008375915291,1.9574490277054113,5.252873907718822,2.309292787574647,4.5298756313414
1570181197173339.0,7.839379899103841,3.813466066182757,1.2395651827389795,1.316016897037526,1.9654354743068938,5.226986740564392,2.2991108321914253,4.50414405609972
1570181197173339.0,7.781050523386023,3.7808382577886546,1.225474707355448,1.318590548574176,1.9813459217896363,5.196410928584159,2.2878411138402823,4.471560024073795
1570181197188334.0,7.710264833455536,3.7291901526416162,1.2143556403418028,1.3182634937204145,2.005310983888585,5.157876128428335,2.2737441541580754,4.450883955142305
1570181197188334.0,7.6568796336338965,3.7038700763819548,1.2072709094025114,1.3197382225242176,2.036158907037459,5.120237262790058,2.264437350542784,4.439347139631186
1570181197189546.0,7.599352745532343,3.66474728765774,1.201191086950541,1.32045971664454,2.071134067063458,5.087436537383554,2.2552706404690053,4.436583251742928
1570181197189546.0,7.5572367210076985,3.6488915346564625,1.193125764316502,1.3233056782454025,2.1080970575059346,5.06687472099939,2.2527895606752497,4.440574355540465
1570181197210247.0,7.496443004824962,3.609325015866269,1.1841671212161482,1.3253869040262005,2.1494909647006653,5.058150922939726,2.2492523464789165,4.452211583032411
1570181197210247.0,7.446113119880937,3.5907169337525997,1.178457452644168,1.3318635134573726,2.1970410566526826,5.055832593059604,2.245331731052918,4.453778250613975
1570181197212243.0,7.3795971030094005,3.5570801053724814,1.177831813738207,1.3364892283447205,2.250204635455836,5.049455501781269,2.2370090165190266,4.445309863623628
1570181197212243.0,7.3186064274592475,3.548050656144074,1.1811135746793429,1.3406521589168559,2.3061956260881926,5.040456137744556,2.2333038500921814,4.425039433735096
1570181197224377.0,7.232989848603395,3.5151869660646353,1.1860276206381306,1.3412671551878077,2.356230326062056,5.031720557986545,2.2280820784239883,4.39449079045631
1570181197224377.0,7.153096341831561,3.501605319876083,1.1915324652959467,1.3434021878041056,2.388820763192407,5.037220886926647,2.222986845726394,4.357517228110189
1570181197233186.0,7.057979141169344,3.467275702575644,1.1943574949492697,1.340430096070197,2.403089385009222,5.054041690517797,2.210508850500773,4.325557419445189
1570181197233186.0,6.975769681764505,3.4513316689928506,1.1922296949004112,1.334528897733093,2.4034816704205175,5.05959521555842,2.1921513374448605,4.298233207156287
1570181197248348.0,6.877627718422543,3.415432175673509,1.189535074859016,1.3240849964967758,2.3866391196676293,5.037130714280077,2.166214469217106,4.276883672987754
1570181197248348.0,6.787623876130505,3.401282412137608,1.1890548054392907,1.3142573158187107,2.355677557580091,5.001043288521844,2.1435997207509283,4.2509453249475015
1570181197249146.0,6.680353631513404,3.361298140582807,1.189516047658974,1.3026442906421392,2.3204289150091912,4.963755311679651,2.1214745143251426,4.221008111282391
1570181197249146.0,6.5902552913787975,3.3358113215903598,1.1920279994050875,1.294021066845846,2.2906755514162715,4.930526707380907,2.102471003439767,4.191699292621395
1570181197270085.0,6.496032202154328,3.287561512737708,1.1949426266786094,1.2829117216406538,2.2636027414671953,4.889635877434985,2.0760323873604305,4.1653411288712
1570181197270085.0,6.4192479610036814,3.259035422921864,1.1957002478781993,1.2745112473202511,2.237790760686274,4.838458072265039,2.049268583316539,4.136037345739533
1570181197278059.0,6.324718380095104,3.2081969549709224,1.1948297139182924,1.2645284431170252,2.2128999297528598,4.7824312234121695,2.021874513837119,4.1100032684263885
1570181197278059.0,6.2400804869781865,3.1791567463915293,1.1957701172081177,1.2590155592483747,2.193219249151677,4.733036768481957,1.9968527158066325,4.09227255244835
1570181197284255.0,6.138646087270675,3.1317887753372524,1.1987847399788094,1.2555664119448122,2.1753269632793812,4.69076757824448,1.9719738051418827,4.075984107333936
1570181197284255.0,6.045610941729824,3.1073787204984367,1.203116307720338,1.2556136558475335,2.159225380825977,4.657959015969441,1.953674639844888,4.049187093148524
1570181197293021.0,5.936400509261271,3.06468147296838,1.2085106174319236,1.2529146539322267,2.1417886703596745,4.6247494072087205,1.9344228750155064,4.0150802070565215
1570181197293021.0,5.840060145020683,3.0434374752539464,1.2145107461941795,1.251885136507948,2.1239721450301623,4.585912992380064,1.9209067411687664,3.98454849391201
1570181197306989.0,5.730476121190227,3.000275359224695,1.2225532577893923,1.2498485872347214,2.102345943834509,4.542305545093952,1.9100128864591677,3.961576564311473
1570181197306989.0,5.636888591968491,2.976688409751262,1.2357340951931537,1.2504791250249325,2.078324301237501,4.499183750369309,1.9005369413461195,3.9446142496631875
1570181197315963.0,5.5355365780319605,2.93288413782508,1.25372284707689,1.2511625471545453,2.052995394773351,4.4578341132323,1.8879764837911284,3.9297228959658934
1570181197315963.0,5.453695568137504,2.910537007777023,1.2749322909498577,1.2566818607102084,2.0312519545940013,4.424282462278997,1.8778877321259415,3.91721703740214
1570181197338096.0,5.365181607462714,2.8692793499961207,1.2959211818197274,1.2629990963666964,2.009152620867981,4.39698255186564,1.8685806330376393,3.905429357886369
1570181197338096.0,5.299945967931387,2.8501808615949304,1.3172521659665175,1.2727062135036953,1.9876322649260179,4.382439494835172,1.8667314398218502,3.894641601895388
1570181197340005.0,5.229242087262967,2.8113344069879385,1.3405795873563184,1.2798963460841193,1.9659562234861119,4.373477521475695,1.866510464321002,3.8849798296533486
1570181197340005.0,5.170152486841055,2.792908506220909,1.3657181695667913,1.28370389961345,1.948026680007558,4.3573351479358235,1.8654817084670898,3.8857349150245097
1570181197353132.0,5.094879350326012,2.7538481523104315,1.3915683406019368,1.2798728187105288,1.9288112563572084,4.328489374062582,1.8591377319434013,3.8980952278323615
1570181197353132.0,5.034040491158598,2.7344314907055836,1.4198617424592688,1.2734284379703715,1.9089369624146915,4.300075577344076,1.851705490626412,3.924916752691525
1570181197354853.0,4.961252869089102,2.693343934362372,1.4503922482503122,1.2632271797035297,1.887632508183547,4.27827656611661,1.843064409688166,3.955975699315428
1570181197354853.0,4.898885496397948,2.670625459557855,1.4821478887889934,1.2553268841303584,1.8682573798077167,4.26195391087778,1.8385358827617144,3.9922651623990464
1570181197367924.0,4.820277833093038,2.6266015596195555,1.5137891213469572,1.2460220010221836,1.8494607680713815,4.243055734446565,1.836064906667541,4.026890118114816
1570181197367924.0,4.752799230817389,2.604364749857701,1.5449635399305193,1.2393305372985932,1.8348916469717154,4.223123854627462,1.8374333406007053,4.067446896452125
1570181197369870.0,4.67329467125881,2.566273749521431,1.5750127171704258,1.2313513212600469,1.8207198989486753,4.200248910651458,1.8400785560496948,4.112821372039845
1570181197369870.0,4.611703330714549,2.5514717943681178,1.6058302293714657,1.226099882472396,1.8077600605585837,4.179942722502592,1.8495043439092402,4.171017842349638
1570181197390770.0,4.5463562110923155,2.5158746492454576,1.6365684061378751,1.2197380094909065,1.7948229945719736,4.168769088228602,1.8617230273459693,4.229580857655241
1570181197390770.0,4.503256601472945,2.4962425694670762,1.6674098714974883,1.2154458317062335,1.7831778351582255,4.168574149634531,1.8730153419041156,4.288414150651207
1570181197392177.0,4.451713527863443,2.453833796068751,1.6993951991761846,1.2071392679676982,1.7695441971755226,4.1721460557404155,1.8839713611099538,4.343533521060873
1570181197392177.0,4.412495778292888,2.431169884565517,1.7337428409109457,1.1981946505555598,1.7555693275129836,4.184962292569994,1.898647676860483,4.410643932200903
1570181197412831.0,4.362611031071649,2.387961954269292,1.769937762009264,1.1862302672805363,1.7409197585236897,4.213505788659428,1.9138211335761222,4.477648962562939
1570181197412831.0,4.326959566996906,2.3639255682593863,1.8097138333069458,1.1772316834933347,1.7298363875128315,4.258979567684147,1.9298279489858543,4.539596423007061
1570181197414805.0,4.280640908891683,2.3209609215013387,1.8533435411199048,1.1686209381041908,1.719947267467495,4.310356582485139,1.9445152078789332,4.58753457236204
1570181197414805.0,4.250423133964788,2.2995185274552585,1.8981152518842275,1.1635991253529583,1.7101239383089157,4.35026072876882,1.9551416925340863,4.637653605038039
1570181197428184.0,4.20922753398338,2.2587123493592975,1.9419534915702978,1.157335816644911,1.6969837120245275,4.361510060273056,1.9579229831926537,4.683309316378341
1570181197428184.0,4.178301459001394,2.235614459799068,1.9873241226249305,1.1533713612377048,1.6838437093141074,4.354795017032969,1.9575037637858026,4.734723623458845
1570181197429791.0,4.135925386958952,2.1916422625366794,2.034558808072366,1.1489975957934018,1.670981286332486,4.3417138864442055,1.9569888164101485,4.784449001766371
1570181197429791.0,4.107427264237535,2.169010356892649,2.0848143235709995,1.148981106416634,1.6621843462400958,4.327941110281093,1.9567475769789522,4.836667227921256
1570181197450885.0,4.066916413380596,2.130840162396455,2.1365414706019075,1.1492724029962786,1.6563074802532702,4.321449524682807,1.9546772458966168,4.877070012195724
1570181197450885.0,4.033514067436995,2.114871140464901,2.18718414766713,1.1513022315502732,1.6547805396461088,4.330118793428001,1.9556346980777342,4.907170179917015
1570181197452269.0,3.9840812272898583,2.079926467514155,2.2351189278256136,1.1505713589455948,1.6575592047150085,4.3462084840951,1.9602829295051403,4.923828058517999
1570181197452269.0,3.9491657100106554,2.06514052509102,2.2835961575396735,1.1502993365990268,1.6640708159516848,4.360151031052353,1.9673507837055682,4.945584242306077
1570181197472578.0,3.9080408346952358,2.033531910860067,2.3351183229633206,1.1461158099369189,1.671113835644758,4.370764725147566,1.9773976415728953,4.966674145429937
1570181197472578.0,3.8811182648315845,2.020711921053973,2.391268050578611,1.1410133168317507,1.6795786805622825,4.389367461385229,1.9908944521576215,4.99366072207503
1570181197480517.0,3.847123661625964,1.9879508390113647,2.450610478966705,1.132389181634903,1.6875218073742417,4.418769382928398,2.0066960025105964,5.026043416759813
1570181197480517.0,3.829756230402503,1.9732724929543575,2.511814977122147,1.124441525156193,1.6966129216357344,4.457510110588692,2.025940556706524,5.074009852847914
1570181197487505.0,3.7961231020519874,1.939792375281229,2.575387745703918,1.115758583055482,1.7081726735457177,4.50039176552088,2.050753386139608,5.124218834854777
1570181197487505.0,3.7660709426332084,1.926607711095733,2.643364345070688,1.110096315938774,1.7230152443763567,4.548927084354347,2.079880037384854,5.184650551533008
1570181197494478.0,3.724630770765639,1.8968668007582161,2.7136613987637745,1.1030804136424917,1.7425586050711683,4.607387352815156,2.111679190402426,5.245103956556092
1570181197494478.0,3.6996676717170827,1.8852379359505465,2.785553688615624,1.0988829363771877,1.7677758598953033,4.679530996839544,2.1466738674525976,5.3131310485283265
1570181197510438.0,3.6715514576061135,1.8554925939620508,2.860152152768218,1.095573071972482,1.794392332222466,4.7648738999894835,2.183283232599006,5.365754739074119
1570181197510438.0,3.662090165959093,1.8440319142524628,2.937540457946616,1.0948593746849808,1.820481762077774,4.86337238774368,2.217974431234607,5.396223106891784
1570181197512580.0,3.643622641694001,1.8150639244500613,3.0157516200456054,1.0895224798742067,1.836211585792945,4.946261158785037,2.2475864167064317,5.401966510696259
1570181197512580.0,3.6279328474628936,1.8034172266672226,3.0941618233952943,1.080976737276365,1.8319054371585535,4.980971810685915,2.2691125122729026,5.394952193788178
1570181197533377.0,3.589146109134814,1.772704870740851,3.1744005820811747,1.0684076052629012,1.8135767305086523,4.981877645315444,2.2907151712752643,5.37761281583559
1570181197533377.0,3.5530856250775784,1.760294066562697,3.2559345893533074,1.0571721628388273,1.794888263076006,4.981575916958514,2.3164473189098875,5.372463484542671
1570181197534607.0,3.5029742252067195,1.7319255331142824,3.3200266557850906,1.044078785536368,1.775330453197851,4.981556357413742,2.34706275446051,5.373699235548176
1570181197534607.0,3.463001304298082,1.720967102816806,3.3428252740663607,1.0332200975340053,1.7529512684692297,4.980022668131363,2.3816907089111057,5.386270808439567
1570181197547379.0,3.413231486834767,1.6930055736460785,3.3253420249619774,1.0227048934403182,1.7278042592714917,4.979576574617395,2.4214379144271514,5.405633280617366
1570181197547379.0,3.378689319589464,1.6833162147932965,3.291127637949831,1.0147469413648296,1.7040563287676898,4.9831415110651065,2.468270275996605,5.4424584659430995
1570181197555316.0,3.340079203289156,1.6589539048969817,3.257394476230998,1.0053446957000778,1.6834448018433485,4.98838394352726,2.5237420863437894,5.482366753896705
1570181197555316.0,3.3133558977381825,1.6536616039511132,3.222677953049226,0.9979948418160385,1.6688385110644095,4.992859907897152,2.582334676390564,5.52600200198164
1570181197570276.0,3.2759241846239973,1.6353649232679832,3.1805717797227264,0.9922515594879215,1.6572236271162564,4.981394843902069,2.6385275241654114,5.564529632993326
1570181197570276.0,3.251592886333006,1.6369784218760142,3.130210953266646,0.9907947633166926,1.6497221180727466,4.949579918424536,2.6883101243439382,5.611724623453446
1570181197572272.0,3.224441541551532,1.624488936325361,3.0697848160487933,0.990515156287743,1.646388057071368,4.907671120447421,2.7375614635512933,5.6653328572311255
1570181197572272.0,3.2169531521776453,1.62612262835479,2.997170453540306,0.9934730398778093,1.6465538923539196,4.868373750742333,2.7901309418691875,5.73159871404466
1570181197593214.0,3.205878707322985,1.611593571128118,2.9167152883513197,0.9949737400037197,1.6470644940559358,4.834247622253095,2.8479259237744294,5.80075262060152
1570181197593214.0,3.2062954793871468,1.614370446058378,2.8353226807368586,0.9943573930965505,1.649779575343912,4.811314245221334,2.9109963180284075,5.8861439240162605
1570181197594213.0,3.199088652121676,1.6058094496191846,2.7580250861523603,0.9927920390848838,1.6539810178660508,4.80202126386621,2.9812413291688817,5.975608471958975
1570181197594213.0,3.2020013518352926,1.615791106881572,2.6829221023221725,0.9929854340415923,1.657778798328735,4.80897914847675,3.0567144351935784,6.064654555050064
1570181197608269.0,3.1955548997054164,1.6119732909924953,2.608031145646855,0.992535107040355,1.6561175514095046,4.819997714777143,3.1239500887262737,6.129464923785109
1570181197608269.0,3.201614648783854,1.6218043210250066,2.5361802718213724,0.9927793787436465,1.6503872840982092,4.827219247896929,3.16306085696129,6.173596431443608
1570181197614160.0,3.2021554306164806,1.6172114095905459,2.4689826504993637,0.9924715044206738,1.6425994244009239,4.823916439616954,3.1747074395380306,6.2072515735699945
1570181197614160.0,3.211060180455094,1.6263189785124474,2.405877162007104,0.9909359498834082,1.6327106986707167,4.804187433710693,3.173845440787988,6.25246416367882
1570181197630621.0,3.2102573421933163,1.6189679634836744,2.3492472795971584,0.9847574066753668,1.620438191058718,4.772426249333489,3.171313959690516,6.302690009729088
1570181197630621.0,3.21708328081394,1.6230094287590655,2.2987976276870743,0.9768797310790648,1.6096688938961843,4.741221549993273,3.170898640508019,6.3513531457206245
1570181197632112.0,3.213742427976066,1.6107998360812965,2.251790891518833,0.9690891173550124,1.6006794461770788,4.710281096639184,3.1759946656568805,6.378288559810663
1570181197632112.0,3.2164673808016566,1.6113040224812871,2.2079729287516527,0.9646132800806938,1.5934677720053392,4.682364080007477,3.1884065271408746,6.397242928960981
1570181197653140.0,3.2095771755650166,1.5999939401518795,2.1709464242025116,0.9616628470604437,1.5871053990216455,4.659556435533641,3.205007314192802,6.411435894098289
1570181197653140.0,3.2142259105777717,1.6044678977748332,2.141053928813201,0.9580434841583725,1.5834293308596896,4.643647984463003,3.2233038820502258,6.426829244255106
1570181197655050.0,3.2161014848777505,1.595173250634595,2.11354640361615,0.953916200385026,1.5817655798148047,4.622164531391545,3.2312832568971803,6.425372430623697
1570181197655050.0,3.2276876239501435,1.5990426827101927,2.0826620041830104,0.9518927529802345,1.5828722563696542,4.590826413042358,3.2217952439306736,6.408798173671999
1570181197667052.0,3.224771634360871,1.5907544361483785,2.0499121664383684,0.9515858157083004,1.5851918708395958,4.557740861646584,3.2016548432699943,6.389306994172899
1570181197667052.0,3.225057289024668,1.5972246687895235,2.0181374867852466,0.9522729713073929,1.58730565376763,4.5349826386077225,3.181550630349793,6.380042703204904
1570181197674001.0,3.2143710046063947,1.5896093998019127,1.987193156833367,0.9518189181685548,1.5894862015298983,4.523508670310454,3.165168121042228,6.36973098801667
1570181197674001.0,3.2095980009355647,1.5908832574445468,1.9553498684953703,0.9512224976785045,1.594428188208095,4.525854630457013,3.156919111681316,6.361035703270215
1570181197690011.0,3.1998271527683935,1.576646286515225,1.9234694452471026,0.9536521137830923,1.5988752935942037,4.5422650845438675,3.151156349469415,6.354644725077242
1570181197690011.0,3.2054206620214347,1.5764518635487585,1.891402530446205,0.9597317158265352,1.5974219311350268,4.56373512970071,3.1463726021161897,6.359378134602789
1570181197691950.0,3.206570331158777,1.5635112603865835,1.8580860912182435,0.9678483855276104,1.5880123543673605,4.567051856461797,3.1399517372278782,6.373056325116758
1570181197691950.0,3.2120545902688646,1.562789569958799,1.82336452230761,0.9754122793415895,1.5758908928771094,4.559465963699536,3.1314547894740183,6.402122524483055
1570181197713105.0,3.2080340357514623,1.5496630465963068,1.7891155430223569,0.9831111170198906,1.56340583177918,4.551930619591152,3.119641755786626,6.441998290546353
1570181197713105.0,3.2181766661165754,1.5500052272657066,1.7573398056016727,0.9882587609446745,1.5522645139657585,4.544740993187405,3.1054311648629795,6.489805248276202
1570181197714929.0,3.227909143948711,1.5388096117879528,1.7282037112241588,0.9907102872888234,1.541907530630928,4.542852206667648,3.0878058699735074,6.531313559818537
1570181197714929.0,3.2482103145917924,1.5416296056432255,1.700176439519387,0.9908309345660345,1.531914044744144,4.552261832378179,3.073815176754097,6.566947266668576
1570181197726858.0,3.267263785349776,1.5338058274616675,1.6737542617883532,0.9892619822754963,1.5235976388748524,4.560781179886523,3.0551025098186706,6.5934511241736145
1570181197726858.0,3.294932041280737,1.5367875762016912,1.646418756527571,0.9864161613192065,1.5186751916339465,4.557788783192702,3.0228342781698876,6.587176725959976
1570181197733979.0,3.29882851563368,1.521796653965757,1.618301844149999,0.982797688015603,1.5147242605647102,4.544264871209251,2.978022844358529,6.5329294755964895
1570181197733979.0,3.2965507935066296,1.5161158758808055,1.5917670292126715,0.9769146160697103,1.5102013398483456,4.53547983801457,2.9354404139153405,6.472488353497616
1570181197750951.0,3.286611809424527,1.4985207590853509,1.569775854311876,0.9712800811029996,1.5025735203173636,4.5311623273033685,2.8985230345448834,6.41411431089076
1570181197750951.0,3.2824366978272494,1.4933049854321514,1.5521130380916974,0.9662728504423785,1.4920728768423532,4.522938262843399,2.8677411536106243,6.325448885161102
1570181197751791.0,3.2619649938347752,1.4759060341482064,1.5370681857575412,0.96145452718835,1.481178937640748,4.5063977539757385,2.8366431392415596,6.203151215547622
1570181197751791.0,3.2478515541983457,1.4712857449990684,1.5252293048925882,0.9572035593799589,1.473295296729697,4.489317919852796,2.8114527001702854,6.076233842169219
1570181197772754.0,3.2313815514387207,1.4573944713487654,1.5168036016151982,0.955074634674637,1.4692393784147852,4.478537191388931,2.7910198661706853,5.950509119606089
1570181197772754.0,3.221669796494818,1.4577124495472906,1.5077389231265808,0.9512377101835218,1.4702581561567192,4.481975534710165,2.7746173115049717,5.813673638298107
1570181197774728.0,3.1974935359782277,1.4455987993847919,1.4953653433637768,0.942632345583421,1.4762436986811507,4.495729514627736,2.758222657096047,5.674861301445867
1570181197774728.0,3.1775222330821804,1.4426991867511476,1.4795926046776378,0.9306777098069369,1.4841877084892832,4.518935313998692,2.7429587537925966,5.546447225850726
1570181197787695.0,3.150611227757479,1.4269204636134611,1.4604581174781044,0.9201634075576495,1.4891130794456466,4.550732827227461,2.722129243282238,5.428179580588549
1570181197787695.0,3.135779450574218,1.4225938778141263,1.4366753198080338,0.9120920642178316,1.4890229923988245,4.587513808798143,2.699727506927244,5.313728245603263
1570181197794230.0,3.1209693336161264,1.407180835829525,1.411465486141646,0.9073933100983431,1.4869786660675173,4.6164942546754535,2.6781138691501942,5.208411544934792
1570181197794230.0,3.1226463533053597,1.4034906773404183,1.3890822474662812,0.9027659789306047,1.4848783103947698,4.625404581841635,2.6606278241413346,5.117321380238427
1570181197810695.0,3.1211252951879644,1.3892027473106725,1.3709772548944872,0.8998650387862557,1.4838357226885213,4.610144255711186,2.6425514495078835,5.0341844965998375
1570181197810695.0,3.129356299487673,1.3869466164484254,1.355455722118992,0.8990194569878368,1.4846837908525472,4.5850570812025655,2.6265114789218313,4.953983294854641
1570181197811758.0,3.1293757517398615,1.373333371724525,1.340760858968328,0.9028935073555744,1.4875985527364788,4.551665273586212,2.6041026968063177,4.8750146107380194
1570181197811758.0,3.1249881172363856,1.367440097280867,1.3250654360045024,0.9080000044753103,1.492307191678838,4.512835289294478,2.572455982615161,4.785514605416428
1570181197832889.0,3.0959392202184537,1.350150888839108,1.3099535113214409,0.9146010743138848,1.4980360084621083,4.474420786215381,2.53378486110439,4.691277455428731
1570181197832889.0,3.0667793384983195,1.3461775046619155,1.298483712907814,0.9193127555635094,1.5015031383888369,4.437657537826436,2.4955801942414055,4.607863511314172
1570181197835048.0,3.0309288738820714,1.3347240798649391,1.2918835295126727,0.9248344128893471,1.501217132688333,4.398299411599906,2.452155502026367,4.535246277197929
1570181197835048.0,3.006348590294534,1.336178529685814,1.2864947908509912,0.9274693248052596,1.4999826011347475,4.361303935712176,2.40972169562688,4.470360046536793
1570181197846790.0,2.971804167769515,1.3286256115525694,1.2787890102488646,0.9304572776748948,1.5030967822292416,4.323875204368734,2.3671999045932504,4.410436192966217
1570181197846790.0,2.9407129583823415,1.3304823482462205,1.269927590217802,0.9328451344230357,1.5109442198466672,4.290994488462403,2.3259081725115203,4.348797111593153
1570181197855812.0,2.9003358214043935,1.3214397669768487,1.2604174185568016,0.9374079219744903,1.5218984903057977,4.265181256418275,2.282921958722086,4.2796045733627315
1570181197855812.0,2.8681762444457886,1.3213832106958352,1.2476809357533116,0.9401236522490097,1.535443659596698,4.24499418876433,2.242490817780039,4.206251032978191
1570181197878309.0,2.8274351544934846,1.3123999325621378,1.2331931543206336,0.945515022661937,1.5509156529661567,4.225776770897774,2.202556821794025,4.137601412868887
1570181197878309.0,2.7936251647248977,1.313064092395471,1.2198120058117752,0.9518629883989302,1.5619359189975166,4.2099043391202775,2.166052829114133,4.078811351868508
1570181197879308.0,2.7512949489424487,1.3032168749049493,1.2091016979877243,0.9610279512533683,1.565501647596249,4.197316309938797,2.1271930583473524,4.023841184184783
1570181197879308.0,2.7170401807728015,1.3017332954034007,1.2010831539089513,0.9666570768517544,1.5653970638998265,4.187370014307893,2.0910004463426684,3.977339336873637
