timestamp,emg1,emg2,emg3,emg4,emg5,emg6,emg7,emg8
1573315401059977,-9,-8,-8,1,0,-1,1,5
1573315401059977,-2,5,2,-4,-3,-2,1,7
1573315401072663,16,2,-3,-2,-3,1,1,0
1573315401072663,3,-10,-6,-4,-3,-3,-2,3
1573315401082423,3,2,2,-2,-2,0,1,6
1573315401082423,14,7,5,5,2,-2,-3,1
1573315401087303,32,3,-2,-4,-2,-1,-5,9
1573315401087303,-19,-2,-1,3,0,2,4,7
1573315401096086,20,2,4,4,3,-5,-11,-33
1573315401096086,-7,-8,-9,-5,-1,-1,1,9
1573315401101943,-17,2,-1,-3,1,2,3,-4
1573315401101943,9,4,1,2,2,0,-4,-10
1573315401110733,7,1,-1,-2,-3,-4,-1,4
1573315401110733,-9,-3,1,3,4,2,6,21
1573315401124416,-3,-2,1,0,0,-1,-1,-4
1573315401124416,14,7,-3,-2,-5,-2,4,13
1573315401134154,16,-8,-10,-6,-4,0,1,9
1573315401134154,-12,7,15,-1,-3,-4,-6,-15
1573315401146842,-13,-3,2,10,2,1,1,-13
1573315401146842,12,-11,-23,-8,-2,-2,-2,4
1573315401156602,-19,0,2,1,-1,-2,-2,2
1573315401156602,3,-2,-5,-4,-5,-1,-2,-20
1573315401194664,2,4,13,0,-3,-2,2,0
1573315401194664,-12,-1,0,2,-3,1,-1,-11
1573315401196617,-5,3,6,1,0,-1,2,9
1573315401196617,-13,-4,-7,-3,0,2,0,-6
1573315401216135,8,5,2,-5,-2,-3,-1,3
1573315401216135,-15,3,7,4,1,0,-3,-4
1573315401218100,-25,-8,-6,-4,-4,-1,-1,-18
1573315401218100,10,6,12,1,0,-1,-3,6
1573315401230774,4,3,-5,-4,-3,-1,-1,3
1573315401230774,0,-10,-16,0,1,-1,0,7
1573315401230774,-11,1,8,16,1,1,-1,-7
1573315401230774,-2,1,15,-18,-5,0,-1,-5
1573315401246415,-1,2,-15,-2,2,0,1,3
1573315401246415,-10,-1,4,8,4,-1,-2,-8
1573315401247370,20,2,1,0,1,-1,1,4
1573315401247370,7,-5,-7,1,0,1,0,7
1573315401261054,10,9,22,-5,2,1,0,0
1573315401261054,-3,1,-5,-1,2,1,1,0
1573315401262985,27,5,16,-2,-1,1,-1,7
1573315401262985,-33,4,-6,6,-1,0,-2,-16
1573315401274720,17,-4,-4,-4,0,1,-2,1
1573315401274720,-21,-21,-15,5,-1,-2,-5,-12
1573315401284460,20,6,8,-8,0,1,-3,7
1573315401284460,-7,7,-13,-16,-5,-5,-4,-13
1573315401285434,-21,-20,-27,-3,-3,-2,-4,-8
1573315401285434,-4,-3,-14,-14,-3,-2,-3,-11
1573315401291290,-12,-9,-10,2,3,4,3,5
1573315401291290,30,-8,14,10,-1,-1,2,10
1573315401304953,-10,22,14,8,-3,-8,-9,-7
1573315401304953,10,-7,2,-4,-1,0,0,0
1573315401313735,-6,7,6,11,6,1,-1,-7
1573315401313735,8,-2,-16,-21,0,1,1,2
1573315401327398,-2,-12,-5,-2,0,2,5,4
1573315401327398,13,31,28,12,-4,-5,-2,2
1573315401336182,-30,-46,-62,-1,4,0,-8,-4
1573315401336182,10,-6,8,12,2,-3,-19,-12
1573315401350822,0,-5,-14,-1,1,3,8,11
1573315401350822,3,7,21,-5,1,5,-1,-7
1573315401352773,-7,3,1,-4,-4,3,7,5
1573315401352773,-24,-10,-8,-3,-15,-17,1,-5
1573315401364497,3,9,12,-5,-1,-2,-8,-1
1573315401364497,-1,-5,-1,2,-4,1,2,10
1573315401373276,18,21,22,-8,-1,-1,-1,-1
1573315401373276,-11,-11,-30,6,10,6,4,-1
1573315401386940,3,7,28,3,-6,-1,1,0
1573315401386940,-15,-6,-21,-7,3,9,9,-2
1573315401396698,-1,-24,-42,-18,-3,12,-1,0
1573315401396698,9,12,12,7,3,-8,7,13
1573315401411336,1,8,1,-1,-6,-8,-9,-16
1573315401411336,1,-6,-7,4,-6,-21,-7,0
1573315401412312,-2,12,22,-3,-6,-5,0,-3
1573315401412312,1,-7,-4,2,2,7,1,2
1573315401425038,1,1,10,6,7,6,6,5
1573315401425038,-6,23,11,-9,4,10,1,-5
1573315401433439,-9,-2,-11,-7,-4,-8,-2,1
1573315401433439,-13,-33,-15,-4,4,2,0,-1
1573315401447098,10,11,23,10,5,1,2,3
1573315401447098,6,14,-4,-1,-5,-6,-6,-1
1573315401455879,7,1,0,1,11,2,3,6
1573315401455879,-24,5,1,2,4,4,0,1
1573315401471496,24,-11,-22,-16,-7,5,-3,-5
1573315401471496,16,12,14,-6,1,-3,6,11
1573315401472472,1,-14,5,5,-7,-8,-2,3
1573315401472472,-10,-15,8,4,4,4,2,1
1573315401485163,4,38,5,5,-10,-4,1,-2
1573315401485163,-30,-2,-9,-5,7,16,-3,-10
1573315401493953,21,1,10,-14,-2,11,3,2
1573315401493953,-10,-6,13,11,-10,-24,-5,-4
1573315401507610,3,18,-22,-10,-13,-26,-7,-5
1573315401507610,-3,-1,-21,-5,-7,-2,-4,-6
1573315401516390,-10,-15,2,-7,0,3,-5,-2
1573315401516390,-5,-40,6,-1,3,27,9,3
1573315401531028,8,22,10,6,9,10,2,4
1573315401531028,8,-24,16,11,0,-2,2,6
1573315401532981,-5,6,-9,2,-7,1,0,-3
1573315401532981,11,16,11,-5,0,1,5,1
1573315401544693,-19,-9,-10,16,8,-7,-6,-7
1573315401544693,-7,19,-9,-21,-12,-5,-8,-12
1573315401553484,-11,-24,-6,-2,-2,-9,-5,-12
1573315401553484,3,-3,9,3,0,0,3,1
1573315401567147,-20,-36,-14,4,5,7,12,18
1573315401567147,17,21,1,2,-1,-3,-4,-5
1573315401575928,-16,-11,-8,11,7,7,4,5
1573315401575928,40,48,-20,-12,-20,-28,-16,-18
1573315401590590,-8,-23,15,0,7,5,2,0
1573315401590590,-13,6,23,6,6,5,2,4
1573315401605229,23,43,-14,-11,-17,-25,-9,-12
1573315401605229,-5,-37,2,13,8,2,3,10
1573315401606187,-10,-10,-12,-14,-11,-1,-3,-11
1573315401606187,-29,-24,-1,5,-6,3,6,3
1573315401614013,21,-2,-6,-16,-15,6,-4,-5
1573315401614013,-9,12,6,9,21,12,0,-8
1573315401627657,9,38,21,5,4,11,2,8
1573315401627657,-15,-96,-26,8,-9,-30,-3,-1
1573315401636437,5,6,13,11,14,22,7,8
1573315401636437,-11,-7,-26,-9,-17,-4,-5,-7
1573315401651088,-4,-23,-6,-20,-28,-41,-9,-4
1573315401651088,-17,-28,1,7,19,15,-5,-4
1573315401653030,-1,22,28,8,-7,-9,5,9
1573315401653030,13,23,-14,0,10,21,2,0
1573315401664741,-9,16,-18,-9,1,-3,-12,-22
1573315401664741,10,14,11,6,12,-1,-5,-1
1573315401675477,-29,-38,-1,-3,-4,-9,-4,-15
1573315401675477,-26,-74,-2,-3,-3,12,9,13
1573315401687188,11,60,-2,-4,-3,-5,-5,-9
1573315401687188,27,45,1,-19,-34,-14,-4,-1
1573315401697925,9,-55,-8,12,17,10,0,9
1573315401697925,36,45,9,0,6,-3,-3,0
1573315401711589,-15,-67,-9,8,12,16,7,7
1573315401711589,26,58,7,-10,-3,5,-2,-3
1573315401715493,-3,-5,7,0,-9,-20,3,8
1573315401715493,-11,40,-15,-12,-1,9,-10,-22
1573315401725253,4,-39,-6,-1,-15,-35,-4,7
1573315401725253,19,11,9,13,9,13,8,12
1573315401735013,-13,5,1,-10,-10,-12,-4,-2
1573315401735013,-35,8,-5,-11,-11,-7,-2,-10
1573315401746731,-17,-45,3,17,19,29,12,12
1573315401746731,24,60,18,4,13,-7,-7,-6
1573315401756484,13,12,-2,-4,-2,0,-7,-7
1573315401756484,-11,-22,7,1,6,3,2,-3
1573315401771131,15,-25,0,2,4,6,-1,7
1573315401771131,10,-14,-10,-6,-3,-6,1,8
1573315401773080,-4,9,-1,8,2,22,6,1
1573315401773080,21,25,14,5,-6,-29,-11,-3
1573315401784795,-9,24,17,-7,2,-1,-5,-10
1573315401784795,-49,-57,-33,5,-4,-3,1,-8
1573315401793583,22,53,14,9,12,2,-6,-1
1573315401793583,12,1,2,6,1,23,4,-5
1573315401807265,-16,-39,-16,6,3,-23,3,9
1573315401807265,6,-4,14,0,0,2,-5,-11
1573315401816031,-28,6,-6,-8,0,8,3,-19
1573315401816031,34,36,2,4,-9,-12,-3,7
1573315401831676,33,24,11,10,14,20,3,13
1573315401831676,-11,3,7,5,17,17,4,16
1573315401832618,-18,-19,-11,1,6,-5,1,5
1573315401832618,18,-6,4,-13,-19,-25,-9,-1
1573315401844417,1,35,-14,-11,3,13,5,-5
1573315401844417,20,-3,-10,-14,-19,-12,-5,-14
1573315401854101,2,-34,8,11,15,10,3,-5
1573315401854101,0,36,-1,-1,0,0,2,5
1573315401867754,-9,-14,3,9,5,-1,-6,-17
1573315401867754,-1,-6,-4,-7,-6,-2,-1,7
1573315401883373,-3,2,2,0,1,-10,-3,-2
1573315401883373,-5,3,1,2,14,8,5,0
1573315401891178,-4,1,-13,-1,-11,-7,-6,-13
1573315401891178,3,-19,3,6,5,3,4,6
1573315401893127,18,42,2,-1,-5,-8,-3,2
1573315401893127,-15,-34,-2,-1,-5,-4,0,7
1573315401904839,1,13,8,-9,5,15,3,4
1573315401904839,14,38,5,7,1,0,7,6
1573315401913623,-9,-2,4,4,0,-8,-3,-6
1573315401913623,22,5,-14,-2,4,13,3,11
1573315401927289,-11,-29,-9,-10,-12,1,0,0
1573315401927289,-17,-23,-4,0,-6,-19,-1,1
1573315401936069,-18,33,4,-2,0,-2,-3,-3
1573315401936069,37,-4,13,8,6,2,4,10
1573315401950720,13,6,-5,-6,-6,6,2,7
1573315401950720,-11,-5,4,15,36,6,0,-3
1573315401952661,4,-4,-1,-2,-12,0,3,4
1573315401952661,-15,-18,-6,-5,-3,0,-7,2
1573315401964384,-21,-11,-9,-4,4,-10,2,12
1573315401964384,6,-1,3,-3,-9,-7,-2,-14
1573315401974136,2,-24,-11,-8,-8,3,4,11
1573315401974136,-7,26,9,10,7,1,0,-16
1573315401988781,0,5,-1,-4,-13,6,-1,-8
1573315401988781,-3,-9,0,2,6,15,1,3
1573315401994656,0,0,-12,-15,-28,-30,-9,-13
1573315401994656,-19,-25,-10,-13,3,8,4,8
1573315402011247,7,4,3,-3,0,-6,-3,4
1573315402011247,-8,1,9,4,-4,5,-2,6
1573315402013174,-12,-4,-2,6,-3,-14,0,-11
1573315402013174,20,8,-9,-9,-13,-15,-5,3
1573315402024972,-2,-10,-8,9,23,25,10,-13
1573315402024972,6,-11,-11,3,-6,7,8,-6
1573315402033672,8,3,-3,-3,-1,3,-3,-4
1573315402033672,-39,-5,11,-6,-4,-6,3,-12
1573315402047424,6,12,9,7,9,-5,-1,2
1573315402047424,-10,-10,-14,-22,-11,-5,-5,0
1573315402056126,-1,6,11,9,10,-5,-12,3
1573315402056126,22,-12,-10,0,2,5,-14,11
1573315402071744,0,-6,-6,-4,-1,8,-5,4
1573315402071744,-19,1,-8,-17,-37,-29,4,-9
1573315402072715,-9,-12,14,8,-8,-12,0,4
1573315402072715,-22,11,-1,-2,2,21,0,-2
1573315402085409,-24,-6,8,5,9,5,-5,-6
1573315402085409,-30,18,25,-9,-3,-10,-11,-25
1573315402094195,20,-29,-43,3,0,-2,5,-1
1573315402094195,-6,-9,2,-3,-12,-15,-4,-18
1573315402106871,0,4,13,7,8,30,18,7
1573315402106871,21,-5,-9,4,15,3,0,1
1573315402116630,-13,24,20,12,15,14,5,-1
1573315402116630,-11,3,6,13,18,-12,-13,-15
1573315402131276,-25,-18,-12,-20,-36,-15,-6,-20
1573315402131276,73,8,4,0,8,9,9,46
1573315402132247,-34,1,13,-24,-30,-16,-9,-13
1573315402132247,15,-25,-39,21,16,18,9,4
1573315402144977,-16,0,2,2,10,-18,-9,-15
1573315402144977,-32,-7,-8,-2,-16,-28,2,-18
1573315402153717,8,-1,5,4,-4,-15,-11,-5
1573315402153717,0,4,13,-14,-14,-10,6,5
1573315402167380,11,11,10,7,-8,5,-5,3
1573315402167380,-10,-30,-24,-5,13,23,-1,-2
1573315402176164,29,24,-3,-5,24,19,16,32
1573315402176164,9,16,36,3,3,-2,3,6
1573315402190843,-20,-32,-29,15,7,-8,-9,-1
1573315402190843,-32,2,8,12,20,12,0,-12
1573315402192755,-2,12,25,3,-3,1,4,23
1573315402192755,-14,-12,-37,-2,-11,-5,-4,-27
1573315402205445,14,18,20,-10,-20,-25,-7,3
1573315402205445,-3,-4,-6,-18,-13,-1,-3,-3
1573315402213265,3,-14,-14,4,22,36,2,-6
1573315402213265,10,20,17,0,-12,-25,-4,-4
1573315402226943,59,55,7,4,8,11,3,16
1573315402226943,-76,-82,-13,-4,-15,-10,-10,-22
1573315402236680,12,3,-10,-11,-15,-5,-1,-8
1573315402236680,-35,-44,-28,-27,-17,-21,-15,1
1573315402250369,25,5,4,10,35,22,4,-15
1573315402250369,5,8,5,7,6,14,5,25
1573315402257174,-10,-19,6,12,-13,-17,1,-4
1573315402257174,-17,0,4,5,6,7,-1,-37
1573315402264982,2,-15,-8,-4,26,39,18,29
1573315402264982,27,40,23,1,-22,-37,-8,-6
1573315402273767,17,-23,-45,-16,-33,-32,-14,-34
1573315402273767,-8,-3,2,-3,-5,-5,-4,-13
1573315402287438,16,4,-1,-3,-14,-15,-2,16
1573315402287438,57,30,25,2,22,40,13,11
1573315402296213,26,27,18,15,13,15,7,20
1573315402296213,-29,-2,-3,-7,-13,-4,3,10
1573315402309875,10,-23,-11,-5,4,-2,2,7
1573315402309875,-18,13,-20,-20,-24,-8,-15,-3
1573315402316708,8,-2,20,2,7,8,-2,-2
1573315402316708,14,31,5,-4,7,12,14,19
1573315402333306,-56,-40,-18,2,0,-4,-15,-39
1573315402333306,-12,-4,1,3,-14,-23,-3,-22
1573315402335252,-41,-16,-24,-24,-7,9,2,2
1573315402335252,36,-12,6,9,19,14,6,11
1573315402347941,-26,15,-6,-13,-42,-26,-8,-19
1573315402347941,0,-8,3,2,16,17,-1,-18
1573315402354796,-32,-6,3,15,25,25,5,-7
1573315402354796,-12,-4,5,-2,-17,-28,-3,4
1573315402370412,-34,4,-11,-29,-31,-26,-10,-19
1573315402370412,-14,0,2,11,1,9,4,20
1573315402377244,-4,-4,6,-8,2,-5,-12,-31
1573315402377244,-15,-1,-3,5,14,24,3,-2
1573315402393815,10,15,13,8,2,-7,4,6
1573315402393815,-8,0,11,2,-2,-8,2,6
1573315402399671,20,20,-20,-8,1,-2,-1,7
1573315402399671,8,-9,-7,1,2,7,4,11
1573315402407498,-6,32,19,-18,3,0,0,-7
1573315402407498,4,-22,-11,34,22,2,-5,-4
1573315402414331,-4,10,5,5,3,-1,4,-1
1573315402414331,17,-10,-3,-8,-9,9,-2,0
1573315402430910,-22,2,10,19,5,-12,6,7
1573315402430910,9,-4,5,-4,1,9,3,13
1573315402437743,-2,3,-2,-3,6,-2,1,3
1573315402437743,-11,-8,12,12,-2,-16,-3,-8
1573315402454334,55,25,-8,-13,-6,0,-6,-5
1573315402454334,58,4,-6,-7,-18,-23,-7,24
1573315402455304,-54,-4,1,0,6,2,-2,-15
1573315402455304,33,0,6,4,2,11,-3,6
1573315402468079,24,-2,2,7,-2,1,9,10
1573315402468079,-17,1,-13,-17,-12,3,-1,-15
1573315402474908,-12,-4,7,5,10,1,-2,-5
1573315402474908,-10,15,0,0,-5,-6,-3,9
1573315402490525,4,-26,-9,6,5,-2,0,2
1573315402490525,6,0,-3,-4,-5,4,5,4
1573315402497359,10,3,17,0,-6,5,4,15
1573315402497359,21,15,-9,-1,8,-5,1,3
1573315402513863,-18,-30,-18,-9,0,30,5,-5
1573315402513863,-26,22,-3,0,-13,-44,-10,-19
1573315402514839,36,-5,0,1,0,-9,-2,12
1573315402514839,54,11,15,-2,-3,3,4,11
1573315402528509,-5,-7,-4,-5,-4,1,0,0
1573315402528509,14,0,-9,7,19,19,8,10
1573315402534357,-4,-4,0,-8,-5,-4,-3,0
1573315402534357,-6,-2,-15,-5,-13,-6,1,-8
1573315402550953,-7,-1,12,4,-3,-6,-8,0
1573315402550953,-21,1,4,2,10,12,8,-3
1573315402556841,21,5,-11,-7,-11,-7,0,4
1573315402556841,-15,-11,-1,-7,4,16,3,3
1573315402573550,-2,-10,-5,2,-13,-15,0,3
1573315402573550,-2,9,10,3,10,9,6,-20
1573315402575348,24,4,-1,8,4,6,-13,-26
1573315402575348,-14,-3,2,3,6,0,9,32
1573315402588189,10,8,3,0,7,20,-2,6
1573315402588189,-16,-5,-5,-9,-10,-36,-5,6
1573315402601699,-7,-5,-3,-5,-16,-7,-7,-16
1573315402601699,-22,-11,-5,-8,4,13,0,-15
1573315402610524,-31,0,0,0,3,-9,-1,-16
1573315402610524,46,-3,2,5,0,4,5,17
1573315402617314,-41,-8,-7,-5,1,-5,-11,-16
1573315402617314,27,1,-6,-1,5,-2,-4,-6
1573315402634168,-14,-3,2,2,-11,-8,-11,8
1573315402634168,18,7,1,-3,3,11,2,0
1573315402634884,-12,-6,-3,-6,-2,-14,0,-3
1573315402634884,26,12,4,6,2,-13,-21,-32
1573315402647572,-5,-7,-6,-7,-10,3,18,35
1573315402647572,15,6,8,15,15,1,-14,-3
1573315402656359,-6,-7,-5,3,6,10,9,0
1573315402656359,-67,-12,-2,-4,1,14,11,-8
1573315402670995,36,2,4,6,4,-8,-4,6
1573315402670995,-26,-20,-14,-21,-22,-14,-6,-10
1573315402676852,-38,9,2,7,9,12,1,-11
1573315402676852,9,2,2,8,14,25,6,-2
1573315402693446,28,6,7,5,5,-39,-8,-19
1573315402693446,-9,0,-2,-1,-4,14,1,-3
1573315402696371,19,6,21,-2,8,16,6,-6
1573315402696371,-8,-24,-45,-20,-18,-19,0,-10
1573315402715893,-26,1,15,27,12,7,-12,-29
1573315402715893,11,0,-12,11,13,19,10,41
1573315402717842,30,-5,18,-9,-5,-8,1,17
1573315402717842,0,11,-8,-1,-11,-7,-6,41
1573315402730531,-16,-4,-1,-16,-20,-11,-4,2
1573315402730531,-5,12,21,4,-10,-9,0,1
1573315402738339,-2,0,-6,13,17,23,14,12
1573315402738339,-12,-17,-2,-5,2,2,-12,-18
1573315402753955,12,8,-1,5,24,-11,13,20
1573315402753955,16,-4,-3,-2,-3,2,7,25
1573315402754931,24,17,-11,-4,-8,-12,0,13
1573315402754931,-5,-3,15,19,13,12,13,-5
1573315402766643,55,20,17,0,-6,12,5,49
1573315402766643,-28,-9,-14,-14,-11,-8,-8,-14
1573315402776403,14,14,1,2,-3,-5,0,7
1573315402776403,-2,-1,10,12,10,3,14,40
1573315402790066,-64,-23,-27,-10,1,11,-2,7
1573315402790066,18,3,14,5,11,14,1,3
1573315402797875,-12,-14,-9,-4,0,-1,6,7
1573315402797875,-22,12,8,-1,3,-11,-5,5
1573315402814467,-9,11,3,-6,-9,0,1,-14
1573315402814467,-6,-15,-12,-6,17,10,-7,-15
1573315402818372,3,-9,-15,-4,-24,3,3,10
1573315402818372,4,-1,11,-6,-22,-12,4,-20
1573315402828130,49,-3,-10,-9,-4,-6,6,47
1573315402828130,19,12,5,12,-1,-6,-6,-7
1573315402837891,-34,-13,-10,-13,-5,-1,-6,-15
1573315402837891,37,18,22,21,19,-2,2,-1
1573315402850583,-43,-11,-6,-6,-7,4,-8,-23
1573315402850583,27,3,-6,3,7,7,10,46
1573315402857415,10,3,7,4,6,-3,0,13
1573315402857415,48,2,-12,-2,-3,8,-11,-1
1573315402874007,-20,0,10,-3,-13,-21,-8,-64
1573315402874007,-11,7,0,11,6,2,2,-1
1573315402874982,-13,-10,-6,3,9,-2,-6,-21
1573315402874982,-34,2,-3,-18,-17,-1,-5,-10
1573315402887670,-14,-20,-13,-1,-10,-14,0,-31
1573315402887670,5,3,2,-9,0,3,-6,-18
1573315402896456,-13,2,8,6,-24,-36,-5,-3
1573315402896456,-24,-7,-4,-5,21,9,-1,-4
1573315402910117,21,12,11,13,20,27,15,13
1573315402910117,7,-8,-9,-16,-12,-22,-10,-15
1573315402917926,13,-1,-2,1,-6,1,-1,4
1573315402917926,5,-13,2,-3,-1,0,1,-2
1573315402933540,-5,-7,-7,-3,4,4,-3,-2
1573315402933540,-29,-1,-4,-6,-3,-11,-4,-13
1573315402935491,-10,4,21,-4,12,11,3,-12
1573315402935491,14,2,-19,8,-7,-17,-6,3
1573315402947203,13,18,-3,0,5,16,1,5
1573315402947203,-24,-10,2,-4,-17,0,-4,-28
1573315402955988,-5,-5,-6,4,-7,-24,-3,5
1573315402955988,1,2,4,-16,-31,-13,-2,-5
1573315402970625,12,-5,7,11,14,4,-2,4
1573315402970625,-11,5,-17,-9,11,17,2,-3
1573315402977457,1,1,-2,-5,0,4,1,3
1573315402977457,-1,5,2,3,3,-3,-4,-11
1573315402994054,3,-3,-6,-3,3,11,2,-2
1573315402994054,-16,-11,7,6,-7,-19,-5,-6
1573315402995028,20,10,1,-4,-5,0,2,13
1573315402995028,5,-7,-3,1,2,-3,3,13
1573315403007720,-12,-4,-1,-2,2,4,-2,-8
1573315403007720,11,-2,4,-1,2,6,0,-18
1573315403016503,12,7,-11,0,7,11,1,6
1573315403016503,-6,2,7,7,0,-11,-1,3
1573315403030203,-1,5,9,-8,-7,-5,-8,-8
1573315403030203,0,-5,-15,2,5,5,5,4
1573315403036999,11,5,11,8,9,6,2,1
1573315403036999,-10,3,-3,-11,-6,0,-4,-6
1573315403053590,-23,-18,-28,-2,-6,-4,-3,-8
1573315403053590,0,10,18,4,0,-1,0,8
1573315403055538,23,-11,-7,-3,3,6,-4,-1
1573315403055538,-9,0,5,-4,-1,2,0,-2
1573315403067277,8,3,5,-2,-4,-4,0,5
1573315403067277,3,0,5,7,2,2,0,3
1573315403076042,-14,-9,-8,-5,-1,1,3,3
1573315403076042,8,3,1,4,1,3,1,1
1573315403090702,0,-9,-2,-1,-4,-2,-2,-4
1573315403090702,-1,2,-2,-3,-4,-1,-1,1
1573315403097534,-4,-4,0,-1,-2,2,2,16
1573315403097534,5,4,1,2,1,1,8,27
1573315403120957,17,7,2,0,-1,1,-4,-8
1573315403120957,-9,-2,5,3,-1,-2,-1,-3
1573315403122885,4,-2,-3,1,1,-3,-5,-16
1573315403122885,-4,-7,-8,-6,-4,-1,-4,-10
1573315403126792,-2,1,0,-1,-1,-4,0,3
1573315403126792,15,-1,0,-4,-1,0,3,16
1573315403136548,-14,-3,-3,0,-1,1,-5,-16
1573315403136548,1,-2,1,-1,-3,-2,-1,-1
1573315403150211,12,4,3,2,1,0,-2,0
1573315403150211,2,-4,-4,-3,0,0,-2,-9
1573315403157044,-3,3,-2,-1,0,-1,-1,3
1573315403157044,1,0,4,3,3,1,-1,-4
1573315403173636,-14,-5,-4,-3,-6,-4,-1,3
1573315403173636,-8,-3,-2,-2,-3,1,-1,4
1573315403175587,10,0,1,3,-1,-1,0,2
1573315403175587,-12,0,-2,1,0,-2,-1,-5
1573315403187298,-5,-2,-1,-2,1,-1,8,7
1573315403187298,-25,-9,-3,-3,-2,-1,6,34
1573315403196081,-4,-1,-1,3,-7,-2,-4,-3
1573315403196081,-24,1,-2,-1,9,0,-4,-12
1573315403210727,13,7,4,6,4,2,4,17
1573315403210727,-30,-4,-5,-3,-5,-2,-6,-49
1573315403217559,-8,-9,0,-5,0,-2,-8,-50
1573315403217559,18,9,13,2,-3,2,3,6
1573315403233170,-9,-15,-26,-6,-3,-3,-3,-4
1573315403233170,-1,0,3,0,4,0,6,7
1573315403240064,-2,4,-1,-2,-2,-4,-6,-9
1573315403240064,2,-5,4,2,-2,-2,-5,-12
1573315403256603,6,12,8,-2,2,0,-3,-14
1573315403256603,-3,-4,-4,-14,-12,2,-5,-11
1573315403257574,-3,1,-5,16,21,6,7,16
1573315403257574,20,5,8,11,4,0,0,15
1573315403271235,-19,-7,6,5,1,3,1,0
1573315403271235,17,-5,-14,-4,-3,-5,-6,3
1573315403277163,-22,-2,6,-4,-4,3,7,16
1573315403277163,18,12,-7,-7,1,0,4,-1
1573315403292779,-25,-31,-9,1,-1,-3,-6,-15
1573315403292779,-21,9,11,0,-7,-1,1,-5
1573315403299540,25,-6,-6,-4,-4,-3,1,30
1573315403299540,37,35,-11,-6,3,0,2,14
1573315403316204,-33,-40,-1,-2,-11,-10,-10,-16
1573315403316204,12,14,17,10,9,6,1,-5
1573315403318083,11,11,0,1,3,4,0,7
1573315403318083,-16,-12,1,2,-3,-3,-5,-9
1573315403330836,4,0,-6,-10,-7,-4,9,15
1573315403330836,5,-4,-3,3,4,-2,-8,-16
1573315403337609,25,27,4,1,0,1,6,14
1573315403337609,-15,-34,-5,-3,1,-1,-5,-8
1573315403353227,5,11,-1,-8,-3,0,2,2
1573315403353227,17,13,1,6,1,-2,-4,-14
1573315403360060,-31,-22,-6,-10,-9,-3,-3,-11
1573315403360060,7,11,2,-4,-8,-5,0,3
1573315403375666,-52,-48,-17,-1,4,1,-7,-9
1573315403375666,16,14,5,9,7,2,6,17
1573315403377618,-40,-20,-5,-6,-3,1,3,-2
1573315403377618,20,-1,-1,-6,-6,1,4,37
1573315403390305,34,28,19,13,7,2,-5,1
1573315403390305,5,13,-3,-1,-4,-1,-1,5
1573315403397137,-32,-23,3,1,2,0,-5,-34
1573315403397137,-33,-26,-12,-5,-2,-2,-2,-20
1573315403412757,29,32,7,-4,-5,1,0,6
1573315403412757,8,-22,-3,-2,2,0,1,16
1573315403419663,35,37,6,-2,-6,-2,-1,5
1573315403419663,-22,-13,-4,3,0,-2,-5,-13
1573315403436252,5,-4,-22,-15,-5,-3,-5,-4
1573315403436252,-1,-5,-1,-4,-4,-5,-4,-18
1573315403438133,9,4,-2,0,0,2,0,-1
1573315403438133,12,28,16,4,-2,0,2,-2
1573315403450837,-16,-9,4,6,0,2,0,-1
1573315403450837,-30,-25,-12,-10,-7,-3,1,-8
1573315403457658,8,13,7,7,6,2,-1,6
1573315403457658,10,16,-3,-7,2,15,5,2
1573315403473310,-5,1,1,4,-10,-25,-12,-12
1573315403473310,7,-4,-7,-5,12,18,2,7
1573315403480113,18,-9,-7,-4,0,1,2,3
1573315403480113,-58,-24,-4,1,-4,-7,-17,-60
1573315403495794,33,31,12,2,3,8,7,9
1573315403495794,9,31,6,0,-2,-4,-2,0
1573315403497669,-21,-52,-7,2,2,1,-1,8
1573315403497669,4,12,0,1,2,-1,0,-2
1573315403509387,8,20,9,-1,1,4,6,7
1573315403509387,-4,-17,-9,-7,-13,-9,-4,-12
1573315403519139,-18,1,-3,-6,-3,-2,-6,-16
1573315403519139,4,-5,-5,-3,2,-4,-3,5
1573315403532808,-10,-2,-1,3,5,0,-1,-19
1573315403532808,20,17,8,-1,-7,-1,5,25
1573315403539693,-5,6,6,13,12,4,4,4
1573315403539693,10,-18,4,4,5,-1,-7,-1
1573315403556231,24,23,1,0,4,7,5,5
1573315403556231,-37,-17,-12,-9,-7,-7,-7,-15
1573315403558179,19,13,-5,-6,-8,-4,0,3
1573315403558179,17,0,8,5,2,3,14,48
1573315403602143,13,-15,-3,0,-2,1,-2,5
1573315403602143,2,-5,2,1,-2,0,-3,-4
1573315403604050,24,4,-3,-7,-5,-4,1,26
1573315403604050,-15,-2,-4,2,1,3,0,-10
1573315403614845,3,-2,1,1,4,2,4,7
1573315403614845,-3,-2,3,6,7,0,3,9
1573315403624546,-1,1,0,-4,-2,-1,-3,-7
1573315403624546,-17,5,1,3,-2,-3,4,-4
1573315403625522,34,1,2,3,6,4,3,42
1573315403625522,0,0,-3,-4,-4,-4,2,0
1573315403630401,-15,7,3,2,-3,-1,-5,-6
1573315403630401,40,0,-4,-3,-4,-2,-1,3
1573315403631378,-31,-10,-1,-1,-1,-6,-7,-27
1573315403631378,0,0,6,10,5,3,2,-4
1573315403639186,20,-2,-7,-4,-10,-2,-3,-4
1573315403639186,-16,1,-3,-3,-3,-2,-5,-35
1573315403652888,-2,2,1,0,-4,-1,4,14
1573315403652888,-4,1,0,1,0,-1,0,-19
1573315403659741,30,5,1,1,2,0,4,33
1573315403659741,-15,-5,-3,0,-1,-3,-4,-14
1573315403676274,-17,-6,-1,-2,-3,3,-1,-25
1573315403676274,-2,1,-2,-3,-1,-1,-1,11
1573315403677249,-10,0,-1,0,-1,-1,2,-23
1573315403677249,-28,-10,-7,-5,-4,-3,-1,-17
1573315403689936,6,2,1,0,5,2,-1,8
1573315403689936,14,-3,-1,-2,3,0,1,18
1573315403696768,-31,-4,-1,-2,-1,-3,-4,-18
1573315403696768,4,-2,-2,-3,-1,1,7,22
1573315403713360,13,-1,0,0,-4,-2,0,0
1573315403713360,-4,0,3,4,2,2,2,22
1573315403720194,-9,1,-1,0,1,-2,-5,-10
1573315403720194,8,-6,-3,-5,-3,-2,1,-1
1573315403736785,-7,6,1,-3,-2,-2,-2,-9
1573315403736785,10,-1,0,-1,-4,-2,-3,-14
1573315403740689,-1,-2,-3,-1,1,2,3,27
1573315403740689,18,4,2,2,-3,-3,-1,17
1573315403751424,-4,0,-1,-3,-3,0,-1,27
1573315403751424,20,0,-1,0,1,-2,-14,-18
1573315403758257,16,4,1,1,1,-1,3,19
1573315403758257,-23,1,1,2,1,1,-3,-9
1573315403772899,3,2,-1,-1,-1,-2,-1,-7
1573315403772899,-23,-8,-2,0,0,0,2,0
1573315403779729,-7,2,1,-2,0,1,0,-9
1573315403779729,-4,0,0,0,1,3,1,2
1573315403796320,24,-6,-1,-2,0,-2,-3,2
1573315403796320,-2,2,-1,1,-2,-1,-1,-7
1573315403797297,9,-2,-3,-1,-1,-2,-3,-8
1573315403797297,6,-1,-1,0,-1,-2,-4,1
1573315403810009,-22,0,-1,1,-3,-1,1,-7
1573315403810009,-18,-4,-3,-5,0,-2,5,-24
1573315403826578,30,5,1,1,3,4,-2,15
1573315403826578,-17,-1,1,0,-2,-4,-3,-6
1573315403833416,-22,-2,-2,-2,-1,1,3,-12
1573315403833416,4,2,1,2,0,0,2,6
1573315403840247,-22,-8,-1,-3,0,0,2,-12
1573315403840247,-16,0,0,-1,1,0,-2,-26
1573315403855885,35,2,-1,-2,-1,0,1,23
1573315403855885,-15,-5,1,2,0,-2,-2,6
1573315403857811,7,0,-3,-2,-1,0,-2,-10
1573315403857811,3,-5,-2,-1,-1,1,4,7
1573315403878314,16,1,0,3,2,3,3,35
1573315403878314,2,0,-1,1,2,2,0,5
1573315403880258,-8,-3,0,0,-4,-3,-4,-12
1573315403880258,-11,-5,-4,-6,-5,-3,-5,-30
1573315403892974,-13,0,0,1,0,-1,0,-15
1573315403892974,16,2,1,-2,3,3,7,47
1573315403899786,32,2,-1,1,0,-2,-9,-13
1573315403899786,13,1,1,1,-1,-1,-3,12
1573315403916377,-20,-3,-2,-2,-2,-1,-3,-15
1573315403916377,-6,-3,-2,-2,-1,1,2,0
1573315403917346,-1,0,-1,-1,-1,-3,0,-20
1573315403917346,13,1,-1,-2,-2,-1,1,16
1573315403930033,-6,-3,3,1,3,0,-6,-28
1573315403930033,-5,-1,-3,-2,-1,-1,1,12
1573315403938819,-7,1,1,-1,0,0,1,-2
1573315403938819,-6,-2,-1,1,-1,1,2,32
1573315403952508,-9,-2,1,-1,-2,-1,0,3
1573315403952508,2,-4,-5,-2,-3,-1,-1,-10
1573315403959315,-15,-2,-1,0,0,-2,0,6
1573315403959315,6,2,2,0,1,1,1,-1
1573315403975915,9,0,-1,-2,-3,-4,-7,-6
1573315403975915,21,5,2,0,1,0,1,15
1573315403977857,-13,-1,1,1,-2,-1,-3,-1
1573315403977857,1,-1,-1,0,3,0,-3,-1
1573315403989573,2,1,-2,0,-1,1,-3,-12
1573315403989573,-14,-1,0,0,-2,0,2,-11
1573315403998353,4,2,1,0,1,-3,-5,7
1573315403998353,4,-2,-3,-2,0,-1,-1,0
1573315404012998,-8,0,1,-1,1,1,-4,-15
1573315404012998,16,2,2,3,1,2,1,17
1573315404019827,-4,-2,-2,-2,-1,1,3,3
1573315404019827,-6,-4,-3,-2,0,-1,-1,-2
1573315404036428,12,1,-1,-1,-3,-3,0,24
1573315404036428,-17,-4,0,-2,-2,0,-6,-18
1573315404037394,-5,-1,0,-1,-2,-1,0,-4
1573315404037394,-18,-2,-1,-1,-1,-2,-1,-3
1573315404050087,-8,-1,-1,0,1,0,6,-1
1573315404050087,-5,-3,-2,-3,-1,-4,-5,-25
1573315404058874,1,-2,-2,-3,-1,1,2,10
1573315404058874,-5,2,1,-2,0,-2,-5,-21
1573315404072555,8,1,0,1,0,0,1,-17
1573315404072555,1,-2,-2,0,1,0,-5,-3
