timestamp,emg1,emg2,emg3,emg4,emg5,emg6,emg7,emg8
1570179696592982,0,-1,-2,0,0,-1,0,0
1570179696592982,0,-1,-3,-1,-1,-1,-2,-1
1570179696597970,-1,0,0,-1,-1,-1,-2,-2
1570179696597970,-1,-3,1,0,1,0,-1,-2
1570179696599965,-5,-1,-2,0,0,0,-1,-10
1570179696599965,2,0,0,-1,0,-1,1,4
1570179696600962,1,-1,-1,0,0,-1,1,1
1570179696600962,0,0,-1,-1,-3,-1,0,5
1570179696620962,-1,-1,1,0,-1,-2,-1,1
1570179696620962,-2,-2,-2,0,0,1,0,-2
1570179696624235,-1,0,-1,0,0,0,-1,-2
1570179696624235,0,0,-1,-1,-2,1,1,0
1570179696625922,0,-1,-1,-1,-1,-1,0,1
1570179696625922,6,2,3,1,-1,-2,-13,11
1570179696641145,2,-2,0,-1,-1,0,3,15
1570179696641145,-2,-2,0,-2,-1,0,-1,-6
1570179696649836,0,0,-1,0,-1,0,-3,0
1570179696649836,-2,-1,-1,-2,0,-1,3,-7
1570179696672808,-2,0,-2,-2,-2,-1,-2,-5
1570179696672808,0,0,0,-1,1,-1,-4,2
1570179696673775,-1,-1,-1,-3,0,1,3,4
1570179696673775,-4,-1,-2,-1,0,-1,1,-5
1570179696686734,2,-1,1,-1,1,0,3,-1
1570179696686734,-4,-1,0,0,-2,0,1,-1
1570179696687731,1,1,0,-1,-1,0,-1,-2
1570179696687731,-3,-2,-1,-2,-2,0,2,-8
1570179696733607,0,0,-1,1,1,0,0,-1
1570179696733607,2,1,-2,-1,0,0,0,6
1570179696734642,-3,-1,0,1,1,-1,-1,-1
1570179696734642,0,-1,-1,-1,0,-1,1,0
1570179696735641,0,-2,1,-1,-1,-1,-2,-3
1570179696735641,1,1,-1,-1,-2,0,1,-1
1570179696738593,-1,-1,-2,-1,-2,-1,-1,1
1570179696738593,0,0,1,1,-1,0,-1,-1
1570179696745575,1,-1,-1,-1,0,0,2,-1
1570179696745575,3,2,1,1,-1,-4,-16,7
1570179696754551,-1,-3,-3,-2,0,-2,-4,-12
1570179696754551,0,0,0,-1,-1,-2,0,0
1570179696761150,1,0,0,0,0,-2,-1,8
1570179696761150,-5,-1,-1,-1,-1,-2,2,-18
1570179696777490,-1,-1,-1,-1,-1,0,0,2
1570179696777490,-1,0,0,-2,-1,0,-2,-1
1570179696783541,-2,0,-4,-3,-2,0,3,5
1570179696783541,-1,-2,0,-1,0,-3,1,-2
1570179696806416,4,1,-1,-1,1,0,4,4
1570179696806416,-2,-2,-1,-1,-1,-2,0,-3
1570179696807410,-5,-1,-3,-1,-2,-2,2,-4
1570179696807410,-1,-2,-2,1,-1,1,2,4
1570179696821376,1,0,0,-1,-1,-1,-1,-1
1570179696821376,-1,1,0,2,1,-1,0,10
1570179696822423,0,-2,-1,-3,-1,2,4,-1
1570179696822423,-1,-2,2,0,-1,-1,1,-4
1570179696844311,-2,-1,0,1,-2,-2,2,1
1570179696844311,0,-1,-1,-3,-1,0,1,1
1570179696845309,5,0,2,1,-1,-1,-6,5
1570179696845309,1,-1,-2,-1,1,1,1,-8
1570179696867253,1,-2,-2,1,0,0,-4,4
1570179696867253,-3,-1,-2,-1,-1,0,1,-11
1570179696867253,-1,1,-1,-1,2,-1,-3,-6
1570179696867253,1,-1,0,-1,-1,0,2,7
1570179696882209,-1,0,1,0,-2,-1,-2,-1
1570179696882209,2,-1,-1,-2,0,0,-2,0
1570179696882209,-1,-2,0,-1,-1,-1,-1,1
1570179696882209,-3,1,-1,-1,0,-1,-2,-4
1570179696904207,-2,0,0,0,0,-2,-1,0
1570179696904207,0,-1,0,0,1,-1,0,4
1570179696905148,-6,-3,0,-1,0,-1,5,-16
1570179696905148,7,2,0,1,2,-1,-11,20
1570179696927089,0,1,-1,-1,0,0,0,0
1570179696927089,-1,-1,0,-1,0,0,0,3
1570179696927089,-4,0,-1,-1,-2,-2,-3,-16
1570179696927089,-3,-2,-1,-2,-2,0,3,-6
1570179696942049,0,-1,-1,-1,-1,2,1,1
1570179696942049,1,0,0,0,0,-1,-2,5
1570179696942049,-2,-2,1,-1,0,-1,4,4
1570179696942049,1,-1,-1,-1,-1,0,0,-1
1570179696964022,-1,-1,0,-1,-2,-3,-4,-2
1570179696964022,-1,-1,-2,-1,-1,-1,0,-3
1570179696964988,1,0,0,-1,-1,-1,-3,3
1570179696964988,-5,-2,-1,0,0,-1,3,-6
1570179696986969,-1,-3,-3,0,2,1,2,1
1570179696986969,0,2,0,-2,0,-1,-3,-4
1570179696987953,0,1,0,-1,-2,0,-1,4
1570179696987953,-1,-2,-1,0,-3,0,2,2
1570179697008909,-2,1,-1,-2,-3,0,1,-4
1570179697008909,-5,-2,0,-1,-1,-1,-4,-23
1570179697010302,2,1,0,0,0,0,-3,11
1570179697010302,-1,-1,0,-2,1,-1,0,-8
1570179697023867,2,1,0,1,0,0,-5,8
1570179697023867,0,-2,-1,-1,-2,-1,0,0
1570179697025021,0,1,-1,0,-1,0,0,2
1570179697025021,-2,0,0,0,0,-2,-5,-3
1570179697046806,-3,-1,0,0,0,-1,0,-5
1570179697046806,0,0,-1,0,0,-1,-2,3
1570179697047805,-1,-1,-2,-1,1,-1,-3,-3
1570179697047805,-4,-1,-2,-2,-2,1,5,1
1570179697061776,-2,1,-1,-1,0,-2,-1,-8
1570179697061776,1,0,0,0,-2,-1,-1,3
1570179697062727,0,0,-1,-2,-2,0,0,0
1570179697062727,-2,-1,-1,0,-1,-2,0,1
1570179697083671,-4,1,0,0,1,0,0,-5
1570179697083671,-1,-1,0,-2,0,1,0,0
1570179697084973,0,-1,0,0,0,-2,-1,-1
1570179697084973,4,-1,-2,0,-1,-2,0,9
1570179697106653,2,0,-1,0,-2,0,1,7
1570179697106653,1,0,-2,-1,-2,-1,-1,3
1570179697107747,-3,-2,1,-1,1,-1,-1,0
1570179697107747,-3,-1,-1,-2,-1,2,-1,-5
1570179697121630,0,1,1,-3,0,-1,-2,0
1570179697121630,-1,1,-2,0,-1,1,1,-2
1570179697122570,0,-1,-2,0,0,-2,0,-1
1570179697122570,0,1,-2,-1,1,0,-1,-3
1570179697144510,0,-2,0,-1,1,1,0,-2
1570179697144510,-2,-1,-1,0,-2,-2,0,0
1570179697144510,-1,-1,0,-1,-2,0,-2,-3
1570179697144510,0,0,0,0,-1,0,0,-2
1570179697166450,-2,-1,-2,-2,0,-1,3,-6
1570179697166450,3,1,1,0,3,-1,-10,7
1570179697167447,-2,-1,-2,-2,0,0,-2,-7
1570179697167447,0,-1,0,0,-1,0,-1,-3
1570179697181408,0,-2,0,-1,-3,0,-1,1
1570179697181408,1,-2,-1,0,0,1,3,3
1570179697182433,-2,1,-2,3,0,0,-1,-2
1570179697182433,-2,0,-1,-2,-1,-1,-4,-2
1570179697204386,-1,1,0,-1,-1,-1,0,0
1570179697204386,-1,-2,-1,0,-2,-1,2,-2
1570179697205347,-2,-2,-1,0,-2,0,-5,-14
1570179697205347,-1,-1,1,-1,0,1,3,-2
1570179697226344,4,-2,-1,0,-1,0,-1,10
1570179697226344,-4,1,0,-1,-1,-1,1,-6
1570179697227591,-1,0,0,0,0,0,1,-5
1570179697227591,0,0,0,0,-1,-1,-2,1
1570179697241249,0,0,0,0,-1,-1,-2,-3
1570179697241249,-3,-1,-1,0,-1,0,-3,-2
1570179697248283,2,0,0,0,-1,-1,0,11
1570179697248283,0,-1,-1,0,-1,0,0,0
1570179697264226,0,0,0,-1,-1,0,-1,2
1570179697264226,0,-1,-2,-1,0,1,2,-1
1570179697265218,-1,0,-1,-1,-1,-2,0,0
1570179697265218,2,-3,-3,0,-1,0,2,0
1570179697287130,-4,-2,-1,-1,1,0,0,-4
1570179697287130,-3,-3,1,-1,0,-1,1,-3
1570179697287130,0,-1,-2,-1,-1,1,1,0
1570179697287130,0,1,0,-2,-1,-2,-2,4
1570179697301091,-1,0,-2,0,0,-3,-1,0
1570179697301091,-2,-1,0,-1,-1,-1,0,0
1570179697308111,1,-1,-2,-1,0,0,4,0
1570179697308111,4,3,2,1,-1,-3,-11,7
1570179697324028,-2,-2,0,0,-1,0,0,-2
1570179697324028,1,-1,0,-1,0,-2,0,-2
1570179697325226,-1,-1,0,-2,-1,-1,2,-1
1570179697325226,-5,-1,-1,-1,-1,0,3,-5
1570179697347004,-1,-1,0,0,-1,0,-2,-2
1570179697347004,3,-1,0,-1,-1,1,-2,7
1570179697348239,2,0,-1,-2,0,0,-2,3
1570179697348239,-2,-1,-2,1,0,0,0,-2
1570179697360967,0,-1,-1,0,0,-1,-1,1
1570179697360967,-1,-2,-2,0,1,-1,3,-2
1570179697368912,-1,-2,-2,0,-1,0,-3,0
1570179697368912,-1,-1,0,0,-1,0,1,-3
1570179697383868,-4,-1,-2,-2,0,-1,0,-9
1570179697383868,5,1,-3,0,0,0,0,7
1570179697384910,-1,0,1,-1,-1,-1,-2,1
1570179697384910,0,0,-3,-1,-1,1,-1,1
1570179697406845,-5,-1,-1,-1,-1,-1,-1,1
1570179697406845,1,0,0,-1,-1,0,-2,-14
1570179697407842,-1,0,0,0,-1,-1,0,1
1570179697407842,-3,0,-1,-1,-1,0,2,-2
1570179697420829,0,-1,1,0,0,1,-1,1
1570179697420829,-1,1,0,-3,-1,0,-1,-3
1570179697428748,0,-1,-1,0,-1,-1,0,3
1570179697428748,0,0,-1,-1,-2,-2,1,-3
1570179697444134,1,-2,0,0,-2,0,-2,1
1570179697444134,-2,-1,-1,-1,-1,-1,-3,2
1570179697444706,-1,-1,-1,-1,1,1,-2,-3
1570179697444706,1,-1,-1,-2,1,0,0,0
1570179697467258,-2,0,0,0,0,-1,-2,2
1570179697467258,-1,0,1,2,-2,0,0,2
1570179697467644,0,0,0,0,0,0,1,2
1570179697467644,-2,-1,-2,0,1,0,0,-1
1570179697480651,2,0,-1,-1,-2,0,1,-1
1570179697480651,-2,-2,0,-1,-1,-3,-1,-2
1570179697488589,-1,-2,0,-1,-1,-1,0,-2
1570179697488589,3,-2,-1,-2,0,0,0,2
1570179697505544,2,0,-1,-2,1,1,1,8
1570179697505544,-8,-1,-2,-1,0,1,-3,-7
1570179697506593,2,1,-1,0,0,0,-2,2
1570179697506593,-4,-1,0,0,-1,-1,-1,-4
1570179697526518,-3,-2,0,0,1,-2,1,-7
1570179697526518,4,0,1,-2,1,-2,1,11
1570179697527574,-4,-3,-1,0,-2,-2,-4,-17
1570179697527574,-2,-1,-1,1,-3,-1,-1,-2
1570179697541461,-2,1,-2,-1,1,1,0,-4
1570179697541461,-1,1,0,-1,0,2,1,1
1570179697548433,-5,-2,-2,-1,-2,-2,-1,-6
1570179697548433,1,1,-2,-1,-1,0,1,5
1570179697564385,-2,-4,-2,-3,-1,0,9,-7
1570179697564385,-3,-3,-1,-1,-1,-2,-5,-10
1570179697565387,0,1,1,0,0,1,7,8
1570179697565387,5,0,0,0,0,1,0,9
1570179697586365,3,-1,-1,-1,-1,-2,1,5
1570179697586365,-5,-1,-3,-2,-2,-2,0,-4
1570179697587327,-2,0,-2,0,0,0,3,-6
1570179697587327,0,-1,-1,-1,0,-2,-8,-2
1570179697601287,-4,-1,-1,-1,0,-1,0,-15
1570179697601287,5,2,2,2,1,-1,1,15
1570179697608306,1,-2,-1,-2,-1,0,-1,1
1570179697608306,0,0,-1,0,0,-1,1,-1
1570179697624264,-2,-3,-1,0,-3,-2,-3,0
1570179697624264,0,1,0,0,0,-2,-4,5
1570179697625223,-1,0,0,1,1,-1,-1,7
1570179697625223,-4,0,0,0,0,0,-1,-3
1570179697647168,1,2,1,-1,-2,0,-5,-3
1570179697647168,0,-2,-2,-3,0,1,5,3
1570179697647168,1,0,0,0,-1,0,-1,2
1570179697647168,-3,-2,-1,-2,-2,0,0,-9
1570179697669105,-1,-1,0,1,-1,-1,-3,-5
1570179697669105,1,-1,-1,-2,0,-1,0,-1
1570179697670395,0,0,-2,-1,1,0,-1,1
1570179697670395,-2,-3,1,0,-1,-1,-1,-4
1570179697684459,0,1,0,0,0,0,0,5
1570179697684459,-1,-1,-2,0,-1,1,-1,-4
1570179697685064,-3,-2,1,-1,-1,0,-1,-3
1570179697685064,-2,-2,-1,-1,0,0,3,-3
1570179697706007,3,0,-1,1,0,1,-4,7
1570179697706007,-1,-1,0,0,0,1,0,-10
1570179697714023,-1,-1,0,-1,0,1,14,2
1570179697714023,1,0,-1,-1,1,-1,-5,3
1570179697728982,-2,-2,-1,0,0,0,2,-2
1570179697728982,-1,-2,-2,0,-1,-1,-1,0
1570179697730022,-1,-1,-2,-2,-1,-1,-2,2
1570179697730022,-2,-1,-1,-1,0,0,0,-11
1570179697752882,3,1,-1,0,-1,-2,1,8
1570179697752882,-3,-1,0,0,0,0,-1,0
1570179697752949,0,0,-1,0,-1,-2,-4,-2
1570179697752949,0,-1,-1,-3,-1,0,1,2
1570179697765850,-6,-1,-1,-1,0,-1,-3,-11
1570179697765850,1,-2,-1,0,-1,-2,0,-1
1570179697773863,0,-1,-2,1,0,-2,-4,-1
1570179697773863,1,0,1,0,-1,-1,0,10
1570179697788868,-1,1,0,-2,-1,0,1,-4
1570179697788868,-3,-1,0,0,1,0,1,-1
1570179697789783,0,-1,-1,-1,-2,0,-5,-2
1570179697789783,-2,-1,-3,-1,1,0,-2,-6
1570179697812757,2,-2,0,0,-1,-3,0,-1
1570179697812757,1,0,-1,-1,0,0,-3,3
1570179697812757,0,-1,-1,-1,-1,-2,-1,3
1570179697812757,-2,0,0,1,0,0,2,2
1570179697825691,-1,-1,-2,-2,0,1,-5,3
1570179697825691,-1,-1,-2,-2,-2,-1,0,-1
1570179697833664,-1,-1,0,-2,0,-2,-1,-7
1570179697833664,0,-2,0,1,0,-1,-2,1
1570179697849627,1,0,-1,0,-2,-1,3,2
1570179697849627,2,-1,-2,0,-1,1,0,4
1570179697849886,-1,-1,0,0,-1,1,-1,3
1570179697849886,1,-1,-1,-3,0,-1,1,-3
1570179697872562,1,1,0,0,0,-1,-3,4
1570179697872562,0,-2,-1,-1,0,1,-2,-6
1570179697873558,-1,-1,2,-1,-1,-2,-4,-1
1570179697873558,0,-1,0,0,-1,1,0,-1
1570179697886524,0,-1,0,2,0,0,-2,-5
1570179697886524,3,-1,-1,0,0,-1,2,14
1570179697894540,-2,-2,-2,-2,0,0,-2,-1
1570179697894540,-2,1,-3,0,-1,0,0,-2
1570179697909467,-3,-3,0,-1,-1,2,9,3
1570179697909467,-5,0,-2,1,-1,-1,-2,-9
1570179697910460,0,0,-2,0,0,1,0,1
1570179697910460,-2,0,0,-1,0,-1,-1,2
1570179697932401,-3,0,1,-1,-3,-3,-5,-3
1570179697932401,2,-1,2,-2,-2,-1,-1,3
1570179697933592,-1,-1,0,0,-2,1,1,-1
1570179697933592,-1,-1,0,-1,0,-1,1,-4
1570179697946364,-2,0,-2,-2,0,0,3,-2
1570179697946364,1,0,1,-2,0,-1,0,-4
1570179697954381,3,2,0,1,1,0,-1,17
1570179697954381,-4,-1,-1,-2,1,-2,-1,-7
1570179697969303,2,1,-1,0,-1,1,0,2
1570179697969303,-3,1,-2,-2,0,-2,3,-2
1570179697970300,0,-1,-1,0,-1,1,-1,-2
1570179697970300,0,0,-1,-1,-1,0,2,-1
1570179697992416,4,-2,-1,-1,1,2,-2,6
1570179697992416,-4,-3,-1,0,-2,2,3,-2
1570179697993336,-1,-1,-2,0,1,0,2,1
1570179697993336,1,-1,-1,-1,-1,-2,1,2
1570179698006242,5,0,2,2,-1,-2,-6,-5
1570179698006242,3,2,-1,0,0,-1,0,7
1570179698014220,-1,-1,0,0,-1,0,0,-5
1570179698014220,-1,-2,0,0,-1,-2,-2,2
1570179698029143,-1,-1,-1,-2,2,-1,0,4
1570179698029143,0,1,-2,-1,-1,-1,-2,-6
1570179698030190,-1,0,-1,-1,0,-2,-1,-3
1570179698030190,6,0,1,0,0,0,-13,8
1570179698052778,-5,-1,-2,-1,-2,-3,0,-7
1570179698052778,0,0,0,-1,-1,0,-3,-4
1570179698053079,-2,-2,-1,-2,-1,-2,3,-3
1570179698053079,-3,-1,-2,0,-2,1,1,-4
1570179698066082,-3,0,-1,-2,-2,-2,0,-1
1570179698066082,0,-1,0,0,0,-1,-3,3
1570179698074087,0,0,-1,0,-1,1,0,-5
1570179698074087,-1,-1,0,0,-1,0,2,1
1570179698089020,2,0,-1,0,0,0,-4,-6
1570179698089020,-6,-1,-2,-2,-3,-2,-3,-23
1570179698089980,2,-1,-2,-1,0,-2,-1,5
1570179698089980,1,-1,-1,-2,0,0,1,0
1570179698119903,-2,-1,-1,-1,1,1,2,6
1570179698119903,0,0,1,0,0,0,-3,1
1570179698120959,0,1,-1,1,-1,-1,-2,-5
1570179698120959,0,-1,-2,-2,-1,-1,0,1
1570179698134899,-4,-1,0,0,0,-1,11,0
1570179698134899,2,-1,-2,-1,-1,-3,-4,2
1570179698135858,-1,-1,1,-2,0,0,-1,6
1570179698135858,0,1,0,1,-1,-1,2,1
1570179698149823,0,0,-1,0,-1,1,0,-1
1570179698149823,-2,0,-2,-1,0,0,0,3
1570179698150822,-1,1,-1,-3,-1,-2,0,-2
1570179698150822,1,0,0,1,0,-1,0,-3
1570179698172815,-2,-1,-1,-2,0,-1,1,4
1570179698172815,3,0,-1,0,0,1,-2,-1
1570179698172815,-1,-1,1,0,0,0,-2,-4
1570179698172815,-2,-2,-1,-1,-1,-1,0,6
1570179698194703,0,0,-2,0,-2,-2,-3,-2
1570179698194703,1,-2,0,-2,0,0,1,2
1570179698195698,1,0,0,-1,-1,-2,1,-1
1570179698195698,0,0,-1,-1,-1,0,-2,-4
1570179698209689,1,-1,-1,-2,-1,1,-5,3
1570179698209689,-1,-1,0,1,-3,-1,0,0
1570179698209689,0,0,-1,0,-1,-1,-3,-6
1570179698209689,2,1,-1,0,-1,-2,-15,6
1570179698232599,-2,0,-1,0,0,0,-2,-10
1570179698232599,5,0,0,-1,-2,-3,-11,23
1570179698233596,-1,0,0,1,-2,-1,1,0
1570179698233596,-1,0,-2,-1,-1,-1,0,-14
1570179698254634,2,1,1,-1,0,1,1,2
1570179698254634,-2,-1,-2,-1,-1,-2,1,-3
1570179698255925,0,0,0,-1,-1,-1,-2,-4
1570179698255925,3,1,0,0,0,0,-7,8
1570179698269538,-4,-1,-1,2,-1,-2,-3,-7
1570179698269538,-2,-2,0,-1,1,-1,4,-8
1570179698270497,2,-1,-2,-1,-2,0,0,2
1570179698270497,-6,-3,-1,0,-1,1,6,-9
1570179698292441,1,-2,0,1,-2,-1,-2,6
1570179698292441,-1,0,-1,1,0,0,1,-1
1570179698293436,-2,0,-1,0,-1,0,-2,-1
1570179698293436,2,-1,0,-2,0,0,2,6
1570179698315377,0,-2,0,-1,0,1,1,-1
1570179698315377,-3,-1,-1,0,0,-1,-2,-9
1570179698315377,0,-1,0,-2,-1,1,2,4
1570179698315377,0,-1,-2,-1,-1,-2,4,2
1570179698329340,0,0,-1,0,-1,-1,-1,7
1570179698329340,-3,0,1,1,-1,-1,1,-18
1570179698330342,-4,-1,-2,-1,0,-1,2,-3
1570179698330342,3,-1,1,1,-2,-1,1,5
1570179698352315,0,-1,0,-1,1,-2,-1,5
1570179698352315,-1,-2,0,-1,0,0,1,1
1570179698353404,-1,-1,-1,0,-2,1,0,-1
1570179698353404,-4,-1,-2,-1,0,-1,-1,-3
1570179698375256,0,0,-1,-2,-2,-1,-1,-1
1570179698375256,0,0,-1,-2,0,1,3,5
1570179698376215,1,-3,-2,-1,-2,-2,-4,-2
1570179698376215,-4,0,0,-2,-1,-2,-2,2
1570179698389252,-1,-2,-1,-1,-2,-2,-2,-16
1570179698389252,-3,-1,-4,-1,-2,1,0,0
1570179698390180,1,0,0,1,1,-1,1,3
1570179698390180,-2,-2,-1,-1,0,0,0,-6
1570179698412156,-1,0,0,1,2,-1,-2,4
1570179698412156,0,-1,-1,0,-1,0,2,-4
1570179698413117,3,0,-1,-3,-1,0,0,6
1570179698413117,-2,0,-1,-1,-2,-1,0,-4
1570179698435060,0,-1,0,-3,0,0,2,1
1570179698435060,1,-1,-1,-1,-3,-2,-2,3
1570179698436189,-2,1,1,0,-1,0,-1,-2
1570179698436189,-1,0,0,0,0,0,-1,-1
1570179698449111,1,0,-2,-2,-1,0,-1,6
1570179698449111,-3,0,0,0,-1,1,-4,7
1570179698450017,-3,0,-2,-2,1,-4,-2,-5
1570179698450017,3,0,-2,0,-1,-1,2,5
1570179698471996,2,0,0,1,0,0,0,11
1570179698471996,1,-1,-2,-1,0,0,2,2
1570179698473394,-4,-1,1,0,-1,-1,-1,-1
1570179698473394,0,1,-2,-2,1,1,0,0
1570179698494897,-2,-2,-1,-2,-2,1,1,-9
1570179698494897,1,2,0,-1,-1,-1,1,7
1570179698495946,2,0,3,1,-1,0,-2,0
1570179698495946,0,0,0,0,-1,-1,2,-2
1570179698508861,-4,-2,-1,0,0,-1,-2,-9
1570179698508861,1,-1,0,-2,0,-1,-1,-1
1570179698509857,0,-2,-2,0,0,-1,-2,-1
1570179698509857,-3,-2,-1,-1,-3,0,-2,-5
1570179698532797,0,1,-1,-1,0,-2,0,-2
1570179698532797,-2,0,0,-1,-1,-1,-2,-6
1570179698532797,-2,-1,-1,-2,1,0,6,4
1570179698532797,-1,-2,-2,-1,-1,-3,0,-2
1570179698554740,-2,0,-3,1,-3,0,0,1
1570179698554740,-2,0,-1,-3,-1,-2,-5,-13
1570179698555766,1,1,-2,-1,-1,0,-3,2
1570179698555766,-1,-1,-1,0,0,0,1,-2
1570179698569697,-2,-1,-1,0,-1,-1,-1,-2
1570179698569697,0,0,-1,-1,-1,-1,3,2
1570179698570305,-6,-2,-1,2,-2,0,1,-4
1570179698570305,5,0,0,0,-2,-2,-4,4
1570179698592674,2,2,-2,0,0,-2,-2,3
1570179698592674,0,-2,1,-1,-1,-2,0,-1
1570179698593637,-2,-1,-2,-2,-2,-1,-4,-1
1570179698593637,-5,-3,1,-1,0,1,2,-4
1570179698614808,0,-1,-1,-2,-1,0,-1,-1
1570179698614808,2,0,1,1,1,-2,-3,4
1570179698615575,0,-1,-1,-1,0,-1,-1,-5
1570179698615575,-2,-1,1,2,2,1,2,5
1570179698629576,2,0,0,1,-1,-1,1,2
1570179698629576,-2,-1,-2,-1,-1,0,-3,0
1570179698629576,-1,-2,-1,-1,-2,-1,0,-5
1570179698629576,-2,0,0,-1,-1,1,-2,-6
1570179698652545,0,-1,1,-2,-3,-1,-1,0
1570179698652545,-2,1,1,-2,1,-1,0,1
1570179698653474,-2,-3,-1,-1,0,-1,-3,-8
1570179698653474,-2,-3,-2,1,-1,-1,-1,-1
1570179698675417,-1,0,2,-3,0,1,-2,-9
1570179698675417,-1,-1,-1,0,-1,1,0,-2
1570179698676416,0,1,0,-2,0,0,1,1
1570179698676416,0,-1,-2,-4,-2,-1,-1,2
1570179698688418,0,-1,-2,-1,0,0,0,2
1570179698688418,-2,-1,-2,1,-1,-1,-1,-4
1570179698696396,5,2,-1,0,-1,0,-4,6
1570179698696396,-1,0,-2,0,0,0,1,0
1570179698712316,0,-1,1,1,1,1,0,-2
1570179698712316,0,-2,0,-1,-1,-1,3,-6
1570179698713400,7,0,-2,-1,1,0,-8,20
1570179698713400,4,1,0,0,0,-1,-5,5
1570179698735345,-1,-2,-3,-3,0,-1,-1,0
1570179698735345,-3,0,-2,-2,0,-1,3,-6
1570179698735345,-2,-1,1,0,-3,0,4,-4
1570179698735345,-3,0,-1,-2,-2,-1,0,-7
1570179698748408,1,0,-1,0,0,0,0,8
1570179698748408,1,0,-1,0,-2,-3,-2,-2
1570179698757196,-6,-2,-2,-1,-1,-3,1,-9
1570179698757196,0,0,0,-2,0,-1,1,0
1570179698772193,-4,-1,-1,0,-2,0,0,-2
1570179698772193,-2,-1,-3,-2,-1,1,0,4
1570179698773333,1,0,-1,0,-1,1,0,-3
1570179698773333,-3,-1,1,0,-1,-2,-3,-6
1570179698795188,0,-1,0,-2,-2,0,-1,-3
1570179698795188,-1,-2,0,-1,0,1,0,5
1570179698796095,2,-2,-1,-1,-1,-1,-2,2
1570179698796095,-2,0,-1,0,-1,1,5,3
1570179698809057,6,2,-2,-1,-1,-4,-14,6
1570179698809057,5,3,0,1,-1,-1,-2,11
1570179698817037,-4,-3,-1,-2,-1,-1,2,-5
1570179698817037,-1,-3,-2,-2,0,-1,2,-4
1570179698832000,-3,-2,0,0,2,1,2,-3
1570179698832000,-1,-1,-1,-2,-1,-1,-1,-3
1570179698832993,-1,2,-1,-2,1,-1,-2,1
1570179698832993,0,0,0,0,-1,0,-3,-2
1570179698854938,-7,-1,-2,-1,-2,0,9,-11
1570179698854938,0,0,2,1,0,-1,-2,3
1570179698855936,-1,0,0,2,-1,-2,1,-3
1570179698855936,-1,-1,0,-1,-1,0,-2,0
1570179698868900,-4,-3,1,0,1,-1,1,-4
1570179698868900,-6,-2,-1,-2,-2,-2,-4,-18
1570179698876876,-1,-2,-1,0,-1,1,4,-4
1570179698876876,7,3,1,3,1,-3,-13,7
1570179698892835,1,2,0,1,-1,-1,-3,3
1570179698892835,-1,-3,-2,-1,-1,-1,1,0
1570179698894173,0,1,0,0,-2,0,2,9
1570179698894173,-6,-4,-2,-3,-3,-2,4,-7
1570179698922791,1,1,1,0,0,0,2,-2
1570179698922791,0,-1,-1,0,0,0,-3,3
1570179698923753,2,-1,-1,-1,0,1,1,4
1570179698923753,-1,-1,-1,0,-1,0,2,-4
1570179698928740,1,-2,-1,0,-2,-1,-2,0
1570179698928740,-3,-1,1,-1,-1,0,1,-1
1570179698945304,-2,-1,0,-2,0,1,0,-4
1570179698945304,-1,-1,0,-1,-1,1,1,-2
1570179698952673,-1,-1,-1,-1,0,-3,0,8
1570179698952673,-1,0,-1,-1,0,-2,0,2
1570179698953670,-2,-1,-1,0,1,-2,-3,-4
1570179698953670,0,0,1,-1,-1,-1,0,2
1570179698975076,6,3,0,1,1,-3,-15,10
1570179698975076,1,-1,0,-1,1,-2,1,3
1570179698976610,-9,-3,-2,-2,-3,0,5,-12
1570179698976610,0,-2,-1,0,-1,-1,0,-4
1570179698988616,-1,-3,-3,-2,0,1,4,0
1570179698988616,2,-1,-1,1,-1,-2,-4,-4
1570179699005534,0,-1,-2,-2,-1,1,-1,-1
1570179699005534,-2,1,-2,-1,0,-2,1,-2
1570179699012515,-3,-1,-2,-2,0,-1,3,-3
1570179699012515,-2,-1,-2,-2,-2,0,-1,-4
1570179699013536,-3,-1,0,1,-1,-2,0,-8
1570179699013536,5,-1,2,0,0,1,-1,4
1570179699034491,-1,-1,-1,-1,1,-1,-1,-1
1570179699034491,-2,1,-1,0,0,1,0,-1
1570179699036453,1,1,3,-1,-1,-1,-1,2
1570179699036453,-4,-1,-2,-1,1,0,-1,-3
1570179699048454,-1,0,-1,-3,-1,-2,-2,-17
1570179699048454,3,0,2,1,-1,-1,-7,13
1570179699057394,0,-2,0,-2,0,-2,-1,1
1570179699057394,0,0,-1,0,0,1,0,-2
1570179699072423,1,-2,0,2,-2,-1,0,0
1570179699072423,-1,1,-1,-2,-2,-2,3,-1
1570179699074351,0,-1,0,-1,2,-1,-2,0
1570179699074351,-1,0,-2,-2,-1,-1,0,0
1570179699095331,0,0,-1,0,-2,2,6,10
1570179699095331,0,1,-1,1,0,1,1,-2
1570179699096290,3,0,-1,1,-1,-1,-2,3
1570179699096290,-2,0,-2,-1,1,1,2,-7
1570179699117319,-1,0,0,-2,-1,0,1,2
1570179699117319,-1,0,0,0,-2,-1,-2,1
1570179699119230,-4,0,-1,0,-1,0,-3,-4
1570179699119230,-2,-1,0,-1,0,-2,-1,-2
1570179699132383,-2,-1,1,-1,0,0,-2,-4
1570179699132383,3,-1,-1,-3,1,1,3,2
1570179699134189,0,1,-2,-1,0,-1,1,-1
1570179699134189,-3,-1,-1,0,-2,-2,1,5
1570179699155135,3,1,0,0,2,-1,-3,3
1570179699155135,2,2,2,2,0,-2,-17,6
1570179699156129,5,1,-2,1,1,-1,2,10
1570179699156129,-2,-1,-1,-2,-2,-1,-1,-5
1570179699177075,0,-1,-1,-2,-2,0,-2,-3
1570179699177075,-3,-1,0,-1,1,-1,6,-5
1570179699179112,-2,-2,-1,-3,-2,-2,-6,-9
1570179699179112,2,1,0,0,-1,1,-2,2
1570179699192034,-1,-2,-1,-1,-3,-1,3,5
1570179699192034,-2,-2,-1,-3,-1,1,2,-5
1570179699199014,-2,-2,-1,1,-2,-1,-1,0
1570179699199014,0,-1,-1,-1,-1,-1,1,1
1570179699214972,-5,-1,-1,-1,-3,-2,-1,-7
1570179699214972,-1,-1,-2,0,-1,-1,2,0
1570179699216969,0,1,0,-3,-1,-2,-1,-1
1570179699216969,-1,0,0,0,0,-1,-4,-11
1570179699236916,0,-1,0,1,0,-1,0,4
1570179699236916,0,1,-2,-1,1,-1,-1,-1
1570179699238911,-1,1,-3,-1,0,2,1,-1
1570179699238911,-4,-1,-2,-1,0,2,12,-13
1570179699250878,-4,-2,0,0,-1,-1,-5,-11
1570179699250878,0,-2,-2,-2,0,1,3,2
1570179699260216,2,-1,2,-1,-1,-2,0,5
1570179699260216,-2,-1,-1,-3,-2,-1,3,2
1570179699274814,0,0,0,0,-1,-1,1,4
1570179699274814,-1,1,-1,0,-2,0,1,-2
1570179699276841,-2,-1,-2,0,-2,-2,-3,-3
1570179699276841,0,0,0,-1,1,-3,-5,3
1570179699297788,0,-1,-3,-1,-2,-2,-1,1
1570179699297788,-4,-4,-2,-2,-2,-2,3,-14
1570179699298787,1,-1,-1,-1,-2,0,2,5
1570179699298787,1,-1,-1,0,-1,0,-4,3
1570179699311716,0,0,-1,0,0,0,-3,-2
1570179699311716,-1,-2,0,-1,0,-2,0,1
1570179699318736,-5,-1,0,-1,-1,0,-1,-8
1570179699318736,2,0,0,0,0,0,-1,7
1570179699334653,3,1,1,0,0,0,-1,4
1570179699334653,0,1,0,0,-2,0,-2,-2
1570179699336693,-3,0,-1,-1,0,0,-1,-2
1570179699336693,5,0,1,1,-1,-1,-5,10
1570179699357591,0,-2,-1,-1,2,-2,2,2
1570179699357591,0,-1,0,0,0,1,2,4
1570179699358658,3,-1,-2,-1,-1,2,0,1
1570179699358658,-2,-3,-1,-1,-1,-1,1,-1
1570179699371592,-3,-2,-3,-1,-1,1,1,-3
1570179699371592,-3,-1,-1,0,-1,-2,0,-1
1570179699378534,-2,-1,-1,1,-1,0,-1,2
1570179699378534,1,1,-2,-2,1,-1,-1,-4
1570179699394529,3,0,0,-2,-1,0,3,15
1570179699394529,2,-1,-1,1,1,-1,-4,5
1570179699396487,-2,0,0,0,0,-2,-1,-4
1570179699396487,0,-1,-1,-3,-1,1,-1,2
1570179699417432,1,1,1,0,-1,-1,-1,-5
1570179699417432,-2,-1,0,-2,-3,-1,-1,-6
1570179699419427,4,0,0,-2,-1,-1,1,5
1570179699419427,-2,-2,-1,0,0,-1,-1,-4
1570179699431431,-2,0,-1,-2,-2,0,3,-5
1570179699431431,4,0,-1,0,1,-3,-12,8
1570179699438378,-1,0,0,1,-1,-2,0,3
1570179699438378,0,-2,-2,0,-2,0,-3,-7
1570179699455389,-4,1,0,0,-1,1,0,-9
1570179699455389,1,-1,-1,0,0,-1,4,4
1570179699456327,4,2,0,0,0,-1,-7,6
1570179699456327,-1,1,0,1,-2,0,-2,4
1570179699477272,-1,-2,-2,0,-2,-1,-3,-10
1570179699477272,2,0,-1,-1,0,1,6,8
1570179699479265,0,-2,-4,-1,0,-1,1,-5
1570179699479265,3,1,1,-2,-2,-1,2,12
1570179699492234,1,1,0,0,0,0,-4,-2
1570179699492234,-3,-1,0,-2,-3,-1,1,-3
1570179699498252,0,0,-1,-2,0,0,4,5
1570179699498252,-2,1,0,1,-1,-3,-2,-4
1570179699515208,-4,0,-1,-3,-2,0,3,-8
1570179699515208,-4,-3,-2,-2,1,1,4,-4
1570179699516166,3,-1,2,1,0,-1,-10,6
1570179699516166,4,0,-1,1,-2,0,1,1
1570179699537113,0,-2,-1,0,-1,-1,0,2
1570179699537113,-3,-1,1,0,-1,-2,0,-13
1570179699539157,-3,0,-1,-1,-2,0,2,-7
1570179699539157,-1,0,0,-2,1,1,-2,0
1570179699552074,-1,-2,0,-1,-1,-1,-3,7
1570179699552074,0,0,-1,-1,0,-2,-2,3
1570179699558057,-2,-2,-2,-1,-1,-1,2,-3
1570179699558057,-2,0,0,-1,0,0,-2,-2
1570179699575044,2,0,-3,-4,-1,0,4,3
1570179699575044,1,0,-2,-1,-2,-1,0,4
1570179699576046,0,-2,-1,-1,-2,-1,2,-4
1570179699576046,-4,-2,-2,1,-1,-2,0,-10
1570179699597143,-2,-3,1,0,1,-1,-3,-2
1570179699597143,0,-1,0,0,1,0,0,1
1570179699598945,0,-3,0,-2,0,0,-1,-4
1570179699598945,-8,-3,-4,-3,-3,0,14,-23
1570179699610994,1,1,0,1,0,-1,-6,0
1570179699610994,1,1,-1,-1,-1,0,0,2
1570179699619916,-3,-3,-2,1,0,2,2,-1
1570179699619916,-3,-1,-1,-1,-2,0,2,5
1570179699634911,-3,0,-1,-1,-2,-1,3,-9
1570179699634911,-1,0,-2,0,0,-1,2,3
1570179699636948,-1,-1,0,-2,0,-1,-1,-3
1570179699636948,0,0,-1,-1,0,-1,-6,5
1570179699657788,-2,-1,-2,-1,-1,0,-2,-3
1570179699657788,2,1,0,-1,-2,-1,-5,0
1570179699658785,-4,0,-2,-1,-1,0,-1,-3
1570179699658785,5,-1,-1,-1,-1,-1,1,13
1570179699670790,-2,-1,1,1,2,-2,-3,-2
1570179699670790,1,-3,-1,0,-1,-2,1,-1
1570179699679756,-2,-1,0,-2,0,1,6,-7
1570179699679756,0,1,2,1,2,-1,-11,-2
1570179699694693,2,-1,-2,1,-3,-1,0,4
1570179699694693,-4,0,-1,0,0,0,-2,-7
1570179699696685,-1,-1,-1,1,-2,-2,1,2
1570179699696685,1,-1,0,2,-1,1,3,21
1570179699717628,2,-1,-1,-3,-1,-1,0,2
1570179699717628,1,-1,0,0,0,-1,-2,1
1570179699718629,1,1,0,1,-1,-2,-4,2
1570179699718629,-2,1,-2,-1,0,-1,-1,-6
1570179699730631,1,1,-1,1,-2,0,1,6
1570179699730631,-1,1,0,0,-1,0,0,-3
1570179699739592,-6,-2,-1,0,-1,-2,1,-17
1570179699739592,6,1,0,0,0,1,-5,7
1570179699755526,-3,-1,0,0,0,1,-1,-8
1570179699755526,-2,-2,0,-1,-2,0,-1,-7
1570179699756523,0,-1,-1,-2,0,-1,-1,4
1570179699756523,-1,-1,-1,-1,0,-1,-1,-4
1570179699776470,2,1,0,-1,3,-1,-6,11
1570179699776470,-1,-2,-2,-1,-1,0,-1,-1
1570179699785449,1,0,-1,0,-1,-1,-3,2
1570179699785449,0,-2,-3,-1,-2,-2,-3,-3
1570179699791433,-2,-2,0,1,-2,0,2,-1
1570179699791433,-5,-1,-1,-2,-1,-2,-2,-21
1570179699800436,2,0,2,-1,-1,-2,1,7
1570179699800436,-1,-1,0,-1,0,-1,4,1
1570179699815039,1,-2,-2,0,0,1,-1,-4
1570179699815039,0,0,0,-2,0,-1,-2,1
1570179699816740,0,-1,-2,-2,0,-1,0,0
1570179699816740,-3,1,1,1,-2,0,-4,-2
1570179699837307,-1,-4,1,-2,0,-1,0,0
1570179699837307,1,1,0,0,1,2,0,5
1570179699839302,1,-1,-1,-1,-1,1,-3,2
1570179699839302,-3,-2,-1,-1,-2,-1,2,-1
1570179699851353,-1,-1,0,-1,-3,-1,0,-2
1570179699851353,-2,-2,-1,-1,-1,0,1,0
1570179699860248,1,-1,-1,0,-1,-1,0,1
1570179699860248,3,-1,-1,-1,0,-1,-4,-5
1570179699875208,-1,1,-1,-1,1,-2,-1,0
1570179699875208,3,-1,-2,-2,-1,-1,-9,11
1570179699876711,-3,-1,0,1,-1,0,-2,-4
1570179699876711,-1,-1,1,-2,-1,1,2,-3
1570179699897148,-2,1,-1,-1,0,1,-2,1
1570179699897148,3,0,-1,0,1,0,2,5
1570179699899142,0,-2,-2,0,-1,-1,1,7
1570179699899142,-1,-1,-1,-1,0,-1,-1,-6
1570179699911204,-2,-2,-3,-1,0,1,5,0
1570179699911204,-4,1,0,1,-2,-1,3,-5
1570179699926108,3,1,-1,-1,0,-1,-3,1
1570179699926108,0,1,-1,-1,0,-2,0,1
1570179699935050,-2,-3,-1,-1,-3,-3,-5,-7
1570179699935050,-1,-2,-2,0,0,0,3,-3
1570179699936683,-1,-1,-1,0,-2,-1,-1,1
1570179699936683,-2,0,-2,-1,-1,0,1,-1
1570179699956988,1,-1,1,-1,-1,-1,0,-2
1570179699956988,1,0,-2,0,0,1,-1,4
1570179699959017,-3,-1,0,-3,-2,0,0,-8
1570179699959017,0,-1,-2,1,-2,-1,0,0
1570179699970950,1,1,-1,1,0,0,0,2
1570179699970950,0,-3,1,-2,0,-1,2,1
1570179699979927,0,-1,1,-2,1,1,0,1
1570179699979927,-3,-2,0,2,0,-1,0,-2
1570179699994885,-6,-2,-1,-4,-1,-2,1,-19
1570179699994885,5,1,0,0,-1,-1,1,12
1570179699996883,-2,0,-1,2,0,-1,-1,-8
1570179699996883,-2,0,0,0,1,-1,-3,1
1570179700017841,-1,0,1,0,-1,-1,1,0
1570179700017841,-6,-1,1,0,-1,1,-3,-2
1570179700018827,4,-1,-1,-2,-1,0,2,5
1570179700018827,0,1,1,-2,1,-1,0,-4
1570179700040114,4,1,-1,0,0,0,-2,10
1570179700040114,-2,-2,0,0,-1,0,0,1
1570179700041763,1,1,0,1,-1,-2,-1,1
1570179700041763,0,-2,-1,-3,-1,1,1,2
1570179700054729,3,0,-1,-1,0,-1,0,6
1570179700054729,-2,-1,-2,-1,0,-2,-2,-4
1570179700056723,-1,-1,-1,-1,-1,-2,-2,-4
1570179700056723,-3,-1,0,-1,-2,1,-1,-10
1570179700077668,-2,0,-1,-1,-1,-2,0,4
1570179700077668,-1,-1,-1,0,-3,-1,1,-5
1570179700079112,1,1,0,0,-1,0,0,9
1570179700079112,-2,0,-1,-2,-1,0,-1,-7
1570179700100745,1,-3,1,1,1,1,0,0
1570179700100745,-1,-1,-1,0,0,-2,-3,2
1570179700101601,-5,1,0,-1,-1,1,-1,-5
1570179700101601,0,0,-2,-1,-1,-1,-3,-1
1570179700114567,2,0,0,2,1,0,0,6
1570179700114567,-2,-1,-2,1,-1,1,3,-7
1570179700116560,-2,-1,-2,-1,0,0,0,-4
1570179700116560,2,-1,-2,-1,0,-1,3,7
1570179700137544,-2,-1,-2,-1,-2,-1,-2,-6
1570179700137544,3,0,-1,-1,-1,-1,-2,4
1570179700138570,-6,-2,0,-2,-1,-1,-2,-10
1570179700138570,4,1,0,1,-2,0,-2,7
1570179700159448,-1,-2,-1,-1,-2,-1,3,1
1570179700159448,4,2,0,1,0,0,-3,8
1570179700161699,-1,0,-2,-1,-1,-3,-4,-2
1570179700161699,-2,0,-1,-1,1,-2,-3,-3
1570179700174410,-6,-2,-3,-1,0,2,11,-14
1570179700174410,0,-1,-1,1,-2,0,-4,-5
1570179700181390,-1,-1,-1,-2,-1,0,-1,-11
1570179700181390,2,0,1,1,0,-1,1,5
1570179700197454,-2,0,-1,0,0,-1,-1,1
1570179700197454,-2,-2,-1,-2,1,0,0,-5
1570179700203395,1,-3,-2,0,-1,0,-2,-1
1570179700203395,-5,-2,-2,-3,-1,1,0,-7
1570179700220351,1,1,1,-1,-2,-2,-4,9
1570179700220351,-1,0,-1,-4,-1,0,3,-4
1570179700221282,-2,-1,0,-1,-2,-3,-5,-6
1570179700221282,0,-1,1,1,-1,-1,1,-2
1570179700233837,0,0,1,-1,-1,-1,-5,3
1570179700233837,-1,-1,0,0,-2,-1,-1,0
1570179700240820,-1,-1,-1,-2,1,2,5,6
1570179700240820,-2,-1,-1,1,0,1,-2,-2
1570179700256775,0,-1,-2,0,0,-1,-3,-5
1570179700256775,-1,-1,-1,-1,-1,0,1,-2
1570179700263893,2,1,-1,-2,0,-2,7,10
1570179700263893,5,0,0,-1,-1,-2,-9,6
1570179700279840,1,0,0,1,2,-1,-3,8
1570179700279840,-3,1,1,0,2,0,0,-2
1570179700281711,-2,-3,-1,0,-2,-1,1,0
1570179700281711,-1,-1,-1,0,-2,0,2,-3
1570179700294674,0,0,-1,-1,-3,0,-2,-9
1570179700294674,4,1,-2,-1,-1,-2,-4,9
1570179700300741,5,1,1,2,-1,-1,-8,6
1570179700300741,-1,0,-2,-1,0,1,2,-3
1570179700317652,-4,0,1,1,-1,0,-3,-7
1570179700317652,1,-1,-1,-2,0,-2,0,3
1570179700318649,-2,-1,-1,0,0,-2,0,-1
1570179700318649,1,0,-2,-2,-1,0,2,6
1570179700339557,-1,-2,-2,-2,1,1,1,1
1570179700339557,-3,-1,-1,0,-1,1,0,-6
1570179700341608,3,1,1,0,1,0,1,16
1570179700341608,-2,0,0,-1,0,-1,0,-1
1570179700354552,-1,0,1,0,-2,-3,-1,-1
1570179700354552,-7,-2,-1,-1,-2,1,10,-13
1570179700361498,2,-1,-2,-1,-1,0,-4,-4
1570179700361498,-1,-1,0,-1,-1,0,2,-2
1570179700377493,-2,-1,0,-2,0,-1,-3,-4
1570179700377493,2,0,0,1,0,-1,-2,2
1570179700379789,0,1,0,-1,0,0,-1,-2
1570179700379789,-3,-2,0,1,0,-1,0,-2
1570179700399397,-2,-1,-2,-2,-2,-1,1,-3
1570179700399397,-4,-2,-1,-2,-1,-1,-3,-6
1570179700401454,-3,-1,-2,0,-1,0,2,-6
1570179700401454,2,0,1,-1,0,0,-1,6
1570179700414391,3,0,0,0,1,-1,-2,3
1570179700414391,-2,1,1,-1,-1,0,-4,1
1570179700421336,0,0,0,-2,-1,-1,2,13
1570179700421336,1,0,-1,0,-2,-1,2,-1
1570179700437318,-6,-3,-2,-3,0,1,4,-3
1570179700437318,1,0,-1,0,1,-1,-2,4
1570179700439290,-2,-2,-1,1,1,0,-2,-9
1570179700439290,-2,-2,0,-1,1,1,-4,-2
1570179700460268,1,1,-2,1,-2,0,4,0
1570179700460268,4,1,1,2,-1,-1,-12,4
1570179700461230,-1,1,0,-1,0,-1,1,-5
1570179700461230,-1,-1,-1,0,0,-1,0,-3
1570179700474194,1,-1,0,0,0,0,1,2
1570179700474194,-1,0,0,-2,0,-1,3,-5
1570179700481210,-1,-2,-1,0,-2,1,-1,1
1570179700481210,-1,0,1,0,-2,-1,-1,2
1570179700497136,1,1,1,-1,0,0,-2,5
1570179700497136,-2,-1,-2,1,-2,-1,-1,-10
1570179700499163,-4,-4,-3,-1,-2,-2,-1,-6
1570179700499163,-4,0,-2,-1,1,0,-1,-3
1570179700520072,6,0,0,3,-2,-1,-2,7
1570179700520072,-2,0,0,-1,0,-1,1,-1
1570179700521158,-3,0,1,-1,-1,-1,-1,-4
1570179700521158,-4,-2,-1,0,-1,-1,0,-5
1570179700534075,0,-1,-2,0,-1,0,1,0
1570179700534075,2,1,0,0,-1,-1,-14,2
1570179700543013,1,1,1,0,1,-2,-1,-1
1570179700543013,1,0,-1,-1,-1,-3,0,1
1570179700558011,-2,1,-1,-1,0,-1,-2,-4
1570179700558011,-1,0,-1,-1,-1,0,6,0
1570179700558974,-1,0,1,0,0,1,1,1
1570179700558974,0,-1,-2,-1,-1,0,-1,1
1570179700580146,4,0,0,2,-2,-2,-9,0
1570179700580146,-4,-1,-2,-1,-2,0,0,-1
1570179700586103,3,-1,-1,0,-2,0,-1,12
1570179700586103,0,0,-1,-2,0,0,0,0
1570179700594119,-3,-1,0,-2,1,-1,-2,-12
1570179700594119,-1,0,0,-1,0,-1,2,4
1570179700602860,-1,1,0,2,0,-1,-1,-3
1570179700602860,0,-2,-1,0,-2,-1,-1,-5
1570179700618111,0,0,-1,-2,-1,0,1,6
1570179700618111,-2,-2,-1,0,0,-2,1,2
1570179700619904,-3,0,0,-3,0,0,0,-10
1570179700619904,2,-2,-3,-3,0,-1,0,5
1570179700639757,1,0,-1,-1,0,1,0,0
1570179700639757,-1,-1,-1,0,1,0,-1,-5
1570179700641754,0,-2,-1,-3,-2,1,0,4
1570179700641754,0,0,1,1,-1,-1,-1,-2
1570179700653720,-1,2,1,0,0,0,-1,0
1570179700653720,-1,-1,-1,-1,-2,0,2,-2
1570179700662735,-6,-4,-4,-1,-1,2,11,-14
1570179700662735,0,1,1,-1,0,-2,-6,0
1570179700677845,-2,0,1,1,0,-3,-2,-8
1570179700677845,1,0,-2,-2,-1,2,3,5
1570179700678652,2,1,0,-1,1,0,-3,2
1570179700678652,0,0,0,0,-1,0,0,-2
1570179700700790,-2,-1,-1,-2,-1,0,0,0
1570179700700790,2,1,-1,0,0,-1,-1,1
1570179700701593,1,0,0,0,-2,-1,-3,0
1570179700701593,-2,-2,0,-3,-1,0,0,1
1570179700713557,0,-3,-1,-1,-1,0,-1,1
1570179700713557,-2,-1,-2,0,-1,0,1,-2
1570179700722535,2,1,0,-1,-2,-2,-1,5
1570179700722535,0,0,-1,-1,-2,0,0,-1
1570179700737500,-1,0,0,-1,0,0,0,-3
1570179700737500,-1,-1,0,-1,0,-1,-1,-3
1570179700739486,4,1,-2,1,1,1,0,18
1570179700739486,0,0,-1,-1,-1,-1,1,2
1570179700759434,-1,0,-2,0,0,0,-1,-1
1570179700759434,3,-1,0,0,-2,2,1,-1
1570179700761513,-3,1,1,1,-1,-1,-6,-6
1570179700761513,1,0,0,-1,-2,-1,1,5
1570179700782374,-1,-2,0,-1,1,0,-1,-10
1570179700782374,0,-2,0,-1,0,-1,-1,7
1570179700784513,-2,-1,0,0,1,-1,-1,-5
1570179700784513,-6,-1,-2,0,0,0,-3,-11
1570179700797705,3,2,-1,-3,-2,-2,1,3
1570179700797705,-2,-2,-2,0,-2,0,0,-2
1570179700799367,0,-1,-2,-1,-2,-1,-3,-5
1570179700799367,1,0,0,1,0,1,-1,7
1570179700834233,-2,-3,-1,-1,0,-1,-1,2
1570179700834233,-3,1,-1,-1,-1,-2,0,-5
1570179700844206,1,-2,-1,0,-2,0,0,3
1570179700844206,-1,0,-1,0,-2,-1,-1,-3
1570179700845205,-2,0,0,1,-2,0,-2,2
1570179700845205,1,-1,-1,-1,-2,1,1,4
1570179700849196,-1,-1,-1,-2,0,0,-1,-5
1570179700849196,0,-1,0,-2,-1,-2,-2,-2
1570179700857218,-3,-1,-2,-1,-2,0,-4,-13
1570179700857218,4,2,2,0,1,-1,-14,9
1570179700859167,-3,-1,-1,-1,1,-1,1,-2
1570179700859167,-1,0,0,-1,1,1,0,-4
1570179700880112,0,-1,0,0,-2,-1,1,8
1570179700880112,-2,-2,-1,0,-2,0,1,-5
1570179700881108,-3,-2,-1,-1,-3,-1,-1,-7
1570179700881108,3,-1,-1,0,1,0,-2,3
1570179700893122,-1,-2,-1,-1,-2,0,3,1
1570179700893122,-1,1,0,-1,-1,-3,1,-3
1570179700903050,1,0,1,0,-2,0,-2,2
1570179700903050,-5,-3,-1,-1,-1,1,4,-4
1570179700917012,4,2,1,1,0,-1,0,6
1570179700917012,-2,-1,-1,0,-1,-1,1,-3
1570179700919096,5,1,0,-1,-1,-2,-6,7
1570179700919096,-3,0,-1,0,0,0,-1,0
1570179700940035,-3,-1,-1,0,-1,0,1,0
1570179700940035,0,0,0,0,-1,0,2,1
1570179700941947,0,-2,1,1,1,0,2,-2
1570179700941947,1,1,0,1,-2,-1,-1,2
1570179700962892,-2,0,-1,-2,-1,-1,0,2
1570179700962892,-3,-2,-4,0,-1,0,-1,-5
1570179700963935,-4,-1,-2,-2,0,0,1,-1
1570179700963935,2,-1,0,0,-2,-1,0,2
1570179700977851,-2,0,0,-1,0,0,1,6
1570179700977851,0,-1,-1,-2,-1,0,-2,-3
1570179700978849,0,-1,-2,-1,-1,1,1,0
1570179700978849,1,0,1,1,0,1,-2,-1
1570179700999847,-1,-2,-1,-1,-1,-1,-2,-4
1570179700999847,-1,0,0,-2,-2,1,3,-2
1570179701001785,-4,0,0,0,-1,-1,-2,-8
1570179701001785,0,-1,-2,-2,0,-1,0,1
1570179701022730,0,-1,-1,0,-1,-2,0,6
1570179701022730,-1,-1,2,-1,0,-1,0,2
1570179701023726,-3,-3,-1,-2,-2,0,0,-2
1570179701023726,3,0,-1,-1,2,-1,-2,3
1570179701037729,-1,-1,-2,-1,0,1,-1,-5
1570179701037729,1,-1,-1,-1,0,0,-2,2
1570179701038686,0,-2,-1,1,0,1,-1,2
1570179701038686,-3,-1,-1,-1,-2,-1,1,-5
1570179701059629,-1,-1,-1,0,1,0,0,1
1570179701059629,-1,-1,-1,0,-1,-1,0,-2
1570179701061625,0,0,0,0,1,-1,-1,-1
1570179701061625,-5,-1,-2,-1,-1,0,-5,-16
1570179701082569,2,-1,0,-1,0,-1,-1,-2
1570179701082569,-1,1,0,-1,-1,-1,-1,1
1570179701084564,3,0,-1,1,0,-1,0,3
1570179701084564,-1,-1,-1,0,-2,0,0,0
1570179701096627,-3,1,0,-1,-1,-2,0,-5
1570179701096627,5,1,-2,0,0,-3,-13,8
1570179701103606,1,1,0,0,-2,0,-1,-2
1570179701103606,3,0,1,0,-1,-2,-2,8
1570179701119686,-4,-1,-1,0,-2,1,-3,-9
1570179701119686,0,-1,0,0,-2,1,3,2
1570179701121595,6,0,-1,-1,1,-3,-2,16
1570179701121595,-4,1,-1,-1,1,0,-4,-1
1570179701142537,1,1,-1,-2,1,0,2,0
1570179701142537,0,-2,-1,-2,-2,-1,1,-3
1570179701143497,-5,-1,-1,-1,-2,0,0,-8
1570179701143497,0,-1,-2,-2,-2,1,4,2
1570179701156465,-1,0,-3,-1,-1,-1,-2,1
1570179701156465,-1,0,-1,0,0,-1,1,-8
1570179701171496,0,-2,-2,-1,-1,1,2,8
1570179701171496,0,-2,1,-2,-1,-1,-1,-1
1570179701179403,-1,-1,-1,1,-2,-1,-2,-2
1570179701179403,0,-1,1,0,1,1,1,6
1570179701181397,-3,-1,-1,-1,0,-1,0,0
1570179701181397,0,0,-1,0,1,-2,0,-3
1570179701202594,-1,-2,-1,-2,-1,0,1,2
1570179701202594,-2,-1,-1,0,-1,-1,0,-8
1570179701203591,0,0,0,0,-2,-3,-2,-1
1570179701203591,-1,-1,0,-1,-1,0,0,-1
1570179701216556,0,0,2,1,-2,-3,-3,-1
1570179701216556,-5,-2,-2,-1,-1,0,7,-5
1570179701225533,2,1,1,0,0,-3,-10,-2
1570179701225533,0,0,-1,0,-1,-1,0,4
1570179701240256,-1,-2,-2,-1,0,1,0,-3
1570179701240256,-1,-1,-3,0,0,0,-1,-7
1570179701241767,2,1,0,-1,0,0,3,3
1570179701241767,-3,-1,-2,-2,0,0,-1,-6
1570179701263570,-1,-1,-1,-1,0,-1,-1,1
1570179701263570,0,-1,1,-1,0,0,-2,0
1570179701264566,-4,-1,-3,-1,0,1,1,-9
1570179701264566,9,0,2,-1,-1,-1,3,32
1570179701276534,-6,-1,0,-3,-1,0,0,-2
1570179701276534,5,0,0,0,0,-1,-1,5
1570179701283554,-1,1,0,1,-2,0,0,-1
1570179701283554,-3,-1,-1,0,-2,-3,0,-11
1570179701300471,0,-2,-2,0,-1,0,-1,-1
1570179701300471,-2,-1,-2,-1,-1,-1,0,3
1570179701301537,-1,-1,-1,0,-2,0,-1,-4
1570179701301537,-3,0,-1,0,0,0,-2,-6
1570179701322838,3,1,1,0,0,-2,-1,4
1570179701322838,-3,-2,-1,-1,2,1,1,2
1570179701323759,-2,-4,-1,-1,0,0,2,0
1570179701323759,-2,-1,-1,0,0,-1,-2,-4
1570179701336553,0,0,-1,2,-1,-1,-3,0
1570179701336553,1,0,-1,-1,-2,-1,0,-2
1570179701343534,-3,-1,-2,0,0,-1,0,-9
1570179701343534,0,-2,0,-2,-1,-1,-1,-2
1570179701359915,-1,-1,-1,-1,-1,-1,0,-4
1570179701359915,0,1,1,0,0,0,-1,4
1570179701361715,-1,-1,-1,0,-1,0,-2,0
1570179701361715,-1,0,0,0,0,1,2,2
1570179701382429,0,-1,-3,1,0,1,0,2
1570179701382429,-1,1,-1,0,-1,-3,-1,-3
1570179701384426,-1,0,-1,-1,0,-2,-2,-6
1570179701384426,0,0,-1,0,-1,1,-2,-5
1570179701396448,-2,-3,0,-2,0,-1,-1,-5
1570179701396448,4,-1,-1,-1,0,1,0,5
1570179701403701,0,-2,0,-1,-2,-2,3,4
1570179701403701,-2,0,-1,-1,-1,-2,-1,-1
1570179701420328,-1,0,-1,0,0,0,0,-2
1570179701420328,2,1,-1,-1,-1,-1,-10,5
1570179701423321,-1,-1,0,-1,0,1,1,-1
1570179701423321,-1,-2,1,0,0,-3,0,-3
1570179701450248,0,-2,0,-2,-1,0,-4,3
1570179701450248,-3,-1,-1,-2,-2,0,3,-2
1570179701451246,6,1,1,-1,-1,-1,1,7
1570179701451246,-2,-1,-2,-1,0,-1,-1,1
1570179701457231,-3,-1,-2,1,0,0,3,-3
1570179701457231,-1,-1,0,-1,-2,-2,1,2
1570179701463216,-1,-1,-1,-2,0,0,0,-8
1570179701463216,1,-2,-3,-1,-1,-1,0,-3
1570179701480307,0,-1,1,-2,-1,-2,-3,-18
1570179701480307,0,0,-2,-1,-1,-2,-1,5
1570179701481643,-1,0,0,1,-1,1,-2,-1
1570179701481643,-3,-1,0,-1,0,-1,-2,-3
1570179701502373,2,0,-1,0,-1,0,2,3
1570179701502373,-2,-1,0,-1,-1,-1,-1,-8
1570179701504106,-3,-1,-1,-1,1,-1,0,-1
1570179701504106,1,0,-2,-1,-2,0,-2,-4
1570179701516073,0,0,-2,-1,-1,-1,0,6
1570179701516073,-1,-1,-2,-2,-1,-1,-1,-3
1570179701525315,-1,1,-1,-2,0,-2,-2,3
1570179701525315,-4,-1,0,0,1,-1,-4,-3
1570179701540010,3,0,1,-1,-1,-1,-1,3
1570179701540010,-2,1,0,1,0,0,-2,-4
1570179701541714,2,-2,-1,-3,-1,-1,0,1
1570179701541714,1,-2,0,-1,-1,0,1,2
1570179701562571,1,-1,0,-2,0,1,1,2
1570179701562571,0,-2,-1,-1,0,0,0,-3
1570179701563945,0,0,1,0,-2,1,1,4
1570179701563945,-4,0,-1,-1,-1,1,3,-10
1570179701576153,2,1,0,-1,-1,-3,-9,9
1570179701576153,1,-1,0,-1,0,0,1,-1
1570179701585107,0,-2,-1,0,-1,0,0,-4
1570179701585107,-1,0,-2,0,1,0,0,-6
1570179701599850,2,1,0,0,-1,1,5,12
1570179701599850,-2,-1,0,-1,-1,-1,-2,1
1570179701601844,0,1,-2,1,0,0,-3,-4
1570179701601844,-2,-1,-1,0,-2,-1,-1,0
1570179701622787,-1,-2,-1,-2,-1,-2,2,-6
1570179701622787,-5,-2,1,1,0,0,-2,-12
1570179701623830,2,-1,0,1,-2,1,3,9
1570179701623830,1,-1,0,-2,-1,-1,0,4
1570179701635760,-2,0,0,0,-1,-1,-2,-2
1570179701635760,-2,0,-1,-1,0,1,3,5
1570179701644731,-2,-1,-3,-1,-2,-1,-1,-15
1570179701644731,-1,0,0,0,-1,-1,-2,2
1570179701658694,-1,0,-2,-1,-1,-1,-1,-3
1570179701658694,-2,-1,2,-1,-1,0,-1,-7
1570179701667667,3,0,1,-2,1,0,0,7
1570179701667667,1,-1,-1,-1,1,0,0,2
1570179701682630,-3,-1,0,-1,0,1,1,-4
1570179701682630,-2,0,-1,-2,-1,-3,-3,-2
1570179701683626,-6,-2,-2,-2,-1,-1,3,-23
1570179701683626,4,-2,1,1,-2,0,-6,11
1570179701695593,-3,-1,0,-2,1,0,-1,-6
1570179701695593,2,-1,-2,-2,0,0,1,4
1570179701704618,-4,0,1,-1,-1,-3,-3,-6
1570179701704618,-1,-2,-1,-1,0,0,-2,-3
1570179701718531,-3,-1,-3,-1,-1,0,1,-5
1570179701718531,2,0,0,1,-3,0,-2,3
1570179701727509,-2,-3,-2,-1,-2,2,-1,3
1570179701727509,2,1,0,1,0,0,2,4
1570179701742520,2,1,0,-2,-2,-2,-2,-2
1570179701742520,-1,0,-2,-1,-1,-2,0,0
1570179701744464,-1,-2,0,0,-1,-2,0,6
1570179701744464,-2,-1,-1,-1,-3,-1,-1,-4
1570179701756431,0,-1,0,-2,0,-2,1,-1
1570179701756431,1,0,1,-1,-1,0,-1,4
1570179701765407,1,0,-1,-1,-1,0,-3,2
1570179701765407,0,1,1,0,-1,-3,-4,0
1570179701780365,-1,0,0,2,0,-1,-1,0
1570179701780365,-1,-1,1,-2,0,-1,0,-3
1570179701781363,1,-1,1,-1,0,0,-3,5
1570179701781363,-1,-1,-1,-2,0,-1,2,-3
1570179701802311,-1,-2,-1,-1,-1,1,1,2
1570179701802311,4,1,-2,0,0,-1,2,17
1570179701804302,-2,-2,-2,0,0,-1,-1,-6
1570179701804302,1,0,1,-1,0,-1,-7,5
1570179701816270,0,-2,0,0,0,-1,-2,6
1570179701816270,-2,0,-2,-1,-2,1,1,-3
1570179701825246,2,1,-1,0,1,-2,-1,8
1570179701825246,-4,-1,0,-1,-3,-1,2,-4
1570179701840309,0,-1,-2,-1,0,0,0,-2
1570179701840309,2,0,2,1,-2,-1,-4,-12
1570179701841202,-3,-2,-1,-2,-1,-2,2,-2
1570179701841202,1,-2,0,0,1,0,0,-2
1570179701862147,-1,0,0,0,-2,0,-2,-2
1570179701862147,-2,-1,-3,0,0,-1,0,-1
1570179701864352,0,0,1,0,1,1,0,-1
1570179701864352,-1,-1,0,-2,-1,1,0,-2
1570179701876109,2,0,-1,0,0,-1,-1,5
1570179701876109,-2,0,0,-1,0,-1,-2,-2
1570179701885124,2,0,0,-1,-1,0,-1,3
1570179701885124,-1,0,-3,-1,-2,-3,-1,1
1570179701900143,0,-2,0,0,-2,-2,0,-2
1570179701900143,-1,-2,0,-2,1,-1,-1,0
1570179701901042,0,0,-2,-1,-2,-1,1,-4
1570179701901042,-2,-2,-1,-1,0,0,-3,-16
1570179701921987,-1,0,-3,-2,-1,0,1,1
1570179701921987,0,0,2,0,0,0,-4,1
1570179701924035,-3,-1,1,-1,0,1,3,1
1570179701924035,-1,0,-1,-1,-1,0,2,0
1570179701945306,-1,0,0,0,0,0,0,2
1570179701945306,2,0,0,0,-1,-1,-5,2
1570179701946920,-1,0,-1,1,-1,-1,0,-3
1570179701946920,1,0,-2,-1,0,-1,1,6
1570179701959887,-3,0,0,0,0,0,-1,0
1570179701959887,-2,-1,-1,-1,-1,0,5,-1
1570179701961880,0,-2,2,-1,0,-1,-2,-2
1570179701961880,-1,-2,0,-1,-1,0,2,0
1570179701982823,0,-1,-3,-2,-2,-1,1,-1
1570179701982823,5,-1,-1,-1,-1,-1,1,2
1570179701983839,1,1,-1,0,-1,0,-3,0
1570179701983839,0,-1,-1,0,-2,1,-1,0
1570179702005765,-3,-1,-1,-1,1,-1,0,-4
1570179702005765,-3,-1,0,0,0,0,0,-4
1570179702006759,-1,-1,-3,0,-2,1,0,0
1570179702006759,0,-2,0,-1,0,-1,2,4
1570179702019782,-2,-1,0,0,-2,-3,-4,-5
1570179702019782,-1,-1,-2,-2,0,-2,-1,0
1570179702021720,-2,-1,0,-1,0,-3,-3,-1
1570179702021720,-1,-1,-1,-1,0,-1,1,1
1570179702042664,1,0,-2,-2,1,0,-1,-1
1570179702042664,-2,0,0,0,-1,-1,-1,0
1570179702043661,-1,0,0,-1,-1,-1,0,9
1570179702043661,0,0,-2,0,1,0,0,-4
1570179702064605,1,1,1,0,-1,0,-3,1
1570179702064605,-3,0,0,1,0,1,1,-4
1570179702066600,-1,0,-2,-1,1,-1,-4,1
1570179702066600,0,0,0,0,-2,-1,1,3
1570179702079567,0,0,1,-1,-1,-2,-1,-2
1570179702079567,-1,0,-1,-1,-3,-2,2,-3
1570179702085550,-2,-1,-3,-2,-2,-1,2,-4
1570179702085550,-2,0,1,-1,1,0,-3,-1
1570179702102505,0,-1,1,0,-1,0,0,-1
1570179702102505,-5,-1,-1,-2,1,-2,-1,-11
1570179702104499,2,0,0,-2,-1,-1,0,9
1570179702104499,-2,0,0,0,-1,0,0,0
1570179702124486,0,0,0,-1,0,-2,-2,0
1570179702124486,-1,-2,0,0,-1,0,0,3
1570179702126440,2,-1,-1,1,-1,-1,1,-1
1570179702126440,1,-2,-1,-1,-2,1,-2,-2
1570179702139407,-5,-2,0,-3,-1,-1,3,-2
1570179702139407,-1,1,0,0,-1,1,0,1
1570179702146387,-1,-1,0,-1,1,-1,-2,-8
1570179702146387,0,-1,-1,-1,0,0,0,-4
1570179702170323,5,1,0,1,1,-2,-12,7
1570179702170323,-1,0,-1,-1,0,-1,-1,0
1570179702171319,1,0,-1,-2,0,-2,-1,6
1570179702171319,1,-2,0,-1,-1,0,5,7
1570179702185282,0,-2,-1,-1,-1,-1,-1,-4
1570179702185282,0,0,0,-1,-2,-1,-2,1
1570179702186279,-9,-2,2,-2,-4,-4,-8,-28
1570179702186279,4,1,-2,-2,0,0,0,6
1570179702199246,-4,0,-1,-2,-2,0,10,2
1570179702199246,1,-2,-1,-2,-3,-2,-6,-14
1570179702206226,-2,-1,1,2,0,0,1,-5
1570179702206226,-1,-1,-2,0,-2,-2,-2,-4
1570179702222186,0,-2,-2,-1,-1,-2,-2,-2
1570179702222186,-4,-2,-2,-1,-2,1,0,-8
1570179702224200,2,1,0,-1,-2,-1,2,7
1570179702224200,-3,1,-1,0,0,-2,-4,-5
1570179702245123,1,0,-2,0,0,2,1,0
1570179702245123,0,-1,0,0,0,-1,4,10
1570179702246120,3,1,1,1,0,0,-4,7
1570179702246120,-2,-2,0,0,-1,-2,-1,-2
1570179702260082,-3,-2,1,-3,-1,-1,-2,-12
1570179702260082,3,-1,-2,-1,-1,-1,1,2
1570179702266066,0,0,0,-2,1,1,1,1
1570179702266066,-2,-2,-1,0,-1,-2,-1,-5
1570179702282089,-2,1,0,0,-1,-1,2,1
1570179702282089,3,-2,-3,0,-1,-1,-2,3
1570179702284020,-2,-1,-3,-2,-1,0,10,2
1570179702284020,-6,-1,1,0,-1,-1,-2,-13
1570179702304963,3,0,0,2,1,1,1,7
1570179702304963,-1,0,0,1,0,-1,-2,6
1570179702306957,2,-2,0,0,-1,-1,0,3
1570179702306957,0,-2,-1,-1,-1,0,-1,-2
1570179702318925,-3,-2,0,0,0,0,-1,-2
1570179702318925,-4,0,-3,0,-2,-1,-1,-8
1570179702333886,1,0,-1,-1,0,0,-1,4
1570179702333886,-1,-1,-1,0,-1,-1,-2,3
1570179702341865,-1,-1,-3,-2,-3,-1,-1,-1
1570179702341865,-2,0,0,-2,-1,0,0,-1
1570179702343861,-5,0,-1,-1,-2,-1,-3,-9
1570179702343861,6,2,-1,-1,-1,-1,2,13
1570179702364804,-1,-1,-1,-2,0,0,1,2
1570179702364804,0,1,-1,1,0,-1,-1,-2
1570179702366797,-1,-1,0,1,0,0,-1,-2
1570179702366797,-4,0,0,0,0,-1,3,2
1570179702378766,-4,-1,-1,-2,0,0,-2,-7
1570179702378766,5,0,-1,-1,0,-1,2,6
1570179702385747,2,-1,0,0,-2,1,-2,-1
1570179702385747,1,-1,-1,0,0,-2,-1,3
1570179702402703,0,1,0,3,-2,0,1,2
1570179702402703,-8,-3,-2,-3,-1,-1,9,-7
1570179702403700,2,-1,0,1,0,-1,1,5
1570179702403700,-2,-1,-3,-1,0,0,-2,-6
1570179702424647,1,0,-1,0,2,-1,-4,0
1570179702424647,-2,0,1,-1,0,0,1,2
1570179702426638,-1,-1,-1,-2,-2,-1,-1,-1
1570179702426638,-1,-2,-1,1,-2,-1,-1,-2
1570179702447581,-1,-2,0,0,-2,0,1,-3
1570179702447581,0,-2,-3,1,-1,1,-3,-1
1570179702448579,3,0,-2,-2,0,-1,0,15
1570179702448579,0,0,-2,0,-1,1,-3,-6
1570179702462542,-2,-1,-1,1,0,-1,-2,-4
1570179702462542,-1,-3,1,0,-1,0,-2,-1
1570179702463538,-3,-1,-1,1,-2,0,-1,-1
1570179702463538,-1,-1,1,0,0,-2,2,2
1570179702484551,1,0,0,-1,0,0,-1,2
1570179702484551,0,0,0,0,0,-2,2,-5
1570179702486477,11,3,1,0,-1,-1,-9,28
1570179702486477,-4,-2,-3,-1,-2,0,5,-9
1570179702498454,-2,-2,-4,-1,0,1,2,-5
1570179702498454,2,3,1,0,-2,-1,-1,2
1570179702507421,-4,-2,-1,-1,-1,-3,2,-10
1570179702507421,0,0,1,0,0,-3,-1,0
1570179702522388,2,0,1,-1,-1,-1,-3,7
1570179702522388,0,-2,1,-2,0,2,-2,12
1570179702524378,-6,-3,-2,-1,0,1,1,-15
1570179702524378,0,1,1,-2,0,0,-3,-1
1570179702545326,2,0,0,0,0,-1,1,7
1570179702545326,1,0,-2,-2,0,-1,-3,3
1570179702546322,0,0,0,-3,1,1,0,-13
1570179702546322,-5,-2,1,0,-1,1,1,-7
1570179702559287,0,1,0,2,0,0,2,-7
1570179702559287,0,-2,-1,0,-1,-1,-1,-2
1570179702567263,-4,-2,-1,-1,-2,-1,6,-1
1570179702567263,3,-1,-2,0,-1,-1,-3,9
1570179702583285,0,0,0,-2,-1,0,-1,-1
1570179702583285,0,-1,-3,-1,-1,-1,-4,-1
1570179702585215,1,1,0,0,1,2,5,5
1570179702585215,1,1,-2,-2,0,-1,-2,1
1570179702605276,1,-2,-1,-2,0,-2,-1,0
1570179702605276,0,-1,-1,-2,0,-2,0,3
1570179702606159,-2,-3,-1,0,-2,-1,-2,-9
1570179702606159,-1,-1,0,-1,-2,0,-1,0
1570179702619123,-1,0,0,0,0,-1,-1,2
1570179702619123,1,-1,-3,1,0,-2,-16,-10
1570179702627103,0,1,0,0,-1,0,-2,6
1570179702627103,-2,-3,-2,-1,0,-2,-3,-10
1570179702642061,-1,-1,-2,-3,-3,0,0,1
1570179702642061,0,-1,0,0,-1,-1,4,-6
1570179702644118,0,-2,1,-1,0,-1,-2,-3
1570179702644118,4,0,-2,-1,0,0,-1,8
1570179702665001,-2,0,-2,0,-1,-1,0,-5
1570179702665001,-1,0,-1,-1,0,-1,3,-2
1570179702666108,-1,0,-3,-1,0,-2,-2,2
1570179702666108,-2,0,0,-1,-2,-1,4,2
1570179702678967,-2,-2,0,-1,-2,-2,-1,-3
1570179702678967,2,-1,0,-1,-1,-1,-1,5
1570179702687940,-1,-1,-3,2,0,0,-2,-2
1570179702687940,0,-2,-1,0,-1,-2,-4,-4
1570179702733866,-3,-1,-1,-3,-1,-1,-2,-2
1570179702733866,2,0,-1,0,0,1,4,8
1570179702735813,-3,-2,-2,-1,-1,0,-1,-8
1570179702735813,-2,-1,0,1,-1,0,-1,2
1570179702735813,11,3,-1,3,1,0,-10,17
1570179702735813,-7,-3,-1,-3,-1,0,6,-10
1570179702740800,3,0,1,0,1,-1,0,9
1570179702740800,2,1,0,0,0,-1,-1,2
1570179702741795,-2,-2,1,1,0,0,2,-8
1570179702741795,-4,-1,0,-2,-2,-1,0,-7
1570179702748076,0,-1,0,-2,-3,0,-3,-3
1570179702748076,-3,-1,-1,-1,-1,0,-2,-3
1570179702762746,-6,-2,-2,-2,-1,-1,2,-5
1570179702762746,4,3,1,0,0,-1,-3,2
1570179702763737,0,0,1,0,-1,0,2,-3
1570179702763737,0,0,-1,0,1,0,0,-1
1570179702784726,-3,-3,-1,0,0,-2,-1,-8
1570179702784726,1,0,0,1,0,-1,-4,5
1570179702786679,0,-3,-1,-2,-2,0,-1,0
1570179702786679,-1,0,0,-1,0,-1,2,5
1570179702798649,0,-1,0,-2,-1,0,0,-3
1570179702798649,-1,0,-1,0,-1,0,1,1
1570179702807620,1,-1,-2,-2,0,1,1,3
1570179702807620,-2,-1,-1,-2,0,-2,-2,-7
1570179702822614,1,0,-1,0,0,0,5,11
1570179702822614,-3,-2,-2,0,-1,0,8,-6
1570179702824575,-1,1,0,-1,0,-2,-8,3
1570179702824575,0,0,0,-1,0,-1,0,-2
1570179702844523,0,-1,-1,-1,-1,-2,-1,-1
1570179702844523,-3,-1,0,-2,1,1,0,-4
1570179702846561,-1,-1,-2,-1,0,-2,-1,1
1570179702846561,-2,0,1,0,-1,-2,0,-2
1570179702867463,-3,0,1,-2,-1,0,-2,-5
1570179702867463,0,-1,0,-1,0,-1,-2,2
1570179702869457,-1,0,-3,-1,-2,1,0,-3
1570179702869457,2,-3,-1,-3,2,0,-2,0
1570179702881426,-2,-1,-1,1,-1,-1,1,-1
1570179702881426,-1,0,1,0,-1,1,-2,4
1570179702897521,-4,0,-1,-1,0,-4,-3,-26
1570179702897521,3,1,-1,1,-1,0,-5,10
1570179702905358,1,0,0,-1,-3,0,-2,-4
1570179702905358,-1,0,0,-3,-1,-1,1,6
1570179702906357,-1,-2,0,-1,-1,1,5,7
1570179702906357,-3,-2,-1,-1,-1,-2,-1,-6
1570179702927298,-2,0,0,1,2,-1,0,-4
1570179702927298,0,2,-1,1,0,-2,-7,-2
1570179702929296,-1,0,-1,0,0,0,1,0
1570179702929296,3,-1,0,0,-1,-1,0,3
1570179702942361,-1,1,-1,1,-2,0,0,2
1570179702942361,-1,-2,-3,-1,-2,0,0,-1
1570179702944255,-1,-2,1,0,1,1,0,4
1570179702944255,-1,-1,-1,0,-1,0,0,-3
1570179702965204,-1,-1,-1,-1,0,-1,-2,-2
1570179702965204,-2,-3,0,0,-1,-2,-3,4
1570179702967194,3,2,-2,1,0,0,1,4
1570179702967194,-2,-1,-1,1,0,-1,-3,-3
1570179702987140,0,0,-2,-2,0,0,3,-2
1570179702987140,0,-1,-1,0,0,0,0,-2
1570179702989143,-3,-3,1,-1,-1,-2,-4,-14
1570179702989143,-2,-2,-2,0,0,-1,3,-4
1570179703002321,-1,-1,-1,-1,0,1,-1,-3
1570179703002321,2,-1,-5,-1,0,-2,0,1
1570179703004096,1,-2,0,0,-2,0,2,6
1570179703004096,7,3,0,1,-1,-2,-13,16
1570179703025333,-2,-2,0,-2,-2,2,5,0
1570179703025333,0,-1,0,-1,0,0,-3,-4
1570179703027034,0,-1,0,-1,1,-2,0,1
1570179703027034,-4,0,-2,-2,-2,1,2,-5
1570179703047978,2,-1,0,1,-1,0,-1,2
1570179703047978,-1,-2,-1,-1,0,0,-1,-2
1570179703048978,1,-1,-4,-1,-1,0,1,4
1570179703048978,-1,0,-1,0,0,1,3,-2
1570179703061945,1,1,0,-1,-1,-2,-5,-13
1570179703061945,0,0,0,-2,-1,-2,1,1
1570179703068926,0,1,-1,0,-2,0,-1,3
1570179703068926,-1,-4,-1,-1,-2,1,1,0
1570179703084887,2,1,1,1,1,-1,-9,3
1570179703084887,3,-1,0,0,-2,-2,-2,4
1570179703086874,1,1,2,-2,-1,-1,0,1
1570179703086874,1,0,0,0,0,0,0,0
1570179703114932,-1,-3,-1,-2,-1,1,1,1
1570179703114932,0,3,2,1,0,0,2,12
1570179703116944,-2,-1,-3,0,-1,-2,-2,0
1570179703116944,-2,-2,-1,-3,-1,-1,3,-2
1570179703121784,6,0,0,0,0,-2,-12,14
1570179703121784,-1,-1,-1,0,-1,-1,1,-4
1570179703136740,-1,-3,-1,0,0,-1,1,-4
1570179703136740,1,1,1,0,1,-2,-4,1
1570179703144718,-2,-2,-3,-2,-2,-1,2,-2
1570179703144718,0,-2,0,1,1,0,-2,-4
1570179703146714,-1,1,-1,-1,-2,1,-2,1
1570179703146714,-1,-2,-1,-1,0,0,3,-3
1570179703167657,-3,0,0,0,-1,-1,1,3
1570179703167657,1,-1,-1,-1,-1,-1,-3,-12
1570179703168906,1,-1,-1,0,1,1,2,9
1570179703168906,-1,0,1,1,-1,-1,1,-6
1570179703181623,-4,-1,-1,-1,0,-1,2,-7
1570179703181623,-1,0,-1,-2,-2,0,0,3
1570179703188604,-2,0,0,0,-1,0,3,9
1570179703188604,-1,-2,-1,0,-1,0,-3,-5
1570179703204558,-1,1,1,-1,-1,-1,1,-2
1570179703204558,-1,-2,-1,-1,-1,0,-1,-5
1570179703206553,-1,-1,0,0,0,0,-3,-7
1570179703206553,-7,-2,-3,0,-1,-1,9,-11
1570179703227769,-2,-1,-2,0,-3,0,1,3
1570179703227769,-2,0,1,1,0,0,-2,-3
1570179703229493,3,-2,-1,-1,-1,-1,0,8
1570179703229493,1,0,0,-1,0,0,0,3
1570179703241464,-1,-1,-2,1,-1,0,3,-4
1570179703241464,-2,0,-1,-3,-2,-1,1,0
1570179703248440,-4,0,0,1,-1,0,0,-3
1570179703248440,-2,-2,-2,0,-2,-1,-2,-9
1570179703265396,-1,-1,0,0,0,-1,-2,-3
1570179703265396,0,-1,-1,-1,1,-1,-2,0
1570179703266392,-5,-2,-2,-1,-1,-1,-5,-16
1570179703266392,2,-1,-1,-2,-2,0,-4,3
1570179703287338,-1,-3,1,-2,-1,-1,1,4
1570179703287338,-2,-1,-1,1,0,-1,-2,0
1570179703289331,1,0,-2,-1,0,-2,-2,-3
1570179703289331,0,0,0,1,-1,-1,-1,4
1570179703302297,-1,-2,-1,0,1,-1,-1,-4
1570179703302297,-1,-1,-1,-2,-2,-1,1,-3
1570179703308284,-7,-2,0,-2,-2,1,9,-15
1570179703308284,4,-1,0,-1,-1,-2,-6,2
1570179703332226,0,-1,0,1,-2,-2,-1,4
1570179703332226,-1,-1,0,-1,0,0,1,1
1570179703334211,-1,0,-2,-1,1,-1,0,0
1570179703334211,-2,-1,-1,-1,1,1,-1,3
1570179703347180,-1,0,-2,-1,-1,1,-1,-6
1570179703347180,0,-1,0,0,-2,0,-2,5
1570179703349238,0,0,-2,0,-2,-1,-3,1
1570179703349238,-6,-1,-2,-3,-3,-3,2,-13
1570179703361140,4,2,-1,-1,1,0,-3,6
1570179703361140,-1,-1,1,-1,-1,0,-2,-1
1570179703370115,0,0,0,0,0,-1,-2,2
1570179703370115,-2,-2,-2,-1,-1,0,-1,4
1570179703385115,-1,-3,-1,-1,-3,-1,3,-1
1570179703385115,-1,-2,-1,0,0,-2,0,0
1570179703386074,-1,0,1,2,-1,0,-5,-5
1570179703386074,2,1,-1,-1,1,-1,0,3
1570179703407020,0,-1,-1,0,1,-1,-1,-3
1570179703407020,-5,-1,-1,-2,-1,0,2,-10
1570179703409017,5,0,0,-1,-2,-2,-13,10
1570179703409017,-2,0,0,1,0,-1,0,1
1570179703421117,-3,-1,-2,-1,0,-2,-1,-1
1570179703421117,-3,0,1,-2,0,-1,-1,-5
1570179703429957,2,-1,-3,-3,-2,-1,5,4
1570179703429957,0,-1,0,0,0,0,-2,1
1570179703444919,-2,-1,1,0,0,-1,-3,4
1570179703444919,1,-1,-1,0,-1,0,-3,-8
1570179703446911,-3,-2,-1,0,0,-1,5,1
1570179703446911,2,-1,0,0,-1,-1,-4,-2
1570179703467854,1,1,0,0,0,2,3,12
1570179703467854,2,0,-2,0,-1,2,-1,5
1570179703469849,-6,-2,0,-1,-2,-2,-1,-7
1570179703469849,4,1,-1,-1,-1,0,4,5
1570179703480818,-1,-1,-2,-1,-1,1,-2,-6
1570179703480818,2,-1,-1,-1,-1,0,0,2
1570179703489795,-2,0,0,0,-1,0,-3,-3
1570179703489795,-2,-1,-2,-1,0,0,-2,0
1570179703504793,-2,-2,0,-1,-2,-1,-1,-3
1570179703504793,-2,-1,-1,-1,1,-3,-2,2
1570179703507196,0,0,1,-1,0,1,0,-2
1570179703507196,-3,-1,0,-1,0,-1,-1,-3
1570179703527697,0,-2,-1,0,-1,-2,1,1
1570179703527697,2,1,1,2,-1,-1,-9,10
1570179703529690,1,-2,-1,-1,-1,-1,1,3
1570179703529690,1,0,-1,-1,0,-1,0,-1
1570179703540703,-2,-1,-1,-1,-1,1,-1,0
1570179703540703,-1,0,-1,-1,-1,0,2,-1
1570179703555832,-2,-1,0,1,0,1,0,-2
1570179703555832,0,-1,0,0,-1,0,-4,-2
1570179703564601,0,-1,-1,-1,-3,0,2,-3
1570179703564601,0,0,-1,0,0,-1,3,3
1570179703566665,-3,-1,0,0,-1,0,0,-5
1570179703566665,-2,0,1,0,-1,0,0,-2
1570179703587548,4,0,1,-1,0,-2,-5,-5
1570179703587548,1,1,-1,0,-1,0,3,7
1570179703589529,3,1,0,0,1,1,-3,4
1570179703589529,-2,-2,0,-1,0,-1,-1,-3
1570179703601550,-3,-3,-2,-2,-1,0,-2,-3
1570179703601550,0,-1,-1,-2,0,0,-2,-4
1570179703610476,1,-1,-1,-2,-1,0,2,3
1570179703610476,0,-2,0,0,-2,0,0,1
1570179703625436,0,1,-2,-1,0,0,0,1
1570179703625436,-1,-1,0,0,1,-1,-1,-3
1570179703626431,-2,-3,-2,0,0,1,2,2
1570179703626431,0,-1,0,-2,-1,0,-1,1
1570179703647376,2,0,-1,0,-3,0,-1,-9
1570179703647376,-1,0,-1,-1,-1,0,0,-2
1570179703649375,0,0,-1,-1,-2,-2,0,0
1570179703649375,-2,-1,0,1,-1,0,3,0
1570179703661340,-2,-2,0,1,-1,0,0,2
1570179703661340,-1,-2,-2,-1,-1,0,0,-2
1570179703670313,0,-1,0,-1,1,-3,-4,-3
1570179703670313,-1,-1,0,-2,0,-1,3,3
1570179703685346,2,2,2,0,2,-3,-7,3
1570179703685346,3,-2,-2,-3,-3,0,-2,3
1570179703686270,-3,0,1,0,-1,0,0,-6
1570179703686270,1,-1,-3,0,0,-2,2,14
1570179703707214,-2,0,-2,-1,1,1,3,0
1570179703707214,-2,-2,-2,0,0,-3,-1,-5
1570179703709208,0,-1,-2,0,-1,-2,2,3
1570179703709208,-2,0,-1,1,0,-1,-5,-5
1570179703721306,2,-2,-2,0,-1,0,1,-5
1570179703721306,-2,-4,-1,-1,0,-1,0,-2
1570179703730198,0,0,-1,-1,1,0,0,-1
1570179703730198,-1,1,0,-1,0,-1,-3,-5
1570179703745119,-2,0,-1,0,-1,-1,3,-1
1570179703745119,-1,1,0,0,-1,-1,0,0
1570179703746115,-1,-2,-1,-2,-2,1,-2,-2
1570179703746115,-1,-2,-1,-1,1,1,0,2
1570179703767061,-8,-4,1,-2,-1,1,11,-10
1570179703767061,1,0,2,1,-1,-3,-6,-3
1570179703769050,1,0,-1,-2,-1,-1,-1,3
1570179703769050,-2,0,-3,1,-2,0,-1,-4
1570179703781128,-2,-1,-2,-1,0,-1,0,-1
1570179703781128,-1,-2,-2,0,1,1,2,-1
1570179703789998,1,-1,-2,-1,-1,0,0,2
1570179703789998,-1,-3,0,0,-2,0,0,-6
1570179703804955,0,-1,-2,-2,0,-3,-3,0
1570179703804955,1,1,0,-1,-1,0,1,3
1570179703805950,-4,0,1,1,0,-2,-5,-9
1570179703805950,0,-1,-1,-1,-1,-1,0,-4
1570179703827891,-2,0,1,0,-1,-1,-1,0
1570179703827891,0,0,0,0,-1,0,-8,-1
1570179703828888,2,1,-2,-1,0,1,4,1
1570179703828888,-5,2,2,1,-1,-2,-3,-10
1570179703849875,0,0,-1,-2,0,0,-1,4
1570179703849875,-8,-4,-3,-2,1,1,10,-15
1570179703851829,3,-1,0,1,0,-3,-5,1
1570179703851829,-1,-1,0,-1,-2,0,-1,2
1570179703863796,2,0,1,0,0,-1,-2,7
1570179703863796,-2,1,1,0,-1,-1,2,-2
1570179703871869,1,0,-1,-2,-1,2,-1,5
1570179703871869,2,1,0,-1,-1,-2,-1,1
1570179703887777,-2,-1,-1,-2,-3,1,1,-4
1570179703887777,1,-2,-2,0,-1,-1,-1,7
1570179703888731,-1,-2,-1,1,-1,-1,1,3
1570179703888731,2,-1,-1,-1,-2,-2,-4,-10
1570179703909674,1,0,-2,0,-2,1,-2,-1
1570179703909674,1,0,0,-1,-1,-1,0,1
1570179703911667,-2,-1,0,-1,0,0,-1,-4
1570179703911667,-1,-1,-2,-2,2,1,2,3
1570179703924638,5,0,0,-1,0,-3,-2,8
1570179703924638,-4,-1,0,1,-1,-2,-3,-7
1570179703926628,4,1,-1,1,1,1,6,23
1570179703926628,-2,-1,-1,-2,-1,-1,0,-4
1570179703947575,0,-1,0,2,-1,-1,-2,4
1570179703947575,0,2,-1,0,0,-1,-2,2
1570179703949566,-1,1,0,-1,-2,-2,-1,-4
1570179703949566,-1,-1,-1,-1,0,0,-2,3
1570179703969520,0,0,-1,1,0,2,-2,-1
1570179703969520,0,0,0,-1,-1,-1,-1,1
1570179703971509,-3,-1,0,0,0,0,-1,-1
1570179703971509,-1,0,-2,0,1,-1,1,0
1570179703984514,-2,-2,-2,-1,-1,0,-1,-5
1570179703984514,-1,-1,0,0,-1,-1,-3,0
1570179703991576,-1,0,-1,-2,-1,0,-3,-8
1570179703991576,-1,0,-2,-1,-1,-1,-1,5
1570179704007454,-1,-2,-1,-1,0,-2,0,1
1570179704007454,0,-2,-1,-1,-1,0,-1,-1
1570179704009406,-9,-4,-3,-3,-2,0,11,-15
1570179704009406,1,0,1,1,0,-2,-1,-1
1570179704030350,-1,-1,-1,-1,-1,-2,-2,-2
1570179704030350,2,1,-3,-1,-2,0,-2,3
1570179704031402,-3,0,0,0,0,0,0,-7
1570179704031402,0,-2,-1,0,0,0,1,0
1570179704044313,-1,0,0,0,-1,-2,-3,3
1570179704044313,0,-2,-2,0,-2,1,5,3
1570179704051299,0,-1,0,0,-1,-1,-5,-2
1570179704051299,-2,-1,-1,0,-2,0,0,1
1570179704067253,-1,1,-2,-1,-1,-2,-1,-5
1570179704067253,-2,0,-1,-1,0,-1,0,-1
1570179704069247,2,1,-1,-1,0,-2,-4,1
1570179704069247,1,0,1,0,0,0,-3,1
1570179704090192,-3,-1,-1,0,0,0,1,-3
1570179704090192,1,-1,0,0,0,0,-2,0
1570179704091188,3,-1,-2,-1,-1,0,-1,0
1570179704091188,-1,-1,-1,-1,-1,-2,0,-1
1570179704105151,0,2,-1,0,-1,0,0,-2
1570179704105151,1,0,0,-1,-1,-1,0,0
1570179704113130,-3,-1,-2,1,-1,0,1,-8
1570179704113130,4,1,1,0,0,-2,-11,5
1570179704126101,-4,0,0,0,-2,-1,-2,-9
1570179704126101,4,0,-2,0,1,0,1,1
1570179704134074,-3,-1,-3,-1,-2,-2,5,-2
1570179704134074,-1,-2,-2,0,-2,0,2,16
1570179704149037,1,1,-1,-1,0,-1,0,1
1570179704149037,-4,-2,-2,-1,-1,-3,-4,-11
1570179704150031,4,0,1,-1,-1,-2,-1,9
1570179704150031,-1,-2,-1,-1,1,1,2,-2
1570179704163993,0,-1,0,0,0,-1,-1,1
1570179704163993,1,1,-1,0,-2,2,1,4
1570179704172002,0,-1,-1,1,0,0,-2,0
1570179704172002,-1,0,-2,-2,-3,-1,-1,-10
1570179704186933,-1,-1,-2,-2,0,0,1,-1
1570179704186933,-2,-2,0,-1,-1,-1,-1,-4
1570179704187929,0,1,0,1,-1,0,-2,-3
1570179704187929,1,-1,-1,-2,-2,2,2,3
1570179704208878,-2,-2,-2,1,0,-2,-2,-3
1570179704208878,0,0,0,-1,-1,0,0,1
1570179704209872,2,0,0,0,-1,-1,-3,3
1570179704209872,-4,-1,-3,-1,-1,1,7,-13
1570179704223882,5,2,1,-1,-2,0,-5,6
1570179704223882,-4,-1,0,1,-1,0,-2,-1
1570179704231811,-2,-1,1,0,-1,-1,-1,-10
1570179704231811,-2,-2,1,-1,-2,-1,1,-3
1570179704246771,0,-3,-1,-1,-2,0,3,-12
1570179704246771,0,-1,0,-1,-2,1,6,-2
1570179704247854,2,0,-1,0,0,0,-1,6
1570179704247854,-4,1,-2,-1,-1,0,-2,-6
1570179704269714,2,-1,1,1,-2,-1,1,5
1570179704269714,0,-1,0,-2,-2,-2,-3,-2
1570179704269933,0,-1,-1,0,-2,-2,1,0
1570179704269933,2,0,0,0,0,0,-2,2
1570179704283718,-1,-2,-1,-2,0,0,2,1
1570179704283718,-1,0,0,1,0,2,-1,-4
1570179704291694,-2,-2,-1,0,-2,-1,-2,4
1570179704291694,1,0,0,0,0,-1,-2,2
1570179704306615,-1,0,0,0,-1,-1,0,2
1570179704306615,-1,-1,-2,0,1,-3,-1,0
1570179704307609,-2,-1,-1,0,0,-2,-3,-6
1570179704307609,3,0,-1,-1,0,0,0,3
1570179704329587,-1,-1,-1,-1,0,0,0,1
1570179704329587,1,1,-3,0,0,0,1,0
1570179704329587,-3,-1,1,0,-2,0,-1,-3
1570179704329587,0,-2,-1,-2,0,-1,3,6
1570179704343516,2,1,0,0,-2,-1,-14,0
1570179704343516,0,-1,1,0,-2,-2,-6,1
1570179704351594,1,-1,-2,-1,-2,-1,-2,0
1570179704351594,-3,-1,0,2,-2,-2,8,16
1570179704366453,1,1,-1,-3,-1,0,3,7
1570179704366453,-1,-1,0,0,0,-1,0,-2
1570179704367449,0,0,0,0,0,1,-3,0
1570179704367449,2,0,-1,0,-2,0,-4,-4
1570179704389390,-2,-1,0,-2,-1,1,3,-2
1570179704389390,0,0,0,0,-1,2,0,2
1570179704390389,1,1,0,-3,2,0,5,7
1570179704390389,-2,-1,-1,0,-1,0,-1,-5
1570179704403357,-2,0,1,1,-2,-1,0,-3
1570179704403357,-2,-1,0,-1,0,0,-3,-5
1570179704411331,0,-1,-2,0,-1,-1,-3,-2
1570179704411331,0,0,0,0,-1,-2,-2,-4
1570179704426929,0,-2,-1,1,-1,-1,1,0
1570179704426929,-5,-3,-1,0,-3,-2,-4,-6
1570179704427928,-1,-2,-2,-1,0,0,-2,-2
1570179704427928,-2,-2,-1,-1,0,-1,-3,-13
1570179704449513,-3,0,1,2,1,-1,-1,4
1570179704449513,5,-1,0,-3,0,0,2,6
1570179704450511,0,-1,0,-1,-2,-1,-4,-1
1570179704450511,-2,0,-1,-1,-1,-3,-3,-7
1570179704463594,-2,-1,-2,-1,0,0,4,-5
1570179704463594,-1,1,0,1,1,0,-2,-3
1570179704471641,-2,-1,0,-1,-1,-1,4,-1
1570179704471641,0,-1,0,1,-2,0,1,5
1570179704487123,-2,1,0,-1,0,0,4,5
1570179704487123,1,-1,0,-2,-1,-2,-3,-7
1570179704487123,2,-1,0,-1,-1,0,0,1
1570179704487123,-1,-2,-1,0,0,-2,-1,-2
1570179704508713,0,0,-2,-1,-1,-2,-2,0
1570179704508713,0,-1,-1,-1,0,-1,2,3
1570179704509792,-2,0,0,-1,-1,-2,0,-4
1570179704509792,0,0,0,-2,-2,1,-2,0
1570179704523718,-2,-2,0,-2,-1,0,2,-3
1570179704523718,4,0,0,1,-3,-3,-17,0
1570179704531651,1,0,1,-1,0,-1,0,4
1570179704531651,-1,0,-1,-2,0,-1,-1,-1
1570179704546557,-4,-1,-1,-3,1,-1,-4,-9
1570179704546557,-2,-4,-3,-3,-3,1,9,-7
1570179704547957,2,0,0,-1,0,0,0,4
1570179704547957,0,-1,0,0,0,0,-2,1
1570179704569819,1,0,-1,-1,1,-1,-1,-1
1570179704569819,2,0,-1,0,1,0,0,7
1570179704569819,-7,-1,-1,0,1,1,-1,-6
1570179704569819,-2,-1,0,0,-1,1,2,-2
1570179704583798,1,1,-2,0,0,-1,1,0
1570179704583798,1,-1,-2,-1,0,2,2,3
1570179704591417,1,1,-1,-1,0,-1,-3,1
1570179704591417,-3,-1,0,-1,0,-2,-4,-4
1570179704607415,1,-2,-1,0,-2,-1,-1,2
1570179704607415,-1,1,0,-1,0,-2,-1,1
1570179704614566,-1,-2,0,1,0,0,-1,-5
1570179704614566,2,-1,-2,-1,-1,1,2,2
1570179704629510,-1,-1,-1,0,-2,1,-1,-2
1570179704629510,-2,1,-1,0,-2,-2,3,1
1570179704630279,-1,-1,0,-4,-1,-2,0,-2
1570179704630279,0,1,-1,-2,-1,-3,-1,3
1570179704652556,-5,-2,0,-1,-1,-2,-3,-4
1570179704652556,0,1,0,2,2,0,-1,3
1570179704653551,-2,0,-2,0,0,-1,-1,-6
1570179704653551,1,0,-2,0,0,0,-2,-1
1570179704666909,1,1,0,0,1,0,0,6
1570179704666909,-3,-2,-1,-2,0,-1,0,-8
1570179704667803,-1,0,1,1,0,-1,-1,-2
1570179704667803,-3,-1,-1,-2,-1,0,-1,-6
1570179704689264,2,-1,-4,-3,-2,2,2,5
1570179704689264,-3,-1,-1,-1,-1,-2,0,-2
1570179704689742,3,1,1,2,-1,0,-2,4
1570179704689742,4,0,0,-1,0,1,8,13
1570179704703785,-5,-4,-2,-1,-2,-1,-3,-15
1570179704703785,3,1,3,0,2,-1,-4,6
1570179704711859,-4,0,-2,0,0,0,5,-5
1570179704711859,4,-1,4,3,-4,-4,-11,4
1570179704726716,-3,0,-6,-2,0,-2,-1,-5
1570179704726716,0,0,-1,-1,1,-1,1,0
1570179704727475,2,-1,1,-1,-2,1,9,4
1570179704727475,-5,-2,2,2,2,0,-2,-7
1570179704749425,9,-2,-2,1,-2,1,2,14
1570179704749425,-9,-4,1,-4,-4,-1,-8,-11
1570179704750423,5,-2,-10,-4,-3,-4,2,9
1570179704750423,-11,-3,-3,-3,-4,0,-3,-15
1570179704771437,5,2,5,3,0,-3,1,7
1570179704771437,15,24,12,2,-3,-1,-1,17
1570179704779344,-17,-23,-12,-10,-5,-1,-3,-4
1570179704779344,-13,-17,-11,-12,-4,1,4,-11
1570179704787323,-1,7,6,10,9,1,5,5
1570179704787323,-9,-17,1,-1,-2,-1,0,-10
1570179704787323,13,19,-7,-2,3,1,2,19
1570179704787323,24,3,15,15,6,-1,-6,2
1570179704809264,-41,-11,15,-2,-1,-1,5,-1
1570179704809264,-4,0,3,5,-1,1,3,-3
1570179704810419,-1,4,6,0,-2,-2,-11,-9
1570179704810419,2,0,-12,-11,-2,-1,2,10
1570179704832203,30,-6,-7,-9,-3,-1,9,-16
1570179704832203,16,-10,-4,2,0,0,-6,-16
1570179704832358,-16,7,16,-2,-6,-3,-6,-36
1570179704832358,-10,-1,27,7,2,-1,10,-17
1570179704847162,16,5,-40,-7,1,-1,-29,-16
1570179704847162,6,7,29,3,2,0,13,-13
1570179704848829,-13,-17,-34,-14,-2,0,2,-14
1570179704848829,6,16,10,0,0,2,3,-13
1570179704869256,4,2,12,13,9,6,5,-69
1570179704869256,26,9,-32,10,10,3,4,-118
1570179704870103,35,22,35,21,10,5,7,-124
1570179704870103,-81,-21,-10,-12,-10,-3,13,-84
1570179704892097,19,22,6,-6,-2,-1,-12,16
1570179704892097,-63,-57,-28,-14,-9,-8,-20,53
1570179704892097,-10,-2,5,4,-1,-6,-18,96
1570179704892097,-12,-4,-10,-10,-6,-5,-8,99
1570179704907044,26,-1,-24,-6,-6,1,9,107
1570179704907044,-15,5,28,5,1,1,12,103
1570179704907044,6,-3,-13,5,9,5,3,86
1570179704907044,-5,-4,5,12,12,2,-5,64
1570179704928943,-5,13,22,-3,-22,-9,-4,45
1570179704928943,7,7,-10,-5,-5,-1,6,35
1570179704930040,-15,-19,6,2,-1,1,-4,31
1570179704930040,19,9,-9,-13,8,3,-8,10
1570179704951882,-8,-5,-10,11,-6,-6,-8,2
1570179704951882,8,11,-4,-3,26,8,-2,18
1570179704952885,-27,-20,-5,-1,-5,0,13,5
1570179704952885,14,5,-1,0,-18,-8,-6,5
1570179704966953,-21,5,10,-2,7,7,8,4
1570179704966953,69,21,6,-13,-40,-19,-4,-3
1570179704967857,5,-4,-18,-1,24,6,-11,-2
1570179704967857,19,2,1,9,12,1,2,16
1570179704988788,-51,-37,0,0,-14,-8,-6,-7
1570179704988788,-6,3,-7,-3,-4,3,10,23
1570179704989782,-27,6,17,6,-4,1,12,12
1570179704989782,18,3,-4,13,9,4,-5,-2
1570179705011977,48,20,-10,-5,34,20,7,-6
1570179705011977,31,8,9,6,-4,-3,-1,-6
1570179705012886,-33,-16,-6,-8,-25,-18,-6,-15
1570179705012886,-5,13,5,-2,-12,1,12,-5
1570179705026847,-24,-22,-5,9,5,1,-7,-32
1570179705026847,4,0,-6,-10,33,24,8,-7
1570179705027846,97,48,8,19,3,-8,3,5
1570179705027846,-72,-61,-18,-18,-30,-14,-20,-24
1570179705064750,-42,-34,9,0,9,8,6,0
1570179705064750,42,55,-8,-3,-45,-28,-10,-18
1570179705065745,-11,-11,1,-7,13,5,6,1
1570179705065745,64,32,7,14,14,16,10,-10
1570179705071876,-9,-25,3,3,40,8,-10,2
1570179705071876,-43,5,-6,-6,27,25,3,-29
1570179705072728,-38,-13,-8,-17,-70,-46,-10,-23
1570179705072728,51,27,-11,-17,-36,-23,-13,0
1570179705086689,-37,-18,6,2,27,17,13,20
1570179705086689,-4,-10,11,18,-55,-29,4,0
1570179705087686,42,56,3,14,29,18,10,12
1570179705087686,-52,-35,-10,-11,-10,-4,-16,-89
1570179705109626,3,-5,-4,-4,12,6,11,8
1570179705109626,0,-23,-2,-5,26,12,-20,66
1570179705110625,-24,-12,6,-11,-33,13,3,-3
1570179705110625,66,59,-3,8,75,-3,-13,1
1570179705131571,-48,-8,-4,-9,-21,-5,-3,5
1570179705131571,26,4,5,11,-1,-5,1,-22
1570179705132565,-73,-73,-20,-19,-14,1,1,-24
1570179705132565,77,35,1,2,-1,11,7,34
1570179705146531,5,7,-3,0,-2,-2,1,-35
1570179705146531,-15,1,1,3,2,3,0,12
1570179705154507,10,-9,-5,-12,-2,-4,-1,-2
1570179705154507,-24,6,8,1,-11,-10,4,-4
1570179705169468,43,19,7,4,-16,-11,-4,-2
1570179705169468,-54,-41,5,-12,-31,1,3,-37
1570179705170464,86,70,-2,5,35,3,-12,-17
1570179705170464,-40,-19,-4,3,18,6,2,-6
1570179705191413,-19,-8,13,24,-11,2,4,10
1570179705191413,4,-10,-9,-4,9,-1,-2,-6
1570179705192409,-31,20,-12,-20,-26,-14,-9,-5
1570179705192409,20,-11,-7,-14,-31,-8,3,23
1570179705206691,16,12,-2,-2,-55,-10,-5,-11
1570179705206691,-36,-23,-6,3,92,17,8,29
1570179705207718,8,-27,-11,-26,11,15,-1,-9
1570179705207718,49,66,21,14,-3,-9,7,8
1570179705229307,-19,-32,-25,-5,12,4,-13,-40
1570179705229307,7,-8,-10,-13,-9,8,5,52
1570179705230391,5,-15,5,6,-13,-13,3,40
1570179705230391,-21,-16,-1,-8,2,8,6,23
1570179705252245,42,39,9,-2,-13,-13,-5,-19
1570179705252245,26,35,2,10,29,16,10,-11
1570179705252644,-48,-50,-2,6,15,9,2,-10
1570179705252644,12,16,-15,-28,-42,-18,-3,3
1570179705267206,23,42,19,3,4,0,5,21
1570179705267206,3,6,7,15,9,-3,-7,-28
1570179705267563,26,49,13,16,0,9,1,3
1570179705267563,-60,-65,-12,-12,-6,0,12,-7
1570179705289145,12,21,22,36,6,-7,-8,16
1570179705289145,-7,11,-8,-15,-20,-11,-8,-18
1570179705290143,3,-11,4,3,22,9,7,5
1570179705290143,-1,-11,0,13,30,27,15,13
1570179705312195,-31,4,6,-4,-14,-14,4,-7
1570179705312195,-10,-20,-4,-3,-27,-12,-10,-32
1570179705313081,9,6,1,2,-20,-7,-6,-2
1570179705313081,-40,-31,-9,-8,29,7,-1,-9
1570179705335183,1,-7,10,11,26,7,9,18
1570179705335183,5,10,-3,-7,-32,-10,-7,-29
1570179705336022,-29,-17,-9,-16,-13,-6,4,-23
1570179705336022,32,-18,-5,9,10,6,-12,6
1570179705348990,-10,-3,-9,-16,-1,3,3,31
1570179705348990,4,11,3,9,1,-5,24,-30
1570179705350269,19,15,2,6,5,8,-10,12
1570179705350269,-21,-3,12,26,9,3,2,0
1570179705372178,27,-5,-15,-16,-12,-14,-13,-19
1570179705372178,-48,-40,8,-5,-16,2,9,0
1570179705372178,20,-4,-15,2,34,7,-1,-4
1570179705372178,-23,3,9,6,-25,-11,-5,-3
1570179705394868,-13,-17,-17,-11,4,2,4,-4
1570179705394868,5,1,3,-11,-2,4,1,18
1570179705395867,53,40,11,4,-6,-7,0,15
1570179705395867,-14,-5,6,17,21,10,5,14
1570179705408826,-10,-15,-15,-26,24,25,5,-11
1570179705408826,-2,1,2,27,65,12,-9,4
1570179705409823,-26,-20,3,-7,-91,-50,3,5
1570179705409823,-9,-19,-21,-40,-50,-25,20,-21
1570179705431768,85,77,10,-14,-34,-5,-24,37
1570179705431768,-4,10,-9,-4,40,17,9,19
1570179705432835,-25,-23,0,14,85,38,-4,-20
1570179705432835,5,24,-1,-3,4,12,24,7
1570179705445732,29,-27,-20,-14,-68,-28,10,-16
1570179705445732,3,-12,-15,-10,17,-1,-45,-21
1570179705454800,-2,7,10,1,-91,-39,9,14
1570179705454800,10,-23,0,1,-32,-17,-44,-5
1570179705469667,-8,6,-12,9,92,21,-10,-41
1570179705469667,19,9,14,38,16,65,45,46
1570179705469667,0,4,-22,-39,-60,-59,-26,4
1570179705469667,20,29,10,-18,-10,-29,-31,-7
1570179705492603,-28,-21,19,12,-2,-40,26,-45
1570179705492603,-19,-12,12,28,57,15,-5,-32
1570179705493647,6,17,16,45,97,65,-1,-10
1570179705493647,10,18,-26,-16,-43,7,-2,18
1570179705506568,-84,-66,2,-2,24,34,0,35
1570179705506568,15,44,22,28,20,-13,-12,-41
1570179705514548,101,20,13,10,-33,-20,22,51
1570179705514548,-115,-50,-28,-35,-21,-12,-8,-24
1570179705529502,71,76,12,25,94,36,5,57
1570179705529502,-16,-56,-21,-35,-128,-31,-15,47
1570179705530500,7,-19,-7,-17,-18,-14,-14,13
1570179705530500,38,15,14,15,1,-14,-3,26
1570179705551449,-2,11,22,25,-51,-45,-16,-2
1570179705551449,-20,-5,-12,-11,43,19,8,10
1570179705552445,50,13,5,27,87,68,11,8
1570179705552445,-45,-20,-8,-7,-43,-16,-5,-37
1570179705566403,-25,0,16,2,-46,-7,5,-17
1570179705566403,32,28,6,-8,-12,-35,-4,0
1570179705574532,-19,-8,-21,-30,9,5,-9,-40
1570179705574532,16,12,25,58,93,44,26,18
1570179705589505,14,46,-9,-36,-36,-8,-5,8
1570179705589505,-44,-64,9,26,-37,-19,-10,-15
1570179705590341,12,26,-9,-25,-25,-9,8,-23
1570179705590341,-52,-42,-11,-8,7,8,1,-11
1570179705612283,20,2,-10,-9,7,4,14,-1
1570179705612283,-6,9,-8,-14,43,17,-3,-9
1570179705613280,-1,-7,21,8,-43,-29,-6,-25
1570179705613280,74,31,3,22,5,-2,-5,11
1570179705626243,-3,-28,-31,-2,42,14,-1,-17
1570179705626243,1,35,18,14,21,1,9,-7
1570179705634224,-21,-42,-9,-12,-54,-25,-12,-9
1570179705634224,14,-5,-4,-34,-34,-8,6,-7
1570179705649291,-12,-22,1,8,27,7,-9,-9
1570179705649291,8,20,-12,-10,-12,-4,-1,14
1570179705650182,5,15,1,2,38,20,5,14
1570179705650182,29,9,13,16,10,7,-3,-9
1570179705672123,19,-12,-11,-22,-28,-9,-6,-39
1570179705672123,12,2,5,8,-16,-15,3,6
1570179705672123,-37,-17,3,-9,-15,4,-13,-9
1570179705672123,36,22,15,40,52,9,-21,8
1570179705695061,-63,-19,-7,-15,-36,-6,0,-15
1570179705695061,16,-2,-11,-9,-8,-15,-2,-2
1570179705696059,-7,0,-16,-3,23,9,3,17
1570179705696059,-38,-21,2,17,59,18,10,-8
1570179705709046,17,1,2,4,-42,-12,10,23
1570179705709046,43,35,-6,-34,-51,-5,-7,11
1570179705710021,-35,-40,-3,10,21,-3,8,21
1570179705710021,14,23,18,13,27,11,-3,8
1570179705731965,-32,-34,-2,0,-44,-12,-7,-5
1570179705731965,61,32,11,13,37,10,11,-22
1570179705732959,-77,-12,3,9,21,3,-23,-9
1570179705732959,17,2,-11,-13,-15,-2,19,3
1570179705754904,29,13,23,22,29,16,-4,52
1570179705754904,7,-7,-12,-27,-46,-15,-4,-19
1570179705755897,39,31,14,4,-39,4,24,2
1570179705755897,-85,-48,-4,7,29,-1,-9,-13
1570179705768867,56,28,-22,-28,1,-2,-4,1
1570179705768867,3,-23,-1,2,-6,-8,7,20
1570179705769861,-70,-18,-11,1,0,-6,-7,-19
1570179705769861,15,24,11,-15,-22,1,4,8
1570179705792898,-4,1,3,11,24,16,18,-3
1570179705792898,5,2,1,-1,7,-10,20,27
1570179705792898,5,-9,-2,-9,-16,-2,-24,24
1570179705792898,6,0,-11,-12,-22,-12,-10,-10
1570179705814877,6,10,8,15,21,2,0,7
1570179705814877,-40,-27,-17,-20,-10,-4,-23,-28
1570179705815740,-14,3,4,13,10,6,48,9
1570179705815740,62,12,-1,-19,-13,-1,-14,53
1570179705829699,-18,-6,2,21,37,15,-6,11
1570179705829699,-32,-1,-5,-8,-41,-12,1,19
1570179705830698,49,8,3,9,29,-6,-5,-6
1570179705830698,-34,9,6,21,3,-4,9,-42
1570179705851651,-3,-25,-12,-19,-16,-6,4,25
1570179705851651,8,10,-7,-2,15,3,-18,56
1570179705852640,-17,2,14,3,-22,-9,-11,12
1570179705852640,-13,-25,-14,-2,-5,9,16,-2
1570179705874940,14,18,-5,-17,-20,-10,-3,29
1570179705874940,-49,-34,4,21,68,39,16,27
1570179705875665,50,25,-8,-14,-57,-16,-4,14
1570179705875665,-2,11,8,-1,3,5,3,-14
1570179705889543,-62,-40,-20,-11,24,-17,-11,-82
1570179705889543,-23,15,1,-6,-11,-4,6,-32
1570179705889543,-19,-30,5,15,15,5,-9,-36
1570179705889543,31,32,-9,-2,-18,1,3,23
1570179705911573,-9,-64,1,-23,-44,-15,-3,-75
1570179705911573,66,46,-8,-26,-10,3,-7,-50
1570179705912480,-22,-24,-6,4,43,13,4,-5
1570179705912480,-23,11,6,14,-8,-10,-11,65
1570179705934498,74,8,-5,15,18,8,4,23
1570179705934498,-25,-27,8,13,-36,-12,-17,34
1570179705935418,44,19,0,-23,-24,-7,4,10
1570179705935418,-58,-57,-10,-12,46,18,1,-59
1570179705949383,37,48,12,10,-27,-3,-4,58
1570179705949383,-13,-7,1,-7,3,-8,-26,-61
1570179705950379,45,32,-6,4,21,8,-18,35
1570179705950379,-23,-18,2,13,-14,0,27,-29
1570179705972321,19,28,27,9,-10,-5,-39,43
1570179705972321,0,-11,-4,-24,-32,-11,6,-32
1570179705972321,-31,5,14,16,43,20,10,-2
1570179705972321,15,-6,-18,-27,-15,-9,-11,-2
1570179705994261,-34,-26,-16,-11,10,2,-3,8
1570179705994261,31,17,8,8,-2,-1,11,21
1570179705995258,-10,1,-8,-18,-10,-6,-3,-39
1570179705995258,-29,-43,-15,-18,-14,-7,0,4
1570179706009220,58,51,-3,2,-1,0,14,-39
1570179706009220,-84,-30,-3,5,6,7,9,-44
1570179706010423,20,-4,-3,12,48,3,-3,23
1570179706010423,23,10,-4,-6,11,3,4,19
1570179706032358,37,37,9,0,-14,-7,12,-29
1570179706032358,-27,-49,-10,-3,-44,-13,-51,51
1570179706032358,0,-7,-3,4,28,14,-4,-5
1570179706032358,20,36,15,3,-28,-13,6,-28
1570179706055233,-7,-19,15,24,67,23,-9,33
1570179706055233,17,-6,-19,-19,-65,-35,-1,39
1570179706056094,-33,-17,-11,-8,-32,-18,-2,-12
1570179706056094,27,21,16,13,23,6,-11,0
1570179706069129,41,13,-11,-14,-9,8,16,-27
1570179706069129,-43,-48,1,19,46,15,9,-29
1570179706070266,20,29,-3,-28,-41,-14,9,-73
1570179706070266,0,-17,-6,11,14,4,5,20
1570179706092006,-20,-7,-4,-2,-24,-21,-8,-10
1570179706092006,27,22,11,3,-9,-4,5,19
1570179706092006,7,10,3,3,-1,19,11,9
1570179706092006,-19,-34,-11,-11,30,6,-7,-4
1570179706114941,-46,-4,-2,3,-1,-1,6,16
1570179706114941,30,19,2,-1,-13,-15,2,-15
1570179706115981,-24,-2,8,9,8,0,7,-15
1570179706115981,67,23,-1,-2,-40,-10,-5,3
1570179706129139,-70,-19,2,12,33,15,1,10
1570179706129139,3,-4,12,26,48,14,12,-13
1570179706129898,44,7,8,6,5,3,-16,46
1570179706129898,33,42,4,-9,-31,-11,-5,16
1570179706152841,-28,-47,-6,13,-9,0,5,-1
1570179706152841,12,9,-12,-17,1,7,8,30
1570179706152841,-12,-11,1,8,8,2,1,6
1570179706152841,39,13,12,19,17,2,10,-7
1570179706174781,-35,5,2,-17,-28,-6,-4,12
1570179706174781,12,8,-5,-9,12,-1,-9,-42
1570179706175776,-25,-12,2,23,15,0,0,-2
1570179706175776,-10,3,-5,-17,-14,-1,5,-11
1570179706188868,5,-1,0,-1,-17,-6,3,-18
1570179706188868,6,4,-4,2,21,6,-2,27
1570179706189737,-21,-11,-6,-8,-15,-6,-1,11
1570179706189737,30,25,5,0,-5,2,-10,12
1570179706212679,-83,-51,-6,-1,-7,-2,-5,-24
1570179706212679,65,22,6,6,6,3,12,31
1570179706213673,-7,-5,-8,-16,-9,-4,-5,-11
1570179706213673,-17,-7,-3,-11,2,0,3,-12
1570179706235618,46,23,9,15,6,1,-10,3
1570179706235618,-28,-2,-7,-15,-7,-2,5,-22
1570179706235618,-3,-4,0,3,15,3,-2,44
1570179706235618,45,21,9,6,-11,0,11,1
1570179706249771,-41,-17,-7,-7,-1,2,-20,27
1570179706249771,-63,-33,-12,-9,-12,-4,-5,3
1570179706249771,29,10,2,5,7,1,4,-6
1570179706249771,-6,-4,-2,4,5,1,2,23
1570179706271596,26,18,6,0,1,0,12,1
1570179706271596,20,13,9,11,0,1,-4,-11
1570179706272561,-25,-14,-7,1,-4,-2,-4,-5
1570179706272561,-34,-9,-3,-11,0,-4,-6,-12
1570179706294998,25,9,-2,-6,-1,-5,13,1
1570179706294998,13,2,2,5,1,2,3,7
1570179706295456,3,-1,-2,4,8,5,8,-13
1570179706295456,0,-7,0,1,1,2,-2,15
1570179706308426,-2,7,0,-6,-1,2,8,-23
1570179706308426,14,11,8,9,10,4,1,-5
1570179706316502,-38,-13,-3,-2,1,-1,-2,-18
1570179706316502,-20,-14,-6,1,-1,-1,-2,-7
1570179706331518,21,10,-4,-7,-8,-2,-1,0
1570179706331518,4,1,1,3,3,2,4,1
1570179706332358,15,12,3,-1,-3,-1,0,-25
1570179706332358,-24,-11,3,1,-7,-2,-13,0
1570179706355438,17,4,-1,-1,-3,-2,0,-23
1570179706355438,-1,3,0,2,4,0,6,-13
1570179706355438,26,10,4,1,-2,0,1,47
1570179706355438,-4,-1,-6,-2,2,-1,-1,-14
1570179706369498,-25,-10,3,0,-2,0,0,-2
1570179706369498,-61,-25,0,4,-4,-4,-9,-38
1570179706377241,-28,-23,-11,-10,-7,-5,-1,-51
1570179706377241,27,7,3,2,3,1,11,6
1570179706391202,3,4,-4,-3,5,-1,-8,37
1570179706391202,20,14,-1,-3,-6,-2,9,11
1570179706392200,-20,-12,-1,0,-1,-2,-4,6
1570179706392200,-22,-11,-1,-4,-3,-2,0,-25
1570179706415135,41,28,4,0,-3,-3,-10,-56
1570179706415135,-40,-38,-16,-13,-9,-6,-1,-9
1570179706416290,90,27,4,0,-4,-1,-1,-8
1570179706416290,-56,-33,-11,0,4,0,-7,-14
1570179706428107,12,2,9,11,-3,2,12,13
1570179706428107,13,18,-5,-6,0,0,-7,4
1570179706444061,18,17,10,-2,-4,-2,-1,-13
1570179706444061,7,13,11,11,6,1,-2,7
1570179706452048,-45,-24,-11,-8,-3,-3,-4,0
1570179706452048,12,-11,6,13,7,2,-3,10
1570179706452395,-3,2,-4,-2,-1,1,-1,6
1570179706452395,25,4,-2,-6,-11,-5,-3,-14
1570179706482955,45,4,-5,0,-4,-3,-4,9
1570179706482955,7,-7,-7,-10,-5,-2,-2,2
1570179706482955,-16,-11,-5,-2,-1,-6,3,8
1570179706482955,-21,4,6,5,2,2,0,7
1570179706488937,40,0,-2,-8,-2,-3,4,-20
1570179706488937,63,42,11,2,3,10,-1,1
1570179706497061,-64,-17,3,4,4,6,5,8
1570179706497061,-39,-40,-23,-18,-9,-4,-8,1
1570179706512004,7,7,2,7,1,-2,1,-10
1570179706512004,1,2,2,7,2,1,0,-27
1570179706512875,-5,5,-5,4,-4,-2,7,-73
1570179706512875,60,28,35,18,8,6,0,78
1570179706534963,-23,-5,1,-6,-1,2,-1,14
1570179706534963,-8,-4,-3,-7,-5,-5,-2,45
1570179706535813,14,1,-5,-3,-1,-2,-2,56
1570179706535813,-18,-19,-26,-12,-6,-5,-1,-13
1570179706548781,-23,-9,-7,1,2,-2,-5,7
1570179706548781,10,10,8,2,-3,0,4,8
1570179706556760,39,7,-6,-2,0,1,-6,-4
1570179706556760,-68,-9,-7,-8,0,-9,6,-22
1570179706571720,-25,-21,-5,-3,-3,-4,-4,26
1570179706571720,-4,8,10,6,-1,-5,1,-1
1570179706572713,10,1,8,2,5,5,2,7
1570179706572713,26,14,7,1,-1,4,1,9
1570179706594655,3,6,-2,-2,2,5,5,0
1570179706594655,-1,-13,-9,-8,-5,-3,-6,13
1570179706595812,-14,-3,4,-2,2,2,1,-1
1570179706595812,39,15,-2,-4,-2,0,0,-2
1570179706608836,-52,-19,-5,1,1,3,-3,-12
1570179706608836,21,7,-1,-1,-1,-6,-27,-5
1570179706616597,-9,-2,3,2,0,-2,1,25
1570179706616597,-16,-6,-4,-3,-2,-5,-10,-11
1570179706632664,-1,0,1,0,-2,-3,-3,6
1570179706632664,-10,1,3,2,2,3,-4,64
1570179706632664,-10,-1,0,-3,-3,-4,-5,3
1570179706632664,-1,-4,1,4,3,2,-2,-2
1570179706656499,28,7,3,0,-2,0,3,6
1570179706656499,-4,0,0,2,-1,0,4,-33
1570179706657593,-16,-5,-4,-2,-4,-4,-5,-35
1570179706657593,7,0,-1,2,-2,0,0,-29
1570179706677571,-4,1,-2,-3,-3,-4,-7,-73
1570179706677571,-13,-2,-3,-2,0,-1,6,-61
1570179706679434,-13,-5,-1,-1,1,0,-4,-13
1570179706679434,3,3,-1,-1,0,2,6,-7
1570179706691554,12,6,1,-1,-2,-1,5,25
1570179706691554,-10,-7,-5,-2,0,3,12,47
1570179706700372,10,2,1,-3,-3,-6,-13,62
1570179706700372,-5,-2,1,3,1,0,-10,54
1570179706722313,19,9,0,-2,-1,-1,4,37
1570179706722313,-8,-8,-1,-1,1,0,6,14
1570179706724308,-9,-8,-2,-2,-3,-1,-1,33
1570179706724308,1,-2,1,0,-2,1,4,27
1570179706737323,5,2,-1,-1,-3,-3,-4,-27
1570179706737323,1,4,3,3,2,-1,-6,-16
1570179706739267,-3,-4,-2,0,0,-1,4,-45
1570179706739267,12,9,1,0,-1,-2,-1,-41
1570179706751243,-4,-4,-2,0,-1,3,2,-1
1570179706751243,-4,-1,-1,-1,-1,-3,-2,-61
1570179706760214,-4,-3,-1,-2,0,2,3,-30
1570179706760214,0,0,0,0,1,0,-4,-21
1570179706775178,-6,-3,-1,-2,0,0,3,2
1570179706775178,-8,-1,0,-1,-1,0,1,-4
1570179706776169,11,3,-2,0,-1,0,3,19
1570179706776169,-15,-3,-1,1,0,1,2,-26
1570179706797396,3,0,0,-1,1,-2,-10,10
1570179706797396,4,-2,-4,-3,-2,-1,-4,-2
1570179706799111,3,1,1,1,0,2,2,-13
1570179706799111,-3,1,0,1,-1,-4,-4,-28
1570179706811083,-8,-5,-2,-2,1,0,-2,-33
1570179706811083,-11,-1,0,-1,-1,0,1,4
1570179706820060,0,0,0,-2,-1,-2,-2,0
1570179706820060,0,-1,-1,-2,-2,-3,-2,16
1570179706835015,-6,0,1,0,-1,0,-3,10
1570179706835015,-4,0,0,0,-1,-1,3,20
1570179706836182,4,1,-2,1,-3,-2,-4,-1
1570179706836182,1,-2,-3,0,0,2,1,15
1570179706857950,-12,-4,-3,1,-1,-2,-4,-7
1570179706857950,-2,1,0,-1,0,1,1,-3
1570179706858947,-4,-2,-1,-1,0,-2,0,0
1570179706858947,1,0,-1,-1,-1,0,-1,8
1570179706870919,0,-1,-1,-1,0,0,1,12
1570179706870919,-1,0,-2,0,-2,0,1,15
1570179706879893,-5,2,-2,1,0,0,0,-16
1570179706879893,3,0,0,-1,2,0,0,-1
1570179706895130,1,0,1,0,-1,1,2,5
1570179706895130,-3,-2,-3,-2,-3,2,10,-26
1570179706896847,2,-1,-1,-1,-2,-1,-2,8
1570179706896847,-2,-2,-1,0,-1,-1,-1,-9
1570179706917791,-3,-1,0,-1,0,0,3,4
1570179706917791,5,-1,0,0,0,-1,-1,0
1570179706918789,3,1,-1,0,0,-1,1,2
1570179706918789,-4,-3,-1,-1,-1,0,-2,-4
1570179706930755,2,2,-1,-1,-1,1,1,4
1570179706930755,3,-2,-3,-1,0,-3,-4,3
1570179706939923,-1,0,-2,0,-1,0,1,0
1570179706939923,1,-1,-1,-1,-2,-1,-2,9
1570179706954901,-1,0,-2,0,-3,-2,-1,-1
1570179706954901,4,0,-2,1,0,-1,-3,6
1570179706956687,1,1,-2,-1,0,-1,0,0
1570179706956687,0,-1,-3,-1,1,0,1,2
1570179706977632,6,0,-2,1,-1,-1,-2,5
1570179706977632,5,0,-2,0,-2,-2,-1,4
1570179706978629,4,-2,-2,0,-1,-2,2,15
1570179706978629,-3,0,-1,-1,1,1,0,-6
1570179706999578,0,1,0,-1,1,-1,-1,2
1570179706999578,-12,-2,1,0,0,-1,-4,-2
1570179707001568,0,-1,1,0,0,1,3,6
1570179707001568,7,3,2,0,-2,-1,1,11
1570179707014855,-11,-3,0,-3,-2,-2,-5,-16
1570179707014855,-3,1,1,-2,-2,-1,-2,-14
1570179707016666,-6,0,2,0,-1,1,0,-8
1570179707016666,1,-2,0,0,0,-1,-2,4
1570179707037619,-4,-1,1,1,0,1,2,-7
1570179707037619,0,-2,1,0,-1,0,1,-4
1570179707039465,-3,-1,1,-2,-1,-2,-4,-6
1570179707039465,-3,-1,0,-3,1,-2,-1,-4
1570179707051440,4,-1,-2,-1,0,0,1,9
1570179707051440,1,1,-2,-2,0,0,-1,-1
1570179707060418,3,-1,-2,-3,0,0,-1,5
1570179707060418,-2,-2,-2,0,-1,-1,0,-3
1570179707075380,-1,-1,1,1,-1,0,-2,-2
1570179707075380,-1,0,1,0,-1,-1,1,3
1570179707076368,0,0,0,-3,-1,-1,0,1
1570179707076368,-5,-2,-2,0,-1,-1,-7,-24
1570179707097502,2,-2,-2,0,-1,-2,2,5
1570179707097502,3,1,0,-1,-1,-1,0,5
1570179707099305,1,1,0,1,-2,0,-1,2
1570179707099305,-2,-2,0,-2,0,-1,-1,-6
1570179707111273,0,1,1,2,0,1,2,16
1570179707111273,1,-1,1,0,0,-1,-2,4
1570179707118287,-1,-1,-1,0,-1,-1,-1,-4
1570179707118287,-6,-2,0,1,-1,-1,0,1
1570179707135241,2,-1,-1,-2,0,0,-1,-4
1570179707135241,2,-1,0,-1,0,0,-1,5
1570179707136206,4,-2,-1,0,-1,0,-1,3
1570179707136206,2,-2,-1,-2,-2,0,2,4
1570179707157382,0,-1,0,-2,-1,0,0,-1
1570179707157382,1,-1,0,0,-1,-1,-1,4
1570179707159145,0,0,0,-1,1,0,-1,2
1570179707159145,2,-1,-1,-1,-2,-3,1,5
1570179707171159,-3,1,-1,-1,-1,-2,-2,-5
1570179707171159,0,-2,-1,-1,-1,-2,-1,-1
1570179707180090,0,0,-2,-1,-2,-3,-3,-3
1570179707180090,-3,2,1,-1,-1,1,0,8
1570179707195049,1,1,0,-2,-1,0,-2,1
1570179707195049,-2,0,0,1,0,0,-1,-5
1570179707196167,0,-1,-2,-2,-1,-2,-1,-6
1570179707196167,1,-1,1,0,1,0,1,-2
1570179707216993,-3,-2,-1,0,-2,-2,0,-1
1570179707216993,2,-1,1,-1,0,0,-2,-2
1570179707219030,-5,-1,0,-1,0,0,-1,-3
1570179707219030,-3,1,-1,-1,-1,-1,0,-2
1570179707230955,0,-2,-2,-2,-1,0,-2,-10
1570179707230955,1,-1,-1,-2,-2,0,1,3
1570179707239934,1,-1,-1,1,-1,0,0,3
1570179707239934,1,-1,-1,-1,-2,1,-3,-2
1570179707254891,2,0,-1,-2,0,-2,-1,3
1570179707254891,-3,1,-1,0,0,0,-1,-4
1570179707256997,0,1,0,-1,0,-1,-1,-3
1570179707256997,6,0,-2,0,0,0,2,6
1570179707277833,-4,-1,0,0,-1,-3,-3,-3
1570179707277833,5,-2,-1,0,0,-1,4,11
1570179707278825,-3,-1,1,0,0,0,0,1
1570179707278825,2,-1,0,-1,0,0,-1,-3
1570179707290797,-3,-2,0,-1,0,0,0,-8
1570179707290797,-9,-1,0,-2,0,1,-1,-7
1570179707315732,8,0,-2,-3,1,0,0,6
1570179707315732,-2,-2,-1,0,-2,-2,0,-6
1570179707316726,2,-2,0,1,0,0,1,3
1570179707316726,-1,0,-1,1,1,-2,-1,-5
1570179707317723,-4,-2,0,2,0,0,3,2
1570179707317723,-5,0,0,0,0,-1,-2,-5
1570179707337780,-1,0,-1,-2,0,-1,1,-4
1570179707337780,2,-1,0,-1,0,-1,-1,9
1570179707339829,-2,-1,-2,1,-1,0,-2,1
1570179707339829,-2,-2,-1,1,1,-2,-1,-1
1570179707350636,-2,0,-2,0,-1,-1,1,4
1570179707350636,1,0,0,0,-2,-2,-1,-3
1570179707359700,-3,-1,0,-3,-2,-2,-2,1
1570179707359700,2,0,-1,-1,0,0,2,15
1570179707374573,-5,0,-1,0,-2,-1,-5,-7
1570179707374573,2,-2,-3,0,-1,2,1,0
1570179707376566,0,-2,0,-1,1,0,-1,-2
1570179707376566,-4,-3,1,-1,-1,-2,-1,-3
1570179707397665,-1,-1,1,1,-1,0,0,0
1570179707397665,4,-2,-1,-1,-2,-1,0,0
1570179707398505,-5,-2,-1,-1,-1,-1,-1,-2
1570179707398505,1,1,0,-1,0,-1,0,3
1570179707411470,0,0,-2,-2,0,0,0,-7
1570179707411470,-1,1,1,1,0,0,0,0
1570179707420450,-1,0,-1,1,-1,0,1,-2
1570179707420450,-1,0,-1,-1,-1,-1,-2,-2
1570179707435418,2,-1,-2,-1,-1,-1,-1,7
1570179707435418,-5,0,-1,0,2,-1,0,1
1570179707437402,1,0,-1,-2,-2,-1,-2,-4
1570179707437402,1,2,0,-2,-1,0,0,1
1570179707457353,1,-2,-2,0,-2,0,0,-2
1570179707457353,0,-1,0,-3,-2,0,0,-1
1570179707459344,-5,0,0,-1,-1,0,0,-6
1570179707459344,0,0,-1,0,0,0,-1,-3
1570179707480286,0,1,1,0,1,1,2,13
1570179707480286,3,0,0,-2,2,-2,-2,1
1570179707481381,-2,-2,0,0,-1,-1,-2,-5
1570179707481381,-1,-1,-2,0,-2,-1,0,-4
1570179707495247,-2,-2,-1,-1,-1,1,0,-6
1570179707495247,2,-1,-2,0,-1,0,1,5
1570179707496332,1,0,-1,0,0,0,0,1
1570179707496332,-4,-1,0,-1,-2,0,1,1
1570179707516190,3,0,2,0,-1,-3,0,-2
1570179707516190,-2,-1,-2,0,0,1,0,1
1570179707525166,-5,-2,2,-1,0,-2,-5,-17
1570179707525166,-1,0,0,-1,-2,1,-1,0
1570179707531154,3,0,0,-2,0,0,0,4
1570179707531154,-2,-1,-2,-1,-1,-1,-1,-4
1570179707540313,3,0,-2,2,0,-1,1,6
1570179707540313,-2,-1,-2,2,0,-1,-1,-7
1570179707555086,0,1,0,0,0,1,-1,-2
1570179707555086,0,-1,-1,-1,-2,-1,-2,3
1570179707556084,0,-2,-3,-2,-2,0,-1,-3
1570179707556084,-2,-2,-1,-1,-1,0,-1,-2
1570179707578136,-2,-1,-3,-1,0,0,0,3
1570179707578136,0,-1,-1,-1,0,0,0,-1
1570179707580024,-1,1,0,-2,0,1,0,-2
1570179707580024,8,0,-2,-1,0,-1,-1,7
1570179707600621,-3,-1,0,0,0,-1,-1,-5
1570179707600621,-3,-2,-1,0,-1,0,-2,-5
1570179707601962,-3,-1,-2,-1,0,0,-2,-10
1570179707601962,-2,0,-2,-2,-1,0,0,-4
1570179707614930,-7,0,0,0,-1,-1,-2,-12
1570179707614930,2,-1,1,-1,0,0,1,2
1570179707615982,1,-3,-2,-1,-1,-1,2,8
1570179707615982,-3,-2,-2,1,0,-1,-4,-8
1570179707637865,1,0,-1,0,0,0,-1,2
1570179707637865,-2,-1,-2,-1,-3,0,0,1
1570179707638894,-1,0,1,0,0,0,1,4
1570179707638894,0,-2,0,-1,0,0,-1,-7
1570179707659812,2,-1,-2,0,-1,0,-1,3
1570179707659812,-1,-1,1,0,-1,-1,-1,-5
1570179707661820,3,0,-1,0,-1,0,-1,6
1570179707661820,-4,0,1,-1,1,0,-1,-6
1570179707674770,10,1,-1,-2,-1,-2,0,16
1570179707674770,-11,-2,0,-1,0,-2,-1,-8
1570179707676826,6,1,-3,-1,-2,-1,0,17
1570179707676826,-3,0,-1,0,-1,0,2,3
1570179707697823,-6,-2,0,-1,-1,-1,0,-5
1570179707697823,3,-2,0,0,1,-2,-3,-13
1570179707698703,-3,-1,0,-1,0,0,-1,1
1570179707698703,-2,-2,-1,0,-1,-1,-1,-3
1570179707719789,6,0,-2,-1,-1,1,2,11
1570179707719789,-1,-1,-1,0,0,0,-1,3
1570179707721886,-3,0,0,0,-1,-1,-2,-8
1570179707721886,2,0,-1,-2,-2,0,-1,0
1570179707734655,-4,0,-1,1,-1,-2,1,-5
1570179707734655,4,-1,-2,-3,-1,0,0,16
1570179707736602,10,1,1,-1,0,-1,3,13
1570179707736602,3,1,-3,-2,-1,-1,-2,1
1570179707757547,-5,-1,-1,-1,0,0,-1,-6
1570179707757547,1,0,-1,-1,-1,1,2,3
1570179707758543,-2,-1,0,0,-1,1,0,-2
1570179707758543,-8,-2,1,-1,-1,-2,-2,-3
1570179707779491,1,-2,-1,0,1,0,0,1
1570179707779491,0,-1,0,-1,-1,-2,-1,-2
1570179707781577,-7,-1,0,-1,-2,0,-4,-17
1570179707781577,5,2,-1,1,-2,0,2,10
1570179707794632,-3,-1,-1,-2,-2,-1,-3,-3
1570179707794632,-3,0,-1,-2,-1,0,-1,-5
1570179707801472,0,-1,0,0,1,-1,2,0
1570179707801472,-2,-2,-2,-2,0,-1,0,-2
1570179707817390,0,0,0,-1,-1,0,-3,0
1570179707817390,3,1,0,-1,-2,1,1,4
1570179707819379,-3,-2,1,-1,-2,0,-2,-5
1570179707819379,1,-1,0,-3,2,-2,0,3
1570179707840323,-1,1,1,-2,1,0,0,-3
1570179707840323,-1,-2,-2,0,-1,0,-2,0
1570179707841322,-3,0,-1,-1,-1,-1,-1,-3
1570179707841322,0,-1,0,0,-1,1,-1,-1
1570179707854286,-1,-2,-2,0,-1,-1,1,3
1570179707854286,-1,2,-1,0,1,-1,0,-4
1570179707861272,1,-2,-1,-2,-1,0,0,1
1570179707861272,0,-1,1,0,-1,0,1,3
1570179707877228,1,-1,0,-2,-1,-1,1,4
1570179707877228,-3,0,0,1,-1,0,0,0
1570179707879394,-3,-2,-2,0,0,-1,-3,1
1570179707879394,-9,-2,1,-2,-1,-1,-4,-14
1570179707900199,-1,-2,0,-1,0,-1,-2,-7
1570179707900199,0,-1,-1,0,-1,0,-1,-1
1570179707901163,1,-1,-2,-2,0,0,1,2
1570179707901163,-2,2,-3,0,1,-1,1,-4
1570179707914129,-3,-1,-1,-1,-2,-2,-3,-3
1570179707914129,-2,-1,-2,0,-2,-1,-1,2
1570179707921113,0,0,-1,1,1,0,-1,-2
1570179707921113,1,0,-1,1,-2,1,-2,5
1570179707937066,-2,-3,0,-1,-1,0,-2,-2
1570179707937066,-1,-1,0,-2,1,-3,-1,1
1570179707939061,0,-2,0,-2,0,0,1,-1
1570179707939061,0,0,-1,0,-1,-1,1,5
1570179707960009,0,-2,-1,1,1,0,0,-8
1570179707960009,-3,0,-1,-2,-3,-1,-3,-9
1570179707961999,-2,-1,0,0,0,-2,-1,-2
1570179707961999,3,0,0,-1,0,-1,0,4
1570179707982943,-4,0,0,0,0,-1,-1,-7
1570179707982943,2,1,0,-1,0,0,1,9
1570179707984043,1,0,1,-2,-2,0,1,6
1570179707984043,0,-2,1,-1,-1,0,0,6
1570179707997904,-2,0,-2,1,-2,-3,-3,-3
1570179707997904,1,-2,0,0,1,0,0,-2
1570179707998901,-3,0,-2,0,-2,-1,1,-1
1570179707998901,1,-1,0,1,0,-1,-1,-3
1570179708018888,1,1,-1,-2,-1,0,0,3
1570179708018888,-1,0,0,-1,0,-2,0,-3
1570179708027823,-6,-1,1,0,0,0,0,-6
1570179708027823,3,-2,-1,-3,-1,-2,-2,-10
1570179708033849,1,2,-1,-1,0,2,0,1
1570179708033849,2,-1,-1,2,-2,-1,-2,-1
1570179708041153,2,-1,-3,0,-1,-1,-2,2
1570179708041153,-1,0,0,-1,-2,0,-2,0
1570179708057742,3,-1,-2,-1,0,0,1,6
1570179708057742,0,0,-1,-1,-2,-2,-1,-4
1570179708058747,-1,0,-2,-1,0,0,-2,-1
1570179708058747,-2,-1,-1,0,-1,-2,-1,-3
1570179708080745,-1,0,0,-1,-2,1,0,1
1570179708080745,-3,0,-1,-2,1,-1,0,0
1570179708081681,0,-1,0,-1,0,-2,-1,-2
1570179708081681,-1,-1,-2,0,0,0,0,1
1570179708093651,-1,-1,-1,0,0,-2,-1,0
1570179708093651,1,-2,-2,-1,1,-1,-1,-1
1570179708109608,1,-1,0,-1,-1,-1,-1,-1
1570179708109608,1,0,-1,-2,-2,-1,0,0
1570179708117683,-2,1,0,-1,-1,-1,-1,-1
1570179708117683,-2,-1,-1,0,0,-1,-2,-1
1570179708118581,-1,-2,-2,1,0,-1,0,-1
1570179708118581,-1,-2,-1,1,0,-1,-1,0
1570179708139524,0,-1,-1,1,-1,1,0,0
1570179708139524,0,-1,0,0,0,-1,-1,8
1570179708141579,-1,0,0,-1,0,0,-1,13
1570179708141579,-1,-1,0,-2,1,0,0,7
1570179708153492,-1,-1,0,-1,0,-1,0,3
1570179708153492,0,-2,0,-1,-2,1,2,-6
1570179708162565,1,-1,-1,0,0,-2,1,-7
1570179708162565,-1,0,0,2,-2,-2,-1,-7
1570179708177425,-3,-2,-1,-1,0,1,-1,-10
1570179708177425,2,1,0,0,-1,0,-3,-15
1570179708179418,2,-1,0,-1,-2,-1,1,1
1570179708179418,-2,-1,0,-1,-1,2,1,-2
1570179708200363,-3,-3,-1,-2,0,-1,1,-5
1570179708200363,0,-1,-1,0,-2,0,0,5
1570179708201362,-3,1,-1,-2,-1,-2,-3,-6
1570179708201362,0,0,-1,0,-1,0,0,0
1570179708214324,0,-1,-2,1,-1,-1,1,4
1570179708214324,-3,-3,0,-3,0,0,-1,-2
1570179708222305,0,0,-1,0,1,0,-1,-4
1570179708222305,1,-1,-3,-3,-1,-1,0,4
1570179708237263,2,0,1,-2,0,0,-3,2
1570179708237263,0,0,0,0,-2,-1,-1,2
1570179708239258,-2,-2,1,-1,-3,1,-2,-6
1570179708239258,-1,-1,-2,0,-1,1,-2,1
1570179708260205,2,1,-2,1,-1,0,1,2
1570179708260205,-5,-2,0,0,1,0,-2,-3
1570179708261250,-1,0,-1,0,-1,-1,-1,2
1570179708261250,-1,0,1,0,0,-1,0,1
1570179708273210,2,0,-1,0,-2,-1,-2,-1
1570179708273210,-1,-2,-1,0,-1,-1,-2,5
1570179708282144,1,-1,-1,-1,-2,1,0,-1
1570179708282144,0,-1,-2,-1,-3,-1,1,-2
1570179708297147,-3,-1,0,0,0,-1,-2,-1
1570179708297147,0,-1,0,-2,1,0,0,-1
1570179708299097,0,-1,-1,1,1,0,1,0
1570179708299097,1,-1,1,0,1,-2,-2,-2
1570179708320084,-1,-1,0,-2,-1,0,-2,-1
1570179708320084,-1,0,-2,-2,-1,0,-2,-3
1570179708321109,0,1,0,-2,-1,0,0,0
1570179708321109,-1,-1,0,1,1,0,-1,-3
1570179708334004,1,-2,-1,0,-1,0,2,8
1570179708334004,1,0,-3,0,-2,-1,2,-2
1570179708342979,-1,-1,-1,-2,0,-1,1,-4
1570179708342979,-1,1,-1,-2,0,-1,-1,2
1570179708356942,0,-1,-1,0,0,-1,-1,6
1570179708356942,0,0,-1,0,0,0,2,6
1570179708358994,5,-2,-2,0,-2,0,3,10
1570179708358994,-2,-1,-1,-2,-1,0,-5,-10
1570179708378889,-9,-1,1,0,-1,1,1,-24
1570179708378889,2,-1,0,-1,2,-2,-3,-4
1570179708387859,-1,-1,0,-1,-2,0,0,-3
1570179708387859,0,-1,-1,-2,0,-1,0,3
1570179708393843,-1,1,0,2,1,2,1,4
1570179708393843,-5,-1,0,-1,-1,-1,-2,-15
1570179708409811,-2,-1,0,1,2,-2,-4,-5
1570179708409811,0,-1,-1,-1,-2,0,0,0
1570179708418038,2,-1,-2,-2,0,-2,-1,3
1570179708418038,-1,-1,-1,2,1,-1,2,2
1570179708419242,4,1,-2,-3,-1,0,-1,6
1570179708419242,0,0,0,0,-1,-1,0,6
1570179708440027,0,0,0,-3,-1,0,-3,-3
1570179708440027,2,0,0,-1,-2,-1,1,4
1570179708441980,-3,-2,0,-2,-1,-1,-1,-5
1570179708441980,-4,-1,0,-1,-1,-1,-1,-5
1570179708453769,5,-1,-1,-1,-1,0,0,2
1570179708453769,-1,-2,-1,-1,-1,0,0,1
1570179708462646,-2,0,1,-1,-1,-1,-1,-1
1570179708462646,0,0,-1,0,0,-1,1,1
1570179708477973,-1,0,-1,0,-1,-1,-2,1
1570179708477973,-1,-1,-1,-1,-1,0,0,-2
1570179708478981,-1,0,0,0,0,-1,-3,2
1570179708478981,0,-2,0,0,0,0,0,5
1570179708499702,-1,-3,-2,0,0,-1,1,-2
1570179708499702,-1,-2,-1,0,-1,-1,-1,3
1570179708501652,-2,-2,-1,0,-2,0,-1,-4
1570179708501652,-2,-1,0,0,0,1,-2,-3
1570179708513680,3,2,0,-1,1,0,1,4
1570179708513680,-1,-1,0,0,-1,0,-1,0
1570179708522647,-5,-1,-1,-1,0,-1,0,-7
1570179708522647,1,0,-2,0,-1,-1,0,2
1570179708537807,3,0,-1,-1,-1,-1,0,5
1570179708537807,-2,0,-1,0,1,0,1,-1
1570179708539550,-1,0,0,-1,1,0,0,-3
1570179708539550,3,-1,-1,-2,0,-1,-1,2
1570179708560386,-3,-2,0,-1,-3,-1,-2,2
1570179708560386,-2,1,-1,-1,0,0,0,2
1570179708561167,1,0,-1,0,-3,0,1,0
1570179708561167,-2,0,-1,1,0,-1,1,-4
1570179708582991,-2,0,-2,-1,0,-1,-3,0
1570179708582991,-2,0,-1,-1,-2,-1,-2,-7
1570179708584031,-2,-1,-1,-1,-1,0,-1,-2
1570179708584031,2,-1,-1,0,-2,1,-1,0
1570179708597821,3,-1,0,-1,-1,-2,-1,7
1570179708597821,2,0,0,0,-1,0,-2,4
1570179708598943,-1,0,0,-1,-1,0,-1,3
1570179708598943,-3,-2,-2,-2,-1,-1,0,-1
1570179708628013,-2,0,0,0,-1,-2,-1,-4
1570179708628013,0,-1,0,-1,0,1,0,-2
1570179708629166,0,-2,-2,-2,1,-3,-1,2
1570179708629166,-1,0,1,-1,0,-1,-2,-3
1570179708642786,-3,-1,0,-2,0,0,-1,-5
1570179708642786,2,0,-1,-2,1,-1,0,2
1570179708644519,0,-1,-1,1,-2,1,-1,-2
1570179708644519,1,-1,-3,0,-1,1,0,0
1570179708664866,-5,-3,-1,1,1,0,1,-15
1570179708664866,2,0,-1,0,-1,-2,-1,-5
1570179708666861,-1,0,-2,-1,-1,-2,-2,-1
1570179708666861,-1,-2,1,-1,-1,-1,0,-2
1570179708679699,0,-2,0,-2,-2,-1,-1,6
1570179708679699,0,0,-1,1,-1,-2,0,9
1570179708681561,-3,-1,1,-1,1,0,-2,-4
1570179708681561,-4,-2,-1,0,-2,-1,-3,-5
1570179708702738,0,-2,-1,-1,-2,1,-2,-2
1570179708702738,0,0,-2,-1,1,0,0,2
1570179708704499,4,-1,1,1,0,-1,1,9
1570179708704499,0,1,-1,0,2,0,-3,-3
1570179708717241,-2,1,0,0,-1,-1,-3,-1
1570179708717241,0,0,-1,-1,-1,-2,2,0
1570179708723132,-1,-2,-2,-1,0,0,0,-13
1570179708723132,-1,-1,0,0,-2,-1,0,-1
1570179708740083,0,0,-1,-3,-2,1,0,0
1570179708740083,-2,0,-1,0,-2,0,0,-2
1570179708742079,-1,0,-1,-1,0,0,0,1
1570179708742079,1,-1,0,-2,1,-1,0,1
1570179708763022,1,0,-1,0,0,-1,-3,0
1570179708763022,-7,-1,1,0,-1,0,-2,-12
1570179708764040,1,0,0,-1,-2,0,-1,3
1570179708764040,1,0,-1,-1,-1,-1,0,2
1570179708776983,-2,0,-1,0,-1,-2,0,0
1570179708776983,-1,-1,1,-1,-1,-1,-1,-1
1570179708783966,-1,-2,-1,1,-3,0,0,2
1570179708783966,0,1,0,0,1,0,-3,-6
1570179708807069,-1,-1,0,1,-1,0,-1,-4
1570179708807069,-2,-2,0,0,-1,0,0,7
1570179708815034,7,1,-2,-2,0,-2,2,8
1570179708815034,0,0,0,0,-1,0,1,4
1570179708822862,1,-2,-2,-1,-1,0,2,-2
1570179708822862,1,-2,-2,0,0,0,0,0
1570179708824856,-4,-1,0,0,-2,-1,-1,-1
1570179708824856,-2,-1,0,-1,-2,0,1,-1
1570179708836836,0,-1,-1,-1,0,-1,-1,2
1570179708836836,0,-1,-1,-2,0,-1,-1,-1
1570179708843806,-1,-1,1,-2,1,-1,-1,-2
1570179708843806,-1,-1,1,-1,-1,0,-3,-4
1570179708867741,4,-1,-2,-1,0,0,0,2
1570179708867741,-2,0,0,-2,-2,0,-2,-6
1570179708868807,-1,0,-1,-1,0,0,-3,-3
1570179708868807,1,-1,-1,-1,-1,0,1,3
1570179708882861,-2,0,-2,0,-1,0,0,0
1570179708882861,-3,-2,-2,-2,0,0,-1,-4
1570179708883699,-1,0,0,-1,0,-1,-1,1
1570179708883699,-2,1,-1,0,-2,0,0,0
1570179708896709,-4,-1,-1,-1,0,-1,-1,-8
1570179708896709,3,0,-1,-1,-2,-2,-1,1
1570179708903646,-2,0,0,-1,1,-2,1,10
1570179708903646,-6,-1,-1,-1,0,-1,-4,-9
1570179708927752,0,0,-1,-2,-1,-3,0,-1
1570179708927752,-2,-1,0,1,0,0,-2,0
1570179708928580,0,-3,-1,0,-1,0,-1,1
1570179708928580,-2,-2,0,1,-1,0,0,-2
1570179708942541,1,-3,-2,-1,-2,1,-2,7
1570179708942541,-1,0,0,0,1,0,-1,-3
1570179708944538,0,1,-1,0,-2,-2,0,-5
1570179708944538,0,-1,-1,-1,-2,-1,1,3
1570179708956505,-1,-1,1,1,0,1,-3,-4
1570179708956505,0,0,-1,-1,-1,-1,0,4
1570179708980564,0,0,0,-2,0,0,-1,-4
1570179708980564,-2,-1,-1,1,-1,-1,-1,-2
1570179708981437,1,0,1,-1,-1,-1,2,2
1570179708981437,-1,-2,-2,0,-1,-2,-1,0
1570179708983434,-1,-1,-1,0,-1,0,2,-2
1570179708983434,0,0,-2,-1,0,0,0,1
1570179709002385,-3,1,-1,-3,-1,0,0,0
1570179709002385,0,-1,-2,0,0,-1,-1,-1
1570179709004375,-1,0,-2,-1,1,0,0,-3
1570179709004375,1,-2,0,-1,1,-1,0,1
1570179709016558,-4,0,-4,-1,1,1,-3,-13
1570179709016558,2,0,-1,-1,0,-1,-1,-1
1570179709031560,-3,-1,-1,-1,-2,-1,-3,-7
1570179709031560,-3,1,0,0,0,-1,0,-4
1570179709039664,4,0,-1,0,0,-4,0,6
1570179709039664,-1,-1,0,0,-2,-1,-1,-1
1570179709041491,-1,-2,0,-1,-1,1,-2,-5
1570179709041491,-1,0,1,-1,-1,0,1,3
1570179709062453,-7,-3,2,2,-1,-1,-1,-10
1570179709062453,4,-1,-1,0,-1,-1,-2,4
1570179709064429,-1,-2,-1,-2,-2,-2,2,2
1570179709064429,2,0,-1,-1,0,-1,1,1
1570179709076401,-2,-2,1,-2,-1,0,-1,-1
1570179709076401,-2,-1,-1,0,0,0,0,-5
1570179709085380,1,-1,0,0,-2,-1,-2,1
1570179709085380,1,0,-2,0,-1,-1,1,7
1570179709100418,-1,0,-2,0,0,-1,-1,-6
1570179709100418,-2,1,-1,-1,-2,-1,1,-1
1570179709101332,0,1,-1,-1,0,0,0,1
1570179709101332,0,0,-1,-2,-3,-1,0,3
1570179709122279,-1,-2,0,-1,-1,-2,0,5
1570179709122279,0,-1,-1,0,-1,0,1,0
1570179709124275,0,-1,0,1,-1,-2,0,-1
1570179709124275,1,0,-1,-1,1,0,-2,-2
1570179709136344,0,0,-2,-2,0,1,1,3
1570179709136344,-2,0,-1,-1,0,1,-1,-2
1570179709145217,-4,-2,-3,-1,-1,-2,-4,0
1570179709145217,-2,1,-1,0,0,-3,-2,-4
1570179709160180,5,-2,-1,-1,-1,0,2,7
1570179709160180,-2,1,0,-1,0,-1,0,-1
1570179709161462,-1,-1,-1,0,-1,2,-1,-1
1570179709161462,1,-2,-2,1,-1,-2,0,-2
1570179709182178,-4,0,1,-1,0,0,-3,-4
1570179709182178,2,-2,0,-1,0,0,-1,4
1570179709184110,0,2,-1,0,1,0,0,1
1570179709184110,1,-1,-1,-1,0,-1,0,1
1570179709196216,-1,-1,1,0,0,-1,-1,-2
1570179709196216,0,0,-2,-3,-1,0,0,3
1570179709205055,-4,-1,-2,0,-2,-1,-1,-1
1570179709205055,1,1,-1,-2,0,0,0,-1
1570179709220018,-3,-2,0,1,-1,-3,-1,-6
1570179709220018,1,-1,0,0,-1,0,-2,0
1570179709221010,-2,-2,-1,0,-1,0,2,-1
1570179709221010,-2,-1,0,0,-1,0,0,-1
1570179709241958,2,0,-1,-2,-1,0,-1,3
1570179709241958,-1,-1,1,-1,0,-1,0,-3
1570179709243949,1,-1,2,-1,-1,0,1,-1
1570179709243949,-3,-1,1,-1,0,-2,-3,-7
1570179709255921,2,1,-2,0,-1,-1,1,11
1570179709255921,1,-2,-1,-1,0,0,-2,-1
1570179709265893,0,0,-1,0,0,0,-1,1
1570179709265893,0,-2,-1,-1,0,0,-1,-1
1570179709279854,-3,-1,0,0,0,0,-1,-7
1570179709279854,-1,0,0,0,-1,-2,1,-1
1570179709281848,0,0,0,-1,-2,-2,1,-1
1570179709281848,-2,-1,-1,0,-3,0,-2,0
1570179709302876,-1,1,-1,1,-2,-1,0,1
1570179709302876,3,1,0,-1,0,1,0,2
1570179709303790,-1,-1,0,-1,-1,0,-1,-5
1570179709303790,-1,2,0,-1,0,-2,1,6
1570179709315756,1,-1,-2,-1,-1,1,-1,-7
1570179709315756,-1,0,-2,0,-1,-1,0,-1
1570179709324734,0,0,-1,1,-1,0,-2,-1
1570179709324734,2,1,0,0,-1,0,0,1
1570179709339765,-1,-3,-1,-3,-1,-1,-1,2
1570179709339765,-2,1,-1,-1,0,0,-1,-3
1570179709341696,2,-1,-1,-1,-1,0,0,0
1570179709341696,1,-1,-1,-2,0,-1,0,4
1570179709362712,2,0,-1,-1,-1,-1,0,8
1570179709362712,-1,0,-1,-1,-2,-2,-1,-4
1570179709363630,-1,-1,-2,0,0,-1,0,1
1570179709363630,0,-1,0,1,0,0,0,-3
1570179709375602,-1,0,0,1,-1,0,0,-1
1570179709375602,-3,-1,-2,-2,0,-1,-1,2
1570179709385573,-2,-2,0,-1,0,0,-1,-2
1570179709385573,-1,-2,-1,-1,-3,0,0,3
1570179709399539,-3,0,0,-1,-2,0,-1,-2
1570179709399539,-2,-3,1,0,0,-1,-1,-5
1570179709401529,6,0,1,-2,-1,0,1,9
1570179709401529,-1,-2,1,0,0,0,-2,-3
1570179709422474,-1,-1,-2,-2,0,0,0,-1
1570179709422474,-2,0,0,-1,-2,-3,-1,0
1570179709424467,-2,-3,-1,-2,0,-2,1,-1
1570179709424467,2,0,-1,-1,-2,-2,-3,0
1570179709436433,-1,1,1,-1,0,0,-1,0
1570179709436433,0,-3,1,0,1,1,1,9
1570179709445414,0,-1,-2,0,0,-1,1,0
1570179709445414,-1,0,0,0,-1,0,0,-2
1570179709460413,-1,-1,-1,0,1,0,1,-1
1570179709460413,-1,-1,-1,0,0,1,4,-1
1570179709461938,-3,0,0,-1,0,0,7,-14
1570179709461938,0,0,-2,-1,-2,-2,-2,-2
1570179709482311,-3,-1,-1,0,0,-1,-6,-7
1570179709482311,2,-1,1,1,0,0,1,6
1570179709484312,-2,-4,-2,-1,-1,-3,-3,-13
1570179709484312,-4,-2,-1,0,0,-1,-1,-3
1570179709505324,4,3,0,1,0,-2,-6,2
1570179709505324,-1,-1,-1,-1,-2,0,-2,-7
1570179709506249,-6,1,2,0,0,1,-5,8
1570179709506249,3,-3,-3,-1,0,0,3,0
1570179709519218,7,0,-1,1,-2,-5,-6,8
1570179709519218,-3,-1,-1,-2,-2,-2,-2,-4
1570179709526194,1,1,0,-1,-1,-1,-4,4
1570179709526194,-6,-1,-2,-1,-1,-1,3,-12
1570179709542193,-4,-3,0,-1,-2,3,12,-1
1570179709542193,7,2,1,3,1,-1,-19,2
1570179709544365,-2,0,1,-3,-3,-3,-6,-18
1570179709544365,-4,-3,-1,0,0,2,3,-28
1570179709565101,-10,-4,-4,-3,-3,-1,10,-44
1570179709565101,0,1,0,1,0,0,3,12
1570179709566088,3,1,1,0,0,-3,-8,12
1570179709566088,-7,-3,-2,-2,-2,-2,2,-1
1570179709587034,7,2,-4,-1,1,1,-9,34
1570179709587034,-16,-6,-1,-2,-2,-4,-2,-55
1570179709589027,3,1,-1,1,0,-1,3,8
1570179709589027,2,1,1,-1,1,-1,0,12
1570179709602072,2,-1,0,-1,-1,0,-4,5
1570179709602072,-4,-2,-4,-3,-1,0,5,-5
1570179709603988,3,1,1,1,1,0,2,19
1570179709603988,2,1,1,0,0,1,-3,-2
1570179709625079,-4,-1,0,1,0,0,1,-12
1570179709625079,2,0,0,-2,0,2,-1,2
1570179709626925,-8,-3,-3,0,-3,-2,4,-16
1570179709626925,7,2,0,-2,0,0,-1,20
1570179709640899,4,0,1,1,1,-1,-2,9
1570179709640899,4,1,0,0,-1,-1,1,12
1570179709641886,2,1,-2,0,1,1,0,1
1570179709641886,-6,-1,0,0,-1,-1,-2,-9
1570179709662830,3,-1,0,1,-1,0,-3,4
1570179709662830,3,0,-1,0,-2,1,2,10
1570179709663828,-1,-1,-2,-2,-1,0,3,-3
1570179709663828,0,0,0,1,1,-2,-3,-3
1570179709684780,-3,-2,-1,-2,-1,1,-1,-3
1570179709684780,1,-2,-2,0,0,-1,1,16
1570179709686765,-2,-4,-3,-2,-1,2,10,-6
1570179709686765,1,-1,0,-1,0,-2,-3,7
1570179709699731,-4,0,-2,-1,0,1,2,-7
1570179709699731,1,1,0,0,1,0,-5,8
1570179709705981,0,0,-1,1,0,0,1,1
1570179709705981,-4,-2,-2,-1,-4,-3,-7,-42
1570179709722802,2,4,0,1,2,2,3,10
1570179709722802,-3,-3,-3,-3,-1,-1,1,-8
1570179709725661,1,-1,1,0,-1,-1,-2,5
1570179709725661,0,-1,3,0,-2,-1,-2,6
1570179709744612,0,-2,0,0,-2,-3,-5,-2
1570179709744612,1,0,0,1,-1,-2,0,0
1570179709746606,5,0,0,-1,1,-1,-2,5
1570179709746606,-1,-1,-1,-2,-2,0,1,5
1570179709759575,-2,0,-1,-1,-2,0,0,-1
1570179709759575,2,1,-1,-2,0,0,3,6
1570179709766551,-6,-2,-1,0,-1,-2,-5,-10
1570179709766551,2,0,0,0,1,1,2,5
1570179709782518,0,0,1,0,0,1,0,-2
1570179709782518,-1,-1,-2,1,-1,0,-2,-5
1570179709784505,-2,0,0,0,-2,-3,-5,-4
1570179709784505,3,2,-1,-2,-2,-1,2,13
1570179709804477,-2,0,-1,0,0,-3,-3,-3
1570179709804477,0,-1,-2,0,-1,-1,1,-3
1570179709806445,1,-1,-1,-1,0,0,-1,-3
1570179709806445,3,2,0,1,1,-1,2,10
1570179709819410,-2,-1,0,-4,0,-1,-1,-4
1570179709819410,-2,1,1,0,-1,-1,-1,-10
1570179709826395,2,-2,-1,-1,-2,2,-1,10
1570179709826395,1,-1,1,0,0,0,5,24
1570179709842353,-1,-2,-3,-1,0,-1,-2,-3
1570179709842353,1,-1,-1,-1,0,0,0,3
1570179709844344,-3,0,-2,-1,-2,1,1,-5
1570179709844344,-3,-1,0,-1,-2,0,-3,-9
1570179709865287,-2,-1,-1,0,-2,0,0,2
1570179709865287,-1,-1,-1,-1,0,0,-1,-1
1570179709866285,0,0,0,-1,-1,-1,2,1
1570179709866285,-3,-2,-1,-1,-2,-1,-2,-1
1570179709879251,1,0,-1,1,1,-1,0,-1
1570179709879251,-5,-2,0,-1,0,-1,-2,-10
1570179709886266,1,1,1,-1,0,0,-2,0
1570179709886266,2,-1,-1,-2,-1,0,-1,5
1570179709903188,0,0,0,-1,1,-2,0,0
1570179709903188,0,-1,-1,-1,-1,-1,0,2
1570179709904186,1,0,0,0,0,0,-1,-1
1570179709904186,-1,-3,-2,0,1,-1,1,-3
1570179709925214,-1,0,-2,-1,-1,1,-1,-3
1570179709925214,0,0,2,0,-1,0,-1,5
1570179709926130,0,-2,-2,-1,-1,0,1,-6
1570179709926130,5,2,2,-1,1,-1,-12,5
1570179709939095,0,0,1,1,-2,-1,-2,-2
1570179709939095,1,1,-2,-1,-2,0,0,5
1570179709946075,0,0,-1,0,-1,0,2,12
1570179709946075,-3,0,-1,0,-1,0,1,-5
1570179709962135,-2,-1,-1,-1,-2,0,0,-2
1570179709962135,3,-2,-3,-2,-1,1,1,9
1570179709964025,-5,-2,0,1,0,0,-3,-7
1570179709964025,1,0,-1,-1,0,1,2,-6
1570179709984973,0,0,0,0,0,-3,-2,5
1570179709984973,-2,-1,0,-1,-1,0,1,-8
1570179709986964,-2,0,-2,-1,0,0,-1,-3
1570179709986964,-2,0,-2,1,0,0,0,-4
1570179709998930,-1,-1,-1,0,-1,1,0,-6
1570179709998930,1,-1,-1,-1,1,1,1,5
1570179710005917,0,0,-1,-1,-1,-2,-2,-2
1570179710005917,-1,-1,-2,-1,-2,-1,0,-1
1570179710022867,1,-1,0,-1,0,-2,2,7
1570179710022867,0,0,-2,-1,-1,-1,0,-13
1570179710023869,1,-1,-2,0,-1,-1,1,2
1570179710023869,-1,-1,-3,0,-3,-1,1,-3
1570179710052788,-4,-1,0,-2,0,2,1,-7
1570179710052788,4,1,0,0,0,-1,-12,13
1570179710053813,-4,-1,-1,-2,0,-1,-3,-10
1570179710053813,-1,-1,1,0,-1,0,1,-2
1570179710058775,0,-1,-3,-1,1,0,1,1
1570179710058775,-3,-1,-1,-1,-1,0,1,-4
1570179710067747,3,-1,0,-1,-1,-1,0,2
1570179710067747,-5,-1,1,1,-2,-1,-3,-5
1570179710081712,1,1,0,0,0,0,2,3
1570179710081712,-1,-1,1,0,0,-3,2,-3
1570179710089928,-1,0,1,-1,-1,-1,-1,1
1570179710089928,-4,-2,-2,-2,0,-1,0,-4
1570179710104845,0,-3,1,0,-3,0,-2,1
1570179710104845,-4,0,0,-1,0,-2,1,-4
1570179710106719,-2,0,-2,-1,0,1,0,2
1570179710106719,0,0,1,0,-1,1,2,1
1570179710118620,-2,0,-2,-2,-1,1,-1,4
1570179710118620,1,0,0,0,-1,0,-2,6
1570179710127977,1,-1,0,-1,-2,1,-3,-2
1570179710127977,-1,0,-2,1,3,0,0,-2
1570179710142550,1,-1,-2,-2,-1,0,-2,1
1570179710142550,0,0,-2,-1,-1,0,3,-4
1570179710143623,-3,-1,-3,-2,0,0,0,-1
1570179710143623,-7,-4,-2,-2,-1,-1,9,-18
1570179710164493,-2,-2,1,-2,-2,-4,2,1
1570179710164493,-1,-1,-1,0,0,-2,-3,-1
1570179710166483,-1,-1,0,-1,-1,0,1,-1
1570179710166483,-3,-1,-1,-1,-3,-1,-3,-1
1570179710178663,-3,1,0,1,-2,-2,-4,-9
1570179710178663,-3,-3,-2,1,0,0,2,-7
1570179710195404,2,0,1,1,0,-2,0,4
1570179710195404,1,-1,-2,-2,0,-2,-1,4
1570179710202386,0,-2,-3,-1,-3,-1,0,-1
1570179710202386,-3,1,0,-3,-2,1,7,-8
1570179710204382,1,-1,-1,0,0,-1,-5,0
1570179710204382,2,-1,1,-2,0,1,0,4
1570179710225327,2,-1,1,1,0,-3,-7,-8
1570179710225327,-3,-4,-3,-3,0,2,11,-9
1570179710226328,0,1,-2,0,-1,-1,-5,-1
1570179710226328,2,2,1,-1,0,-1,-3,5
1570179710238295,1,-1,-2,-1,1,0,0,2
1570179710238295,-1,0,-1,0,1,-1,-4,2
1570179710247275,-2,-2,0,0,-2,0,2,-6
1570179710247275,5,-1,0,-1,1,-1,-3,9
1570179710270263,-2,0,0,0,-2,1,1,-1
1570179710270263,-2,-1,-1,-1,-2,0,-6,3
1570179710271202,3,0,-1,-2,-2,-1,3,8
1570179710271202,-1,0,-2,-1,-2,-1,0,-4
1570179710285175,-1,1,0,-2,0,-1,2,0
1570179710285175,0,1,-1,0,0,0,-5,2
1570179710287161,-2,0,-1,-1,0,-1,-2,-5
1570179710287161,-6,-4,-3,-2,-3,1,10,-16
1570179710298190,1,-1,-2,-1,0,0,-2,-1
1570179710298190,2,0,1,0,1,-1,-1,6
1570179710307112,0,0,0,0,1,0,1,0
1570179710307112,0,-2,0,-2,0,1,-1,0
1570179710330135,2,2,1,0,0,1,0,3
1570179710330135,-3,1,1,0,0,-3,-5,-10
1570179710331043,-4,-2,-1,-1,-2,-1,-1,-11
1570179710331043,1,1,-1,1,0,-2,-3,6
1570179710345146,-2,-2,-2,-1,-1,0,-1,-3
1570179710345146,-1,0,-1,0,-1,1,0,5
1570179710346004,3,-1,0,0,1,-1,0,10
1570179710346004,0,-2,-1,1,-2,-1,-4,-2
1570179710366945,0,-2,0,1,0,-2,2,0
1570179710366945,-1,-1,-1,-2,-2,-2,0,-1
1570179710369152,-8,-4,-3,-3,-2,0,6,-11
1570179710369152,-1,2,1,-2,1,1,-2,4
1570179710381907,0,0,-1,-1,0,-1,-1,-2
1570179710381907,0,0,0,-1,0,0,-2,4
1570179710383902,-2,0,1,-2,-1,-1,-1,-3
1570179710383902,-3,-1,-2,-1,-2,-1,-2,0
1570179710404898,-1,0,-1,-2,0,0,0,-4
1570179710404898,3,-2,0,-2,-2,-2,3,5
1570179710406845,1,0,0,-1,0,-2,-2,1
1570179710406845,-2,0,0,-1,0,-1,1,-3
1570179710418814,-3,-1,-1,-2,-1,0,-6,-13
1570179710418814,-2,0,0,3,-2,0,-5,-2
1570179710427783,0,-1,-2,0,-2,0,2,4
1570179710427783,3,0,-1,0,-2,0,-1,0
1570179710442747,1,-2,-1,-1,-1,0,-1,-7
1570179710442747,3,2,1,0,0,-2,-14,13
1570179710443742,-2,1,-1,-1,0,0,-3,-3
1570179710443742,-1,0,1,1,1,0,-1,-6
1570179710472721,-1,-1,-2,-2,-1,-1,0,4
1570179710472721,-1,0,2,-1,-1,0,3,-4
1570179710474178,3,1,1,1,-2,-2,-4,3
1570179710474178,0,-2,-1,-1,-1,-1,-5,5
1570179710487683,1,0,-2,-1,-1,0,2,2
1570179710487683,-4,0,-2,0,-3,-1,2,-7
1570179710488621,-1,-2,-1,0,-1,0,2,11
1570179710488621,-1,-3,0,0,-2,0,-3,-11
1570179710502588,-1,0,-1,2,-2,0,-1,3
1570179710502588,0,0,-2,-1,1,0,2,-2
1570179710503581,2,-1,-1,-1,0,0,-1,-2
1570179710503581,0,1,-1,-1,1,-2,0,2
1570179710524524,1,-2,1,-2,0,-1,2,3
1570179710524524,0,-2,0,0,-1,-3,0,2
1570179710526929,3,-1,0,1,1,0,1,2
1570179710526929,-1,0,-1,-1,-1,-1,-2,0
1570179710547464,0,1,0,0,0,-2,0,4
1570179710547464,1,-1,-1,0,-1,0,4,2
1570179710549458,-4,0,-2,-1,0,-1,-4,-7
1570179710549458,-3,-3,-2,-1,-2,3,21,9
1570179710562428,0,-2,-1,0,0,-1,-4,3
1570179710562428,2,-2,-3,-1,0,0,2,8
1570179710564420,1,-1,-1,0,0,0,-1,7
1570179710564420,0,-1,0,-1,-1,-1,-2,-4
1570179710585394,-3,-1,1,0,-1,0,-1,-5
1570179710585394,0,-1,0,-2,-1,0,1,1
1570179710586360,-2,-1,-1,0,-2,-1,1,-3
1570179710586360,0,-1,-1,-1,-1,-1,-4,1
1570179710607303,-3,-2,-3,0,-1,-1,0,-3
1570179710607303,3,1,1,-1,-2,-1,-4,2
1570179710609299,0,1,-1,-1,0,-1,-1,-1
1570179710609299,2,0,-1,0,1,-2,-4,-1
1570179710622264,0,0,0,0,0,-1,1,5
1570179710622264,-5,-1,-1,0,-1,1,2,-5
1570179710629288,-1,-2,0,0,0,-2,-2,-6
1570179710629288,1,0,0,0,0,-1,-3,1
1570179710645212,2,-1,0,-3,-2,-1,0,3
1570179710645212,-2,-1,0,-2,-1,-1,-1,-2
1570179710646200,0,1,-1,-1,-1,-1,0,-1
1570179710646200,-2,0,-1,-1,-1,0,-3,-4
1570179710667144,1,0,-1,-1,-2,-2,-2,-5
1570179710667144,0,-1,-1,-2,0,-2,-1,3
1570179710669311,0,-3,-2,-1,-1,0,0,-1
1570179710669311,-1,-1,0,-1,0,-1,-1,-2
1570179710682102,-7,-2,0,1,-1,-1,13,-12
1570179710682102,0,-1,-1,2,-2,-2,-4,-2
1570179710696068,0,-1,0,0,0,0,0,0
1570179710696068,-1,1,0,1,-1,1,-1,3
1570179710705074,-2,-1,0,-2,-1,0,0,-2
1570179710705074,-3,-1,-1,-1,-2,0,-1,-6
1570179710706249,-2,-1,1,-2,1,-2,0,-2
1570179710706249,-1,-2,-2,1,0,0,-2,-4
1570179710726987,-1,1,0,2,0,0,-3,4
1570179710726987,-1,-1,0,0,-1,2,0,-2
1570179710728979,3,-2,-2,0,-2,0,0,6
1570179710728979,1,0,-2,-2,0,-1,-1,2
1570179710750023,-2,0,1,-1,0,-2,-6,-1
1570179710750023,1,-1,-3,-2,-1,-1,-1,12
1570179710752174,0,0,-1,-2,-2,-1,1,-4
1570179710752174,-3,-2,0,0,-2,-2,-1,-2
1570179710764988,0,0,0,-1,1,-1,-2,-8
1570179710764988,2,-1,-1,0,1,1,-3,9
1570179710766877,-4,-1,-1,1,-1,0,3,-7
1570179710766877,-1,-2,-3,-2,-1,-3,-11,-11
1570179710787820,0,1,-2,-2,-1,-1,-2,3
1570179710787820,-3,-3,-1,-2,0,-3,-1,-10
1570179710788819,-3,0,-2,-1,0,-2,2,-3
1570179710788819,6,1,-1,0,1,1,-3,21
1570179710800785,-3,0,0,1,0,0,1,2
1570179710800785,-3,1,0,0,-2,-1,-5,-9
1570179710809768,-3,-2,-1,-2,-2,-1,-9,-14
1570179710809768,-1,-2,0,-2,-1,0,5,-3
1570179710824724,-5,-4,-4,-1,-2,1,7,-1
1570179710824724,3,1,0,-1,0,-1,4,5
1570179710826716,-1,-2,0,0,-1,0,0,-1
1570179710826716,-1,1,0,0,-1,0,0,-2
1570179710847660,0,-1,-1,-2,-1,-1,-1,31
1570179710847660,-2,-1,-1,0,0,0,-1,17
1570179710848659,1,0,-2,-1,-1,-1,-2,11
1570179710848659,-1,-1,-1,-2,0,-2,0,-8
1570179710861624,2,0,-1,0,1,-1,-3,-17
1570179710861624,-1,-1,0,1,-1,-1,1,-17
1570179710867695,2,3,0,0,1,0,-3,-5
1570179710867695,0,-1,-1,-3,-1,1,2,-2
1570179710885558,-2,-1,2,0,-1,0,-3,-9
1570179710885558,-2,0,0,-1,0,0,0,-5
1570179710887555,-1,-2,-2,0,0,0,2,-1
1570179710887555,1,-1,0,1,0,-2,0,-3
1570179710914934,2,-1,-2,-2,0,-3,0,3
1570179710914934,-3,-2,0,-1,-1,-1,5,-10
1570179710916478,6,2,2,2,0,-2,-8,25
1570179710916478,-1,2,2,1,0,-1,1,3
1570179710921464,-2,-2,0,-1,0,1,-1,4
1570179710921464,-1,-2,-1,-1,-1,0,2,0
1570179710928445,-3,0,-2,-2,0,0,3,-7
1570179710928445,-3,-3,-1,0,0,0,0,1
1570179710945403,5,0,-1,1,0,-1,-4,-1
1570179710945403,-1,-1,-2,-1,0,0,-3,-3
1570179710946398,-2,-2,-1,-2,-1,0,3,5
1570179710946398,-5,-1,1,0,-4,0,0,-6
1570179710967572,7,1,0,-1,-1,0,-1,12
1570179710967572,1,-1,0,-1,0,-2,-4,1
1570179710969335,-2,0,-3,0,0,0,-2,-6
1570179710969335,-5,0,2,0,0,0,3,-9
1570179710981312,5,-1,-1,0,-1,-1,-1,7
1570179710981312,0,0,0,-2,0,-1,-2,-3
1570179710990279,0,0,0,-1,1,1,-1,2
1570179710990279,1,-1,-1,0,0,-2,-3,2
1570179711005242,-10,-3,-3,-1,-3,-2,7,-26
1570179711005242,0,-2,0,0,-2,1,-1,-1
1570179711006237,-4,-3,-1,-2,-1,0,0,-4
1570179711006237,1,0,0,-1,1,-1,-2,6
1570179711027541,-3,-1,-2,-2,-1,0,1,1
1570179711027541,-2,-1,-1,-2,1,-1,5,0
1570179711029177,-2,-2,-2,0,-2,-1,-1,-12
1570179711029177,1,-1,-2,-1,-2,1,-1,0
1570179711041192,5,1,-2,-1,-1,-1,-5,9
1570179711041192,0,0,-1,1,0,-1,0,5
1570179711050206,0,0,1,-1,0,-1,0,2
1570179711050206,0,-1,0,0,-1,0,0,1
1570179711065111,-5,-2,1,1,-1,0,-2,-8
1570179711065111,-2,0,1,-2,-1,-1,-3,3
1570179711066080,0,0,-1,1,-3,-1,10,-2
1570179711066080,0,-2,-3,-1,-1,-1,0,9
1570179711087026,0,0,-1,1,1,-1,0,3
1570179711087026,0,-1,-2,-1,-1,-1,-1,-7
1570179711089107,-1,-1,1,-2,0,-2,-2,3
1570179711089107,-2,-1,-1,-1,0,0,5,-10
1570179711101098,2,2,1,3,1,-2,-10,3
1570179711101098,1,-1,-3,-2,-1,0,1,1
1570179711110005,-2,0,0,-1,-1,1,-1,5
1570179711110005,-1,-1,-1,1,-1,-1,0,-1
1570179711124923,-2,0,0,-3,-2,-1,-1,0
1570179711124923,-3,1,0,0,-1,-1,-1,0
1570179711126917,1,0,-1,-1,-1,1,-4,1
1570179711126917,4,-1,0,0,0,-3,-2,5
1570179711147858,-1,-2,1,-1,0,1,2,0
1570179711147858,-6,-1,-1,0,1,0,1,-5
1570179711148856,2,0,0,1,-2,-1,-2,-3
1570179711148856,0,-1,-1,-2,-2,-1,-1,5
1570179711161826,-1,-1,-1,-1,-1,-2,5,2
1570179711161826,1,-1,0,2,-1,-2,-2,2
1570179711169799,0,-1,-1,0,-1,0,1,15
1570179711169799,0,2,-1,1,-1,0,0,7
1570179711183763,-7,-2,0,-1,0,0,0,6
1570179711183763,0,-1,-2,-2,0,0,4,15
1570179711198727,7,2,2,1,-1,-5,-19,17
1570179711198727,2,0,1,-1,-1,0,-4,0
1570179711207741,-1,-3,0,-1,0,-1,1,5
1570179711207741,0,-1,-2,-2,0,0,-1,-12
1570179711208696,-3,-3,-2,-3,-1,-1,3,-15
1570179711208696,-3,-1,1,-1,0,1,-1,-10
1570179711220669,0,-1,-2,-1,0,-1,-3,-7
1570179711220669,0,1,0,1,-1,1,-1,-10
1570179711229639,0,-2,0,-1,-1,-1,3,-7
1570179711229639,2,0,-3,-2,-1,-2,-2,-2
1570179711244599,-7,0,0,-1,-2,1,1,-11
1570179711244599,3,0,1,-2,0,-1,-1,1
1570179711253010,-3,-2,-2,-1,-1,0,1,-8
1570179711253010,-5,0,0,-1,-1,0,-1,-12
1570179711267824,5,1,0,-1,-1,0,3,11
1570179711267824,1,-1,0,0,0,-2,-1,5
1570179711268535,0,0,0,-1,0,-2,-1,0
1570179711268535,0,0,-1,0,1,-2,-1,-3
1570179711281504,0,0,-2,-2,0,0,-2,-5
1570179711281504,-1,-1,-1,0,-2,1,-2,-3
1570179711290477,-3,-3,-2,-1,-2,0,-4,-1
1570179711290477,1,-1,-2,-1,-1,0,2,16
1570179711304444,-1,1,-1,2,-1,-2,0,-5
1570179711304444,0,-2,-1,-1,-3,0,-4,-1
1570179711306435,-2,3,-3,-1,-1,-1,6,1
1570179711306435,1,0,1,1,0,0,-5,11
1570179711327380,3,0,0,-2,0,2,-1,8
1570179711327380,-7,-2,-3,-1,0,0,3,-1
1570179711329374,1,0,1,2,0,-2,1,-4
1570179711329374,-1,-1,-2,-1,0,-2,-1,-2
1570179711341342,2,0,-1,1,-2,0,2,10
1570179711341342,-1,1,0,0,1,-1,-1,-6
1570179711350366,-1,-1,-2,-2,0,-2,-1,-6
1570179711350366,0,-2,1,-1,0,-1,0,-3
1570179711365279,-2,-2,0,-1,-1,0,-4,-12
1570179711365279,1,1,-1,0,0,-2,1,-4
1570179711366276,2,-1,1,0,0,1,1,9
1570179711366276,-1,0,1,-1,1,1,2,-4
1570179711387220,-4,-3,-1,0,-1,-1,-2,-11
1570179711387220,-3,-1,1,-1,-1,0,0,10
1570179711389366,-6,-1,-2,-2,-1,-1,10,-15
1570179711389366,-1,-1,-2,-2,-2,-2,-2,-2
1570179711401291,-1,-1,-1,-1,1,0,2,-2
1570179711401291,1,-1,-1,-2,0,-2,-4,3
1570179711410498,-3,-1,-1,0,-2,1,-1,-6
1570179711410498,-2,-2,-3,-1,0,-1,2,-4
1570179711425183,5,1,-1,0,1,-1,-2,3
1570179711425183,-1,-1,0,0,0,-1,4,-5
1570179711427116,-2,-2,-1,1,-2,-1,-1,-1
1570179711427116,0,-1,-2,1,-1,0,0,2
1570179711447088,0,0,-1,-1,-1,-1,-3,-3
1570179711447088,0,-1,1,0,0,-2,-9,-16
1570179711449054,2,0,-1,-1,1,0,-3,3
1570179711449054,-1,-1,0,0,-1,0,-2,-2
1570179711469997,0,-1,-1,-2,-1,-1,-1,-3
1570179711469997,3,-2,-2,-1,0,0,2,10
1570179711471000,-2,-1,-2,1,1,-2,-3,-1
1570179711471000,-1,-1,0,-1,-1,-2,-1,-1
1570179711483967,-1,0,-2,-1,2,0,1,2
1570179711483967,-4,-4,-2,-4,-3,2,8,-1
1570179711490945,2,-2,0,-1,1,0,-4,-1
1570179711490945,1,1,-1,1,-1,-1,0,9
1570179711507898,-3,-1,2,0,-2,-2,-1,-3
1570179711507898,4,0,-1,-1,0,1,2,6
1570179711509346,1,-1,-1,-2,-1,0,2,1
1570179711509346,-1,0,2,-1,0,-3,-10,-4
1570179711529838,3,0,-1,0,0,0,1,7
1570179711529838,0,1,-1,0,-1,-2,-2,-3
1570179711531833,0,0,-1,0,0,-1,-4,1
1570179711531833,0,-2,1,0,0,-1,0,-4
1570179711552780,0,-1,-1,-1,-2,-2,1,-2
1570179711552780,0,-1,0,2,-1,-1,-2,2
1570179711554343,2,0,1,1,0,-1,5,15
1570179711554343,-4,0,-2,0,-1,-2,1,-3
1570179711567740,-2,0,-1,0,0,-1,0,-3
1570179711567740,-1,-1,0,-1,-2,0,-2,0
1570179711568815,-2,-1,-3,-2,-1,0,-2,-1
1570179711568815,-2,0,0,1,-1,-1,-2,-1
1570179711589772,-1,-1,0,0,1,0,-1,0
1570179711589772,4,1,0,1,1,-1,-6,3
1570179711591677,-2,-1,1,-2,-2,-1,-1,-3
1570179711591677,-1,-2,-2,0,-1,-1,-1,-3
1570179711604638,-1,-2,-3,-3,-1,-1,-1,-4
1570179711604638,-4,-1,0,-1,1,-2,-1,-5
1570179711610622,-1,1,2,0,-1,0,-2,-4
1570179711610622,2,-2,-2,-1,-2,-1,-3,8
1570179711627575,2,0,0,1,-2,-1,-1,-1
1570179711627575,-2,-1,-2,0,-1,-1,-2,-2
1570179711629572,-1,0,-1,-1,-2,0,0,-2
1570179711629572,4,1,0,-1,1,-1,-8,4
1570179711649521,0,-3,-1,0,0,-1,0,2
1570179711649521,-3,-2,0,-1,-1,-1,0,-6
1570179711651512,1,0,-1,-1,-1,-1,1,-1
1570179711651512,3,2,2,0,1,0,-4,5
1570179711664564,-1,-1,-1,1,-1,0,-3,0
1570179711664564,-2,-2,0,-3,-2,-2,-6,-22
1570179711671459,-1,-1,-1,-1,1,0,3,3
1570179711671459,-1,-1,-2,-2,-1,-2,3,-3
1570179711686418,-2,0,-1,0,-2,-1,-2,-1
1570179711686418,-1,0,-1,0,0,-1,1,1
1570179711695396,-1,0,-2,-1,0,0,-2,-3
1570179711695396,-4,-2,-2,-2,0,2,3,-5
1570179711717339,-3,-2,0,-2,-2,1,1,-8
1570179711717339,4,0,0,0,0,0,3,10
1570179711719329,-5,-2,-2,-2,-1,-1,-4,-6
1570179711719329,-1,-1,0,-1,-1,0,3,-1
1570179711724322,0,-1,-1,0,0,-3,-1,-1
1570179711724322,-5,-1,-3,-1,-3,2,13,-2
1570179711731416,-2,-1,1,0,-1,-1,-2,-5
1570179711731416,0,-2,-1,1,0,0,1,-6
1570179711747324,1,1,-1,-1,0,0,-2,5
1570179711747324,-4,-2,0,0,0,-2,-3,-1
1570179711749250,0,1,1,0,-1,-2,-2,-2
1570179711749250,-2,-1,-1,-1,1,-1,3,-3
1570179711770195,-3,-1,0,1,-1,0,-1,-7
1570179711770195,4,0,-2,1,1,-1,-4,-1
1570179711771192,-5,-4,-2,0,-1,-2,-4,-17
1570179711771192,1,-1,-1,-1,0,-1,-1,1
1570179711784207,-1,-1,0,0,0,1,-1,1
1570179711784207,-1,0,-1,0,-1,1,-1,4
1570179711791138,0,1,2,1,-1,-3,-2,-2
1570179711791138,-2,-2,-1,-1,-1,-1,4,2
1570179711807284,-1,-1,1,-1,-1,-1,-2,-1
1570179711807284,1,-1,-1,-2,-1,-1,-4,1
1570179711809092,0,-2,-2,-1,0,1,2,2
1570179711809092,-2,-1,-2,-2,0,0,1,-2
1570179711830040,3,0,0,1,-1,0,4,9
1570179711830040,0,0,1,1,1,0,-2,1
1570179711831031,-1,-2,-1,0,0,-1,-2,2
1570179711831031,0,0,-1,0,-2,-1,1,4
1570179711844002,-4,-1,-2,-4,-1,-2,-1,-7
1570179711844002,8,3,1,0,0,-4,-24,15
1570179711851117,0,1,0,-2,0,0,-1,-3
1570179711851117,0,0,-2,-1,-2,-1,-2,-3
1570179711867932,3,0,0,1,0,0,-2,2
1570179711867932,-7,0,0,0,-1,-1,4,-7
1570179711869175,0,-2,-2,-1,-2,0,-2,-11
1570179711869175,1,1,1,1,0,0,-3,-2
1570179711888913,-1,-1,-1,0,-2,-1,1,0
1570179711888913,-1,-3,-1,-3,-1,1,4,-5
1570179711889875,1,-1,0,0,-1,-1,1,5
1570179711889875,-2,-1,-1,-1,-1,-1,4,-4
1570179711903841,0,-1,-1,-1,-2,0,-1,2
1570179711903841,-2,-3,-3,0,-1,2,5,-5
1570179711911962,-2,1,-1,0,1,0,-2,5
1570179711911962,-1,-1,0,-2,0,1,1,3
1570179711926967,-2,1,-1,-1,-1,-1,-2,0
1570179711926967,-2,-3,-1,2,-1,0,0,0
1570179711927773,2,-2,-2,0,-1,0,1,7
1570179711927773,0,-1,-1,-1,-2,-1,0,0
1570179711949719,0,0,-1,0,1,-1,-2,-3
1570179711949719,-2,1,-1,-1,-1,-1,0,-5
1570179711949719,2,0,-1,-2,0,0,2,4
1570179711949719,-5,-2,-2,-3,-2,0,-1,-1
1570179711963719,0,-1,-2,0,1,-1,2,0
1570179711963719,1,0,0,0,0,-1,1,2
1570179711971728,-2,0,0,0,-1,-2,-3,-10
1570179711971728,2,1,1,-1,0,-3,0,3
1570179711986616,-2,-2,-1,0,0,0,1,-3
1570179711986616,-1,-1,-3,0,-3,0,3,2
1570179711987612,-5,-1,-3,-2,-1,1,2,-3
1570179711987612,-2,1,-1,0,0,-2,-2,-1
1570179712009789,-3,0,-1,1,0,-1,2,1
1570179712009789,3,0,-1,-1,1,0,-4,2
1570179712009789,-1,-1,0,-1,-1,-1,-2,7
1570179712009789,-1,-1,-3,0,0,0,-1,-1
1570179712023579,1,1,0,-1,-1,-1,-1,1
1570179712023579,-5,-1,0,-1,-1,-1,1,-6
1570179712031665,6,0,-1,0,0,2,2,5
1570179712031665,0,-2,-1,-1,-1,1,-2,4
1570179712046525,-4,0,-1,0,-2,0,1,-7
1570179712046525,-1,-2,-1,0,1,1,1,4
1570179712047454,-1,0,-1,0,-1,0,3,-2
