timestamp,emg1,emg2,emg3,emg4,emg5,emg6,emg7,emg8
1570178435326457,-5,-2,-2,-5,-5,-17,-10,-3
1570178435326457,-2,-1,-2,-6,-52,-28,-20,-2
1570178435327408,-6,-4,-3,-7,-6,-14,-23,-2
1570178435327408,3,-2,-2,-4,-24,-14,-6,4
1570178435328405,3,0,-2,-3,-8,-2,7,10
1570178435328405,-1,-1,2,5,19,15,11,6
1570178435329403,11,7,4,1,6,5,0,4
1570178435329403,-7,-2,3,2,16,12,6,2
1570178435341371,-4,0,4,4,6,8,0,-10
1570178435341371,0,-3,-4,-1,5,0,6,8
1570178435349350,1,1,2,3,0,3,0,7
1570178435349350,2,2,-3,-2,6,1,-1,2
1570178435356330,-14,-1,-2,-1,-2,2,-2,-20
1570178435356330,7,3,1,2,-9,-21,-9,-22
1570178435369299,12,-2,-5,3,18,28,10,38
1570178435369299,-14,1,5,1,-13,-22,-1,-31
1570178435381269,18,-1,-3,-3,-9,-1,2,27
1570178435381269,-3,-2,-2,-4,2,-11,-9,-17
1570178435393234,-8,-3,-3,-3,-3,1,-1,-8
1570178435393234,-3,1,2,8,26,19,-1,-6
1570178435401214,-1,-2,0,-1,-2,-1,1,0
1570178435401214,-1,-1,-4,-9,-28,-12,1,7
1570178435422159,2,-2,-3,-4,-10,-9,-6,-8
1570178435422159,0,-3,-4,-4,-4,4,-1,2
1570178435456067,4,2,1,2,4,1,-6,17
1570178435456067,7,0,1,2,2,-1,-10,14
1570178435457065,4,0,-2,-1,0,-2,-2,12
1570178435457065,-8,-4,-1,-1,2,0,3,-16
1570178435461053,-5,-3,-3,-4,-2,-2,2,-8
1570178435461053,-5,-1,-2,-1,0,-5,4,-8
1570178435462245,3,0,-1,0,0,-4,-5,-4
1570178435462245,2,1,0,-1,-5,-3,-6,8
1570178435467037,-1,0,-1,0,-1,1,1,-7
1570178435467037,-1,-3,0,-1,-1,5,1,-2
1570178435476013,-4,-3,1,-2,-3,0,0,-2
1570178435476013,0,1,0,-1,1,3,2,1
1570178435481997,-5,-2,0,-1,-1,2,-1,-9
1570178435481997,7,2,2,1,1,1,-1,8
1570178435498952,-1,0,-1,0,1,2,1,-1
1570178435498952,-2,-1,1,-1,-2,0,-1,-2
1570178435504936,1,0,-1,-1,0,-2,1,4
1570178435504936,-3,1,-1,-1,0,-3,-3,-4
1570178435527876,-1,-1,0,-1,1,0,1,-3
1570178435527876,-2,-2,-1,0,3,5,-1,0
1570178435528873,0,0,-1,-1,-1,2,1,1
1570178435528873,-4,-2,1,-1,-5,-1,0,-18
1570178435542317,3,-2,-2,0,-2,3,0,28
1570178435542317,4,-2,1,4,15,12,0,1
1570178435549815,-1,-1,-1,1,4,0,2,3
1570178435549815,-14,-4,-6,-9,-24,-17,-10,-27
1570178435565499,2,-1,-1,-3,-7,-6,1,-1
1570178435565499,3,0,-1,-3,-6,-10,-9,7
1570178435565811,5,1,0,2,12,4,6,4
1570178435565811,7,2,-1,4,11,1,-11,31
1570178435587714,-4,0,0,1,0,0,-3,-6
1570178435587714,-3,0,-1,-1,2,1,2,-6
1570178435588712,-2,-1,1,-1,-4,-1,-1,-5
1570178435588712,-4,1,0,-1,-1,1,3,-7
1570178435601678,0,-1,-1,1,2,-1,1,-6
1570178435601678,3,1,0,-2,-3,-3,0,10
1570178435609795,-2,0,-2,-3,-5,-5,-5,-7
1570178435609795,0,-3,-3,-2,4,3,11,-4
1570178435625613,-2,-2,1,-1,-2,-4,-4,-8
1570178435625613,-1,-2,-4,-2,-8,-7,0,-4
1570178435625613,1,0,0,-1,-5,-4,-2,7
1570178435625613,0,1,0,5,15,8,2,-7
1570178435647553,2,2,1,-1,-3,-4,1,1
1570178435647553,4,-1,-1,-5,-10,-8,0,5
1570178435648639,-4,-1,-1,-4,-4,-4,1,2
1570178435648639,1,-3,1,-2,-5,-3,-2,17
1570178435662896,-1,-1,0,1,11,7,2,9
1570178435662896,0,0,-2,0,1,-3,-8,-6
1570178435663511,0,-1,-1,1,0,-1,1,-1
1570178435663511,-1,0,1,0,4,3,3,-10
1570178435685481,-2,0,-2,-1,-4,-4,-5,-3
1570178435685481,-7,0,0,0,-2,1,6,-10
1570178435685481,4,1,1,2,2,2,-3,-12
1570178435685481,-1,-2,-2,0,-3,-3,1,4
1570178435707392,-3,0,0,-3,-3,-2,-1,-7
1570178435707392,-4,-1,-1,-1,0,1,3,-5
1570178435708445,-4,-1,2,-1,1,-2,-4,-8
1570178435708445,1,0,-1,-2,-1,1,2,0
1570178435722394,1,0,1,0,0,1,2,-9
1570178435722394,1,0,-1,1,2,1,-2,4
1570178435723369,-1,0,-1,0,-2,-2,0,1
1570178435723369,0,-1,-1,-2,-5,-4,-3,-2
1570178435745291,-2,-3,-4,-3,0,4,-1,-3
1570178435745291,1,4,7,7,-2,-3,-4,0
1570178435746289,-1,0,-1,-1,-3,0,0,3
1570178435746289,0,-2,-3,-2,0,0,-1,-1
1570178435768233,-4,1,2,2,0,0,-1,-5
1570178435768233,1,-3,-4,-3,-1,5,17,-6
1570178435768288,1,0,0,-1,-2,-2,-4,10
1570178435768288,0,-1,1,0,-1,-1,-2,4
1570178435782427,-1,-1,-2,-3,-1,-1,-1,-5
1570178435782427,-1,-1,-3,-3,0,0,0,-3
1570178435783404,1,1,0,0,-2,0,2,4
1570178435783404,-1,0,0,-3,0,0,1,0
1570178435805131,5,0,-1,1,-2,0,2,10
1570178435805131,-4,-1,-2,1,0,-1,-10,0
1570178435806165,-8,-2,-2,0,-2,-2,-6,-33
1570178435806165,2,-1,0,2,0,-1,-4,6
1570178435827073,1,2,2,0,1,0,2,2
1570178435827073,1,0,1,1,0,-1,1,8
1570178435828071,-1,-2,0,-1,-3,-2,-2,-4
1570178435828071,-4,0,0,1,0,2,2,-5
1570178435842294,2,0,-2,-1,-1,-1,-1,5
1570178435842294,1,-1,1,0,0,-3,-5,-5
1570178435849014,-1,-1,-2,-1,0,1,3,7
1570178435849014,-1,2,1,-2,-2,-1,1,0
1570178435865263,-2,-1,-1,-2,1,0,-3,-11
1570178435865263,1,0,-2,-1,0,-1,-3,6
1570178435865969,-9,-1,-1,1,0,0,1,-16
1570178435865969,17,4,0,1,-2,-1,-11,45
1570178435887909,-5,-2,1,0,-2,-1,-2,-15
1570178435887909,1,-1,-2,-2,1,1,1,1
1570178435887909,1,-1,-1,-2,0,1,-2,5
1570178435887909,-6,-1,-1,-2,-1,0,1,-17
1570178435901872,-2,-1,1,-1,-1,-1,1,1
1570178435901872,3,0,0,-1,-1,-1,0,6
1570178435909852,3,-1,-2,0,0,-1,4,4
1570178435909852,-4,0,-2,0,0,1,4,-9
1570178435925236,1,-4,-4,-1,-1,-2,-3,6
1570178435925236,-7,-7,-1,0,-4,-3,2,-3
1570178435925826,8,7,0,-2,-1,-1,-3,1
1570178435925826,-4,-2,1,0,-2,-2,-2,-13
1570178435947750,2,-1,-1,-1,0,0,-1,-2
1570178435947750,-2,-2,2,0,-1,-1,-1,1
1570178435948780,-4,-1,0,2,-1,-1,-4,-1
1570178435948780,3,2,1,0,1,1,8,10
1570178435961712,-3,0,-2,-1,-2,2,7,-5
1570178435961712,-7,0,0,0,0,1,-1,-7
1570178435969691,-2,-4,2,-1,0,0,3,4
1570178435969691,-1,3,-3,-2,-1,-4,9,-33
1570178435984651,-4,-8,1,1,0,2,-2,-3
1570178435984651,-11,-8,-6,-4,-7,-4,-4,-7
1570178435985775,-7,-2,-4,-2,0,-7,-3,-6
1570178435985775,17,12,-3,-4,-2,0,0,-7
1570178436007819,-13,-11,5,3,1,-3,3,9
1570178436007819,32,33,-2,-4,1,-4,-6,-8
1570178436008589,-16,-24,0,-1,-6,1,-6,-8
1570178436008589,5,12,-2,-2,-1,-1,-3,6
1570178436021552,-13,-12,-2,0,2,5,3,1
1570178436021552,-24,-25,0,2,2,4,-1,2
1570178436029530,20,26,-1,-1,-4,-11,-4,-7
1570178436029530,8,3,0,-3,1,7,2,1
1570178436045488,4,9,0,0,1,7,3,6
1570178436045488,-18,-13,-3,1,0,-9,5,-16
1570178436045488,12,-7,-2,-1,-3,5,6,18
1570178436045488,-43,-20,1,5,3,3,1,13
1570178436067429,14,11,-3,-2,2,9,2,11
1570178436067429,31,11,-3,-4,-5,-11,-9,-6
1570178436068427,4,5,0,1,4,3,-2,2
1570178436068427,9,-5,-2,-3,-4,-6,3,1
1570178436083387,2,2,-1,-1,0,2,-1,-10
1570178436083387,-61,-26,-4,-1,0,2,-3,-9
1570178436089619,19,18,2,-1,-1,-2,1,-18
1570178436089619,0,-10,0,1,2,0,-4,8
1570178436105328,-4,-2,-5,-1,-2,-3,-1,12
1570178436105328,16,11,6,2,1,-1,-2,10
1570178436106326,43,12,5,2,2,5,14,11
1570178436106326,-52,-33,-7,-2,-2,-6,-15,-14
1570178436127269,36,17,5,-1,-1,-1,3,0
1570178436127269,-11,-10,-3,-4,0,-1,3,-1
1570178436128290,2,3,0,0,4,15,7,-6
1570178436128290,29,15,2,2,-5,-19,-14,-6
1570178436142294,-22,-10,-6,-5,-2,-5,-6,-1
1570178436142294,18,17,2,0,-2,-28,-7,9
1570178436149332,43,10,3,3,10,27,8,27
1570178436149332,-68,-37,-11,-6,-6,3,4,-46
1570178436165200,3,-2,-2,-1,-2,-5,-3,-17
1570178436165200,24,3,1,1,2,8,3,10
1570178436172184,-34,-16,-5,-4,-3,-6,-4,-6
1570178436172184,4,13,6,4,6,2,7,20
1570178436187112,17,4,-2,-2,-3,-6,-4,10
1570178436187112,0,0,0,0,0,17,9,13
1570178436188107,-16,-4,-1,0,-2,-16,-6,2
1570178436188107,21,13,3,0,-2,3,0,6
1570178436202129,-33,-9,-3,-3,-5,-10,3,-78
1570178436202129,14,8,3,4,5,17,4,15
1570178436209681,-18,-9,-3,-1,-3,-8,-8,5
1570178436209681,12,5,-1,-1,0,5,18,-18
1570178436225066,5,0,1,0,5,8,-2,16
1570178436225066,-1,-1,-1,0,-3,-10,0,-7
1570178436226246,-14,-7,-1,-3,-2,4,2,-3
1570178436226246,8,1,-1,-2,-3,-1,0,7
1570178436246952,3,4,2,4,1,5,-4,9
1570178436246952,5,3,2,-1,0,4,3,6
1570178436254929,-13,-7,-4,-2,-4,-14,-5,0
1570178436254929,22,7,2,2,4,16,-8,61
1570178436269987,0,0,-1,-2,-2,-2,-4,20
1570178436269987,-2,-2,-2,-2,-4,-5,-3,6
1570178436270886,-6,-5,0,0,6,-3,-9,-9
1570178436270886,7,-1,-1,-1,-13,-10,9,-6
1570178436285032,10,4,3,1,-3,-5,-15,29
1570178436285032,-3,-2,-2,-1,-1,1,-1,-1
1570178436285909,-7,-3,-7,-8,-10,-14,-12,-27
1570178436285909,2,2,1,0,4,10,-1,-8
1570178436307787,-8,-4,-2,1,-1,-20,1,-7
1570178436307787,-5,-2,-3,-1,-2,0,-2,-10
1570178436308784,-10,-2,-1,2,2,5,-1,-12
1570178436308784,9,0,-4,-2,-2,-8,-5,9
1570178436329782,-1,1,2,1,-4,-4,6,-17
1570178436329782,6,-1,0,0,8,27,7,18
1570178436330726,-5,-1,1,2,2,-5,0,-1
1570178436330726,-2,0,0,1,13,8,0,-3
1570178436344723,0,-3,-3,-6,-18,3,7,2
1570178436344723,0,0,0,-2,-6,-10,-3,-13
1570178436345686,0,-1,-1,0,-2,3,1,5
1570178436345686,3,2,0,1,-4,-30,-2,3
1570178436367627,10,4,1,3,16,15,-32,31
1570178436367627,-7,-4,-1,-2,-2,-3,-1,-10
1570178436368714,2,-1,1,-1,-2,3,2,4
1570178436368714,0,-1,-1,-3,-5,-10,-8,-11
1570178436390565,-3,-2,-2,-1,1,-6,9,-12
1570178436390565,-1,-2,-1,1,-3,-5,-3,0
1570178436390709,6,1,-1,1,5,6,-1,10
1570178436390709,-10,0,-1,-1,-1,9,3,-18
1570178436405531,-3,-1,-1,-1,10,12,8,2
1570178436405531,16,2,0,-1,-4,-3,2,30
1570178436405861,0,0,-2,-3,-3,-2,4,2
1570178436405861,1,-1,-1,0,-4,-10,-8,-5
1570178436426469,-2,0,-1,0,-2,-7,0,5
1570178436426469,-4,-2,0,-1,3,-1,-5,-18
1570178436435445,0,-2,0,-2,-3,-3,2,2
1570178436435445,-4,-1,-1,-4,1,7,-2,-2
1570178436450408,3,1,1,0,0,2,1,-2
1570178436450408,-8,0,-2,-3,-1,-2,3,-13
1570178436451403,0,-1,-1,2,-3,-6,0,5
1570178436451403,-1,-1,-2,0,1,3,-3,-10
1570178436472347,3,-1,-2,-2,-2,-3,9,-3
1570178436472347,-1,2,1,3,2,2,-9,8
1570178436473361,-2,-2,-1,0,0,0,-2,-3
1570178436473361,2,2,1,-1,-5,2,0,2
1570178436487307,-5,-1,0,-1,-3,1,7,-13
1570178436487307,6,0,-2,0,0,-3,0,14
1570178436495285,-5,-3,0,-1,3,5,-2,-3
1570178436495285,0,-2,-1,-2,-4,1,-4,5
1570178436510245,-1,-2,-1,-1,-6,-22,-5,-1
1570178436510245,0,-4,-3,-2,3,12,4,-1
1570178436511242,-7,0,-2,0,-1,0,-6,-23
1570178436511242,7,1,1,0,2,5,1,9
1570178436533184,-2,3,-1,-2,0,2,1,1
1570178436533184,-4,-1,0,-1,-1,-1,0,-8
1570178436534183,-2,-2,-2,-1,-3,-10,-1,-8
1570178436534183,-1,-2,0,0,2,3,1,-3
1570178436547146,-1,-1,0,0,-1,-3,-4,-3
1570178436547146,-2,0,-2,0,0,1,2,-4
1570178436555127,5,3,1,1,-1,4,-1,1
1570178436555127,-1,2,1,0,0,-4,-2,0
1570178436570119,0,-1,0,1,1,1,0,7
1570178436570119,-3,0,-1,1,0,0,-1,-11
1570178436571084,1,-1,-1,-1,-1,-1,2,5
1570178436571084,2,-2,-2,1,-1,-2,1,3
1570178436593026,-3,-3,-2,-2,-1,4,0,-7
1570178436593026,-2,0,0,1,1,-3,-1,-4
1570178436594082,2,0,0,0,0,-2,0,9
1570178436594082,1,0,-1,-1,-1,-1,-3,-6
1570178436607023,0,-1,-2,-3,-4,1,-6,9
1570178436607023,-2,0,2,0,-2,-3,-2,-6
1570178436614965,3,0,0,0,0,-3,-12,21
1570178436614965,-5,-1,-2,0,2,9,0,0
1570178436637937,-4,0,0,1,3,3,6,-14
1570178436637937,1,-1,-3,-2,-1,-5,-2,-5
1570178436638902,-2,-2,-3,0,0,-1,2,-4
1570178436638902,-1,-2,-1,-1,0,1,4,1
1570178436652865,-1,-1,-2,0,-1,1,1,0
1570178436652865,1,0,0,-2,-1,3,1,-3
1570178436653861,2,-1,-1,0,-1,9,5,3
1570178436653861,-1,1,-1,-1,0,-1,-1,-3
1570178436667317,1,0,-1,0,0,-1,0,1
1570178436667317,-1,-1,-1,-2,-3,-6,0,2
1570178436674805,-1,-1,-2,-2,-2,-3,1,0
1570178436674805,-1,0,-2,-1,0,-3,-1,5
1570178436689781,0,-2,-2,-2,-1,-1,-1,6
1570178436689781,-1,1,2,0,1,-2,-4,0
1570178436690810,0,-1,-1,-1,0,-2,1,-6
1570178436690810,0,-4,-3,0,-1,-2,0,-4
1570178436713701,-1,-1,-2,0,0,0,0,-1
1570178436713701,0,-2,-4,-3,1,3,3,3
1570178436713701,-1,1,0,0,-1,-1,-3,0
1570178436713701,-2,-2,1,-1,-1,-2,0,-2
1570178436735643,9,1,-1,0,0,0,-5,27
1570178436735643,0,0,-1,-2,0,0,-2,7
1570178436736640,-4,0,-1,0,0,1,2,-2
1570178436736640,2,1,2,2,1,-1,-2,10
1570178436750603,-3,-1,0,-2,-2,-1,-2,0
1570178436750603,0,-2,-1,0,0,-2,2,-5
1570178436750985,0,-1,-1,-2,-1,0,0,1
1570178436750985,-1,0,0,1,0,-2,-1,-8
1570178436773607,-2,-2,0,-1,-1,2,2,-14
1570178436773607,-1,0,1,0,-2,3,-7,-16
1570178436774539,0,0,-1,-3,-5,-12,3,2
1570178436774539,0,1,1,1,-1,-3,-5,-1
1570178436795486,2,0,-1,-1,-1,-3,-2,-1
1570178436795486,-2,0,-1,0,0,1,-2,-1
1570178436796675,-1,-1,-1,-2,2,5,0,0
1570178436796675,-3,-2,0,-2,-2,0,1,-7
1570178436810479,1,0,-1,0,-1,-9,0,-1
1570178436810479,-3,-1,2,0,0,11,2,-11
1570178436810479,-2,-1,0,1,0,0,0,-1
1570178436810479,-4,-2,-1,-1,0,-1,1,-7
1570178436833503,-3,-1,0,-1,0,-1,-2,-6
1570178436833503,-2,-2,-2,0,-2,-5,0,9
1570178436834379,2,0,-1,-1,-1,0,0,3
1570178436834379,-1,1,-2,-2,0,1,0,-2
1570178436856323,0,1,2,-1,0,7,-3,-1
1570178436856323,1,0,0,0,0,-10,0,6
1570178436856413,0,-1,-2,-1,1,-1,0,-4
1570178436856413,0,-1,-1,0,-1,-3,-3,-1
1570178436870319,-3,0,-1,0,-1,4,2,-9
1570178436870319,0,-2,-3,-1,-2,-1,-1,0
1570178436871280,-2,-4,-2,-2,-1,1,3,-4
1570178436871280,1,0,0,0,-1,1,0,4
1570178436893221,-1,-3,-2,-1,-1,-1,0,0
1570178436893221,1,-2,-1,-1,0,-3,0,-1
1570178436894219,1,-1,0,1,1,1,2,15
1570178436894219,-3,-3,-2,-1,-2,-1,-1,-12
1570178436916161,2,0,1,1,0,-2,-3,8
1570178436916161,0,0,-1,-2,-1,-3,-1,5
1570178436916161,-3,1,-1,-1,-1,1,-2,-10
1570178436916161,1,1,0,-1,-1,-1,3,-7
1570178436930154,-4,0,2,0,-1,-4,-14,-2
1570178436930154,6,-1,-2,-1,-3,1,4,20
1570178436931121,-2,0,1,-1,-2,-1,-2,-12
1570178436931121,1,-1,1,0,0,0,2,4
1570178436953061,-2,-1,-1,0,1,0,1,-8
1570178436953061,-3,-1,-1,0,-1,-1,0,-6
1570178436954113,-1,-1,-1,0,-1,-1,-1,-2
1570178436954113,2,0,-3,-2,-3,-5,-5,10
1570178436976000,0,-1,-1,-2,1,0,3,-2
1570178436976000,-3,-1,1,-1,1,-1,-2,-1
1570178436976998,0,-2,0,1,-1,0,0,1
1570178436976998,-2,-1,-2,-2,0,4,4,-3
1570178436989964,0,1,1,0,-2,-4,-1,1
1570178436989964,-9,-3,-2,-3,-2,-4,-10,-40
1570178436990961,-1,-2,-2,-2,0,0,0,3
1570178436990961,0,0,0,0,-1,0,-1,-1
1570178437013525,0,0,-1,-2,-2,0,9,3
1570178437013525,2,1,-2,0,0,-2,-6,7
1570178437013899,-2,0,0,0,-1,-3,-1,-1
1570178437013899,-3,0,0,2,-2,-1,-3,-3
1570178437035904,-1,1,-1,-2,-1,0,4,-9
1570178437035904,3,1,-2,-1,1,0,2,9
1570178437036838,-3,-2,-2,0,0,0,-1,-8
1570178437036838,9,1,0,0,0,-2,-13,19
1570178437049829,-2,-2,-3,1,-2,-1,-2,5
1570178437049829,-2,0,-1,0,1,1,5,3
1570178437050801,3,2,2,1,0,-2,-3,3
1570178437050801,-1,-1,-1,-1,-1,-2,2,-4
1570178437073787,-3,-3,-1,-1,-1,1,-2,-2
1570178437073787,3,-2,-3,-2,-1,-2,0,1
1570178437073787,0,1,-1,-2,-1,0,2,-5
1570178437073787,-2,-3,-2,-2,-1,-1,4,8
1570178437095681,5,-1,-1,0,1,8,-13,18
1570178437095681,-7,-1,1,1,2,-5,-3,-13
1570178437096678,10,0,-2,-1,-6,11,7,23
1570178437096678,-1,2,0,1,0,-7,0,-5
1570178437109674,7,-2,-2,1,1,1,5,6
1570178437109674,-1,-1,2,0,-1,1,3,0
1570178437110851,0,1,-2,0,1,-4,-9,3
1570178437110851,0,1,-1,-2,2,3,0,-2
1570178437133579,-3,0,-3,-2,-1,-3,3,-5
1570178437133579,0,-2,-1,-1,1,0,0,3
1570178437134577,-2,-1,0,1,0,-4,0,-8
1570178437134577,-2,-3,-1,-3,-2,1,-1,-1
1570178437155520,-2,0,-1,-1,1,-5,0,-7
1570178437155520,1,-2,-2,-2,-2,1,1,2
1570178437156517,-5,-1,-2,-1,2,-1,0,-5
1570178437156517,-2,1,-2,0,0,-1,-2,-2
1570178437170479,-2,-1,1,-2,0,-2,0,-1
1570178437170479,-1,2,0,-2,-1,0,-2,-2
1570178437171478,0,-1,-1,-1,-1,0,1,1
1570178437171478,-7,-6,-4,-4,0,0,18,-23
1570178437193420,-3,0,0,0,0,-3,0,-1
1570178437193420,0,-1,-2,-2,-1,1,1,1
1570178437194417,-1,0,1,-2,2,-2,-1,2
1570178437194417,-2,0,1,1,-1,2,-2,-6
1570178437215362,-4,-2,-1,0,0,15,1,-7
1570178437215362,0,-1,-2,0,-2,-8,-3,1
1570178437216508,-2,0,0,-1,-3,-6,-1,-9
1570178437216508,0,0,-1,-1,-2,6,-4,4
1570178437230381,-1,2,0,-1,-3,-5,-2,-4
1570178437230381,0,1,-1,1,0,1,-1,5
1570178437231317,1,-1,-3,-1,0,-1,-1,-1
1570178437231317,0,0,-1,1,-1,-1,-3,6
1570178437253330,0,0,-1,1,-1,-2,3,-1
1570178437253330,-1,1,0,1,-2,0,-1,-3
1570178437254258,-4,-2,1,1,0,-3,-2,-6
1570178437254258,6,0,0,0,0,-3,0,16
1570178437276252,-2,-2,-2,1,3,-4,1,-2
1570178437276252,-1,0,0,-2,0,10,3,-3
1570178437276252,1,0,-2,-1,-1,0,-3,-8
1570178437276252,-2,3,1,1,0,-4,-1,-10
1570178437290163,6,3,1,2,-2,-1,-9,15
1570178437290163,3,-2,-1,1,-3,-5,-1,3
1570178437291159,-4,-2,-2,-1,-1,1,-1,-6
1570178437291159,0,-2,-4,-2,-2,0,3,-2
1570178437313099,0,-1,-2,-2,-2,-5,0,-8
1570178437313099,-3,-2,2,0,0,-2,-1,-3
1570178437314099,0,0,1,-2,1,13,0,3
1570178437314099,1,-1,0,0,-1,-9,-4,7
1570178437336038,-2,-1,0,-1,-1,-2,2,-2
1570178437336038,-1,0,-1,1,-1,0,0,1
1570178437336038,0,-1,-1,1,2,-3,1,1
1570178437336038,0,-1,-2,-1,-2,3,-3,0
1570178437349079,-1,-2,-2,-2,-2,-1,0,-3
1570178437349079,-1,-1,0,-2,-1,-2,1,-4
1570178437357980,-3,-2,0,-1,-2,-6,-1,-2
1570178437357980,3,0,-1,1,-1,1,-2,1
1570178437372940,-2,0,-2,-2,0,-4,1,-1
1570178437372940,-5,-3,-4,-2,-1,-2,6,-17
1570178437373937,-2,-1,-2,-1,-1,-1,-1,4
1570178437373937,0,0,-1,-1,-1,-1,-3,0
1570178437395906,1,1,0,-1,-1,-3,-3,-4
1570178437395906,1,1,-1,1,0,0,1,10
1570178437396876,1,0,0,0,-1,-1,1,4
1570178437396876,1,0,-1,-1,-1,0,1,5
1570178437409842,-3,-1,-4,-2,-2,-2,4,0
1570178437409842,-5,0,-1,-1,0,2,10,-18
1570178437417824,2,1,0,1,-1,-3,-4,3
1570178437417824,0,0,2,-2,-2,0,-1,5
1570178437433782,-3,-2,-1,-1,-2,-2,-2,-7
1570178437433782,0,0,-1,0,1,-1,-1,4
1570178437433782,3,0,-2,0,-2,-2,-3,1
1570178437433782,3,-2,-2,-2,0,0,3,7
1570178437455848,-2,-1,0,0,2,15,2,-6
1570178437455848,1,0,1,1,-2,-12,-8,7
1570178437456716,0,-2,0,0,0,2,2,-1
1570178437456716,-2,2,1,-1,-1,-7,-6,-4
1570178437469771,1,-2,1,-1,-1,-1,-1,1
1570178437469771,5,2,-1,-1,2,1,-8,11
1570178437477750,2,0,-1,-1,0,-1,1,6
1570178437477750,-4,-2,-1,-1,-1,2,0,-8
1570178437493705,-2,0,3,3,0,-3,-17,5
1570178437493705,1,-2,0,-2,-2,0,0,0
1570178437494618,-1,-2,-1,0,-2,-4,3,-1
1570178437494618,2,0,-2,-1,1,-2,-5,0
1570178437515603,-2,-1,-1,-2,-2,-2,3,0
1570178437515603,-2,1,1,-1,-1,-3,-13,-4
1570178437516631,3,0,0,-3,-1,0,0,7
1570178437516631,-3,-1,4,2,-2,-2,-2,-8
1570178437529544,2,0,-2,-2,0,-3,0,0
1570178437529544,0,-2,-1,-1,-1,1,3,-1
1570178437537503,-5,-4,-2,-2,0,-2,0,-13
1570178437537503,0,-1,0,-1,-1,1,0,2
1570178437561439,-2,-2,-4,-2,-2,-1,8,-14
1570178437561439,1,-1,-2,-2,0,-2,-13,0
1570178437561957,0,1,-1,-1,1,0,5,14
1570178437561957,-1,-1,2,1,6,14,3,-1
1570178437576397,-1,-1,0,-2,-3,-7,4,-4
1570178437576397,-3,1,0,0,-2,1,6,-5
1570178437576397,-1,1,1,2,0,-2,-10,-3
1570178437576397,-1,-1,-2,0,0,0,-3,8
1570178437590395,0,0,-1,1,0,2,0,7
1570178437590395,1,1,-2,-2,0,-1,1,6
1570178437597762,1,-2,1,-2,0,0,0,2
1570178437597762,-6,0,1,0,-4,-3,-2,-13
1570178437613340,-1,-2,0,-1,1,1,3,2
1570178437613340,-2,-1,-2,0,0,-1,3,0
1570178437619438,-4,-1,0,1,-1,-2,-4,-7
1570178437619438,-3,-1,-2,-2,-3,-5,3,-8
1570178437636237,2,1,0,1,0,0,-6,18
1570178437636237,3,1,0,2,-2,-5,-4,10
1570178437637235,-2,-3,-1,-3,1,3,3,-1
1570178437637235,0,-2,-3,-3,0,-1,1,3
1570178437658180,-1,-1,-2,-1,1,0,1,-6
1570178437658180,1,-3,0,1,0,-2,2,2
1570178437660174,0,1,-2,0,1,6,0,3
1570178437660174,-1,-2,0,-2,-3,-18,-5,0
1570178437673139,3,2,0,1,1,-5,-10,6
1570178437673139,-4,-2,-1,0,0,1,-1,-3
1570178437679123,0,-1,-1,1,-1,-6,1,-6
1570178437679123,1,0,0,0,3,6,-1,-4
1570178437696088,-1,-3,-3,-4,-7,-4,1,-8
1570178437696088,0,-1,0,-1,-3,-1,2,-1
1570178437697075,6,1,0,1,1,0,-12,30
1570178437697075,2,1,-1,2,-3,-2,0,8
1570178437718023,-9,-2,0,-2,0,0,2,-17
1570178437718023,0,-3,-2,-4,0,2,6,4
1570178437720013,-3,-1,-2,-3,-2,0,6,-12
1570178437720013,-1,0,-1,1,-1,-3,-9,-6
1570178437734142,5,0,-2,0,3,-2,1,10
1570178437734142,-1,-1,1,1,-1,3,-2,-8
1570178437735971,0,-2,-1,0,-2,-4,1,0
1570178437735971,2,0,1,0,-1,2,2,-9
1570178437755916,-1,0,0,1,0,1,-2,-10
1570178437755916,2,2,-1,1,0,2,-2,3
1570178437757912,-3,1,-1,0,-3,-21,-2,-1
1570178437757912,-1,-2,-1,-2,2,20,6,4
1570178437778908,-4,-2,-1,-2,0,-3,1,-9
1570178437778908,3,1,-2,0,2,4,-7,24
1570178437779860,-1,-1,0,-2,-2,-2,-2,-5
1570178437779860,-1,-1,0,1,-2,-7,-1,5
1570178437793211,-2,-2,-1,0,1,7,3,-4
1570178437793211,-2,-1,0,-1,0,-2,0,-8
1570178437799805,2,0,-2,-1,-3,3,0,1
1570178437799805,0,-1,-1,-4,-3,-3,0,4
1570178437815762,3,1,-2,1,-1,0,0,10
1570178437815762,-1,-2,0,-1,-2,-5,-1,-12
1570178437817759,-1,-1,-1,0,1,4,2,-5
1570178437817759,-1,-1,-1,0,0,0,1,-2
1570178437845882,0,-1,-1,-2,0,-4,-4,4
1570178437845882,-4,0,-1,-2,-1,-1,0,-4
1570178437847673,-1,0,-1,-1,1,3,1,-6
1570178437847673,-2,-2,-1,-1,0,-2,1,-2
1570178437852849,-1,-1,1,1,-1,-1,-1,-9
1570178437852849,-2,-2,-1,-1,-1,0,2,-3
1570178437859838,-1,-1,-1,0,-1,2,1,1
1570178437859838,0,1,-2,0,-1,-3,-1,5
1570178437875758,-2,-1,0,-2,-2,-3,-2,4
1570178437875758,0,-2,-2,-1,2,8,5,5
1570178437877590,-3,0,1,0,-1,-1,-2,-2
1570178437877590,6,2,0,-1,-1,-1,-1,6
1570178437898541,0,1,2,0,0,-1,-2,3
1570178437898541,-1,-1,-3,-2,-1,5,-3,-3
1570178437899535,0,-1,-2,-2,0,-2,3,1
1570178437899535,-2,-1,0,-2,-1,-3,-3,-2
1570178437912624,1,0,-2,1,-3,-3,-2,-1
1570178437912624,-1,-1,0,-1,-1,0,-1,0
1570178437919622,1,-2,-1,1,-1,3,3,-8
1570178437919622,0,0,-1,-2,-1,-5,-14,5
1570178437936465,2,0,-1,-1,1,3,3,1
1570178437936465,-3,1,-1,-1,0,-5,-1,-5
1570178437938430,-2,0,-1,-1,1,1,0,-3
1570178437938430,-5,-2,-1,-1,-1,0,2,-10
1570178437958375,-2,-1,-2,-3,0,1,-3,-11
1570178437958375,1,0,-1,0,-1,-3,-2,1
1570178437960373,4,0,-1,-2,-2,-2,0,2
1570178437960373,0,-1,0,0,-1,1,2,3
1570178437972339,-1,-1,0,1,0,0,0,4
1570178437972339,-4,-1,-2,0,0,-2,2,-9
1570178437981315,-3,-2,-1,0,-2,-3,-1,-2
1570178437981315,-2,-3,-2,-1,1,3,-1,-12
1570178437996471,6,0,0,-1,-1,-2,-11,12
1570178437996471,2,0,0,-2,-4,-2,1,1
1570178437997280,-2,1,-1,-1,-3,0,-3,1
1570178437997280,0,0,-2,0,-3,-3,2,9
1570178438026525,-4,0,1,-1,0,1,4,-5
1570178438026525,0,-1,2,-1,1,-12,-2,-2
1570178438027252,-7,-4,-2,-3,1,9,7,-29
1570178438027252,4,1,2,2,-1,-4,-4,7
1570178438033175,-4,-3,-2,-1,0,4,6,-2
1570178438033175,0,0,-1,0,-1,0,-2,-2
1570178438039744,0,-1,-2,-1,-1,-2,3,0
1570178438039744,-4,-1,-2,-2,-1,3,3,-4
1570178438056113,-1,-1,-1,-1,-1,-2,1,2
1570178438056113,-1,-1,1,1,-1,-2,-4,-4
1570178438057222,4,0,0,0,0,-2,-3,10
1570178438057222,0,-3,-1,0,-1,1,3,0
1570178438079174,1,-2,-1,-1,-2,-3,-2,8
1570178438079174,-5,0,0,0,-1,-2,-1,-16
1570178438080055,4,0,1,1,-1,1,-8,11
1570178438080055,-6,-3,-1,-1,-1,-4,-5,-16
1570178438093248,7,3,2,1,2,-1,-12,18
1570178438093248,3,1,0,-1,-1,1,0,8
1570178438100001,-3,0,0,0,2,-1,0,3
1570178438100001,0,0,-1,1,1,-1,0,0
1570178438116132,-2,-3,-1,-2,-3,-2,1,-11
1570178438116132,-4,0,0,-2,-1,2,2,-6
1570178438116952,-3,-1,-2,1,-1,-2,-7,-1
1570178438116952,1,0,-1,-1,-2,-1,-1,-5
1570178438137895,-3,-2,-1,-1,-1,2,3,-3
1570178438137895,1,-2,-2,-1,1,1,1,7
1570178438139891,-4,0,3,-2,-1,-1,3,-8
1570178438139891,-2,1,-3,0,0,1,1,1
1570178438153169,-3,-1,-2,-1,1,2,6,-8
1570178438153169,0,-2,0,-1,-3,0,-1,4
1570178438160042,0,-1,-1,-1,-2,0,-1,5
1570178438160042,-1,0,-2,0,-2,-1,1,-4
1570178438176791,-1,1,-1,0,-1,-3,-5,0
1570178438176791,-2,-1,-2,-2,1,1,4,2
1570178438177789,-1,-2,0,-2,-2,0,-7,-15
1570178438177789,2,-1,-1,-1,0,-2,3,7
1570178438198734,-4,0,2,0,-2,-4,2,-14
1570178438198734,-2,-1,-1,0,0,3,9,6
1570178438199731,1,1,-1,1,0,-2,-4,-7
1570178438199731,-1,-1,1,-1,-2,0,1,5
1570178438211697,2,0,-1,-1,1,-1,-1,5
1570178438211697,-2,-1,0,1,-1,-2,-2,-5
1570178438220674,-1,0,-1,1,2,-1,3,3
1570178438220674,1,1,-2,-1,-1,0,2,2
1570178438235672,-3,-2,-3,-2,0,-1,1,-8
1570178438235672,4,1,1,0,0,-3,-17,6
1570178438237629,-2,-2,-1,-3,-1,1,-2,3
1570178438237629,-2,0,0,0,0,0,-2,-2
1570178438258578,-1,0,-1,-3,-2,-1,-4,1
1570178438258578,0,-2,-1,-1,1,-1,0,1
1570178438264557,4,-1,-1,-3,-3,-2,-1,4
1570178438264557,-3,-4,-1,-2,0,2,16,-7
1570178438272539,-3,0,2,0,0,-1,1,-8
1570178438272539,3,0,1,0,-1,0,-1,7
1570178438280585,-2,0,0,0,0,0,2,4
1570178438280585,1,-1,-1,-1,0,-1,-2,-6
1570178438295702,-4,0,-2,1,0,0,0,-6
1570178438295702,-1,-2,-1,-2,-1,0,8,0
1570178438297568,2,1,2,2,-1,0,3,-2
1570178438297568,1,2,1,0,0,-3,-12,1
1570178438318614,0,0,-1,-1,0,-1,-5,-8
1570178438318614,1,-2,-2,-2,0,0,-4,-2
1570178438320411,0,-1,-2,0,0,0,4,4
1570178438320411,-2,-1,-1,-2,0,-6,-4,6
1570178438332436,3,0,-1,-1,0,-6,0,7
1570178438332436,-3,0,-1,1,-2,0,2,-7
1570178438341356,-1,-2,-2,-1,-1,-3,0,-3
1570178438341356,0,-3,-2,-1,0,3,0,2
1570178438356318,-3,-3,1,-1,-1,2,0,0
1570178438356318,0,1,1,0,-1,-2,-4,-2
1570178438357663,-9,-2,-3,0,1,5,10,-22
1570178438357663,5,1,1,-1,0,-4,-14,11
1570178438378287,-1,0,1,1,-3,2,2,0
1570178438378287,5,1,0,1,0,1,-1,5
1570178438380248,0,1,1,0,-1,-1,-5,7
1570178438380248,-3,0,-1,0,-1,3,5,-10
1570178438392219,2,-2,-2,0,-1,-4,-7,3
1570178438392219,-3,-1,-1,-3,1,1,0,-6
1570178438401192,0,-1,-2,-1,-2,-3,-1,4
1570178438401192,0,-1,-1,-2,0,8,4,2
1570178438416198,0,0,-3,-2,-5,-15,-3,6
1570178438416198,-4,-1,-2,-1,-1,-3,-1,-1
1570178438417775,0,0,0,0,0,-3,-3,3
1570178438417775,-1,-1,0,0,0,0,0,-4
1570178438438568,0,-2,-2,-1,0,6,1,-3
1570178438438568,0,-1,-1,-1,-3,-3,1,-7
1570178438440102,0,-3,-2,-2,-2,-5,-1,3
1570178438440102,-1,0,1,1,-2,-1,2,5
1570178438452144,-1,-1,0,1,0,2,-1,-9
1570178438452144,2,0,-2,-1,0,-3,0,6
1570178438461041,1,-2,0,0,0,2,-2,5
1570178438461041,0,-1,0,-1,0,-4,0,-2
1570178438476200,-1,1,-1,0,0,1,3,6
1570178438476200,0,0,-1,-2,0,0,-2,-2
1570178438478039,-1,1,-1,-1,-1,2,-2,-5
1570178438478039,-2,-1,-2,0,-1,-4,-3,-10
1570178438498982,-2,-1,1,0,-1,-1,2,3
1570178438498982,-4,-1,-1,-1,0,-1,-1,-2
1570178438499934,4,-1,-1,0,-1,-2,0,9
1570178438499934,-1,-3,-3,-3,-2,-4,-1,-1
1570178438512098,0,-1,-1,-1,1,3,-1,2
1570178438512098,-2,-1,0,1,-1,0,-1,-4
1570178438520872,1,-1,0,1,0,-1,-1,0
1570178438520872,-1,1,0,0,-1,-1,1,1
1570178438535839,-2,-1,-1,-2,0,2,0,-1
1570178438535839,2,0,-2,0,-1,0,3,14
1570178438537892,-3,1,0,-1,0,0,1,-5
1570178438537892,-1,-1,-1,0,0,1,1,2
1570178438558774,-1,1,0,1,-1,-2,-2,-3
1570178438558774,-1,-2,0,0,0,0,-2,-7
1570178438559767,-1,-1,-1,-1,-1,0,-1,-4
1570178438559767,1,1,1,-2,-2,0,1,2
1570178438571927,2,-2,-1,0,0,0,1,3
1570178438571927,-2,-1,-1,-2,-1,-1,2,0
1570178438580711,-1,0,-1,1,-2,0,-2,1
1570178438580711,-2,0,-1,1,0,0,0,-5
1570178438595672,1,0,-1,1,-1,-2,0,-2
1570178438595672,1,-2,1,0,0,-2,-3,-4
1570178438597667,-1,-2,1,-2,-1,0,-3,1
1570178438597667,-5,0,1,0,-1,-1,11,-22
1570178438618661,5,1,0,-1,-1,1,-2,13
1570178438618661,-2,0,-4,1,-3,1,0,-3
1570178438619700,-5,1,-1,-2,0,1,0,-10
1570178438619700,4,0,-1,1,-2,-1,1,16
1570178438640658,3,-3,-1,-1,-1,-2,3,3
1570178438640658,-2,1,-1,-3,-1,-1,0,0
1570178438642592,-1,1,0,1,0,-4,-1,0
1570178438642592,-3,-1,-1,-2,0,0,-6,-13
1570178438656561,-5,-2,-2,0,0,0,-1,-5
1570178438656561,0,-3,-2,-1,-2,-1,-1,1
1570178438657628,-5,-2,-2,0,0,-2,0,-15
1570178438657628,3,1,0,0,0,0,-1,10
1570178438678631,-4,-1,-1,-2,-2,2,14,-19
1570178438678631,-2,-1,-1,-1,-2,-1,-4,-2
1570178438680446,-8,-2,-1,-2,-3,-1,3,-16
1570178438680446,4,0,2,1,1,-2,-3,12
1570178438700391,-11,-3,-1,-4,-1,-1,-2,-21
1570178438700391,20,1,0,-3,-2,-3,-8,43
1570178438702385,-3,1,0,1,1,-2,-4,6
1570178438702385,5,-2,-1,-2,-1,-5,-11,-8
1570178438716582,8,-1,0,1,0,0,3,30
1570178438716582,-2,1,1,0,0,-1,5,-6
1570178438717794,0,-1,0,-1,-1,-1,-7,0
1570178438717794,-5,-1,-1,0,-1,-1,-3,-2
1570178438739042,2,1,1,-1,0,-1,-4,3
1570178438739042,-7,0,-4,-2,0,2,-1,-17
1570178438739840,8,0,-2,0,-1,0,5,22
1570178438739840,-4,-2,-1,1,0,1,2,-2
1570178438760908,0,-1,0,-1,0,-1,-3,-6
1570178438760908,-4,-1,-1,0,0,1,1,-2
1570178438762674,1,-1,1,-2,0,1,-1,-7
1570178438762674,0,-2,-4,-3,0,1,3,-14
1570178438775637,-6,-1,-1,-2,-2,-4,-12,-24
1570178438775637,-4,2,1,1,0,-1,-3,-14
1570178438777635,2,-1,-2,-1,-2,0,0,6
1570178438777635,-15,-8,-6,-5,-3,1,15,-35
1570178438798577,0,-1,-1,0,1,3,1,16
1570178438798577,2,-1,-1,-1,1,3,6,9
1570178438799575,0,-1,-1,1,-1,-3,-3,5
1570178438799575,-2,-1,-2,-1,-2,-2,0,6
1570178438820950,-3,-1,-1,1,-2,-3,-3,-8
1570178438820950,-2,-3,0,0,0,-3,-1,1
1570178438822513,-4,-3,-2,-2,-2,1,3,0
1570178438822513,1,1,0,1,0,-1,-11,-3
1570178438835482,2,-1,-1,-2,0,-2,-2,16
1570178438835482,0,0,-1,-1,0,-1,-2,0
1570178438842459,-8,-1,1,0,0,-1,0,-9
1570178438842459,8,2,1,-1,-1,0,-5,6
1570178438858554,0,-1,0,0,0,1,-1,2
1570178438858554,-4,-1,0,-1,-1,-1,5,-6
1570178438860411,2,-1,-1,0,0,0,-5,-3
1570178438860411,-2,-1,0,1,0,0,0,6
1570178438880390,-2,-1,0,1,0,-1,-2,-6
1570178438880390,0,-2,-1,-2,-1,-1,-1,5
1570178438882916,5,0,-1,-2,0,1,0,6
1570178438882916,2,0,-2,0,0,2,1,21
1570178438895589,-4,0,-1,-3,-1,-2,6,-34
1570178438895589,-1,0,1,-1,0,-2,-2,1
1570178438902335,4,-1,0,-2,0,-3,3,8
1570178438902335,0,-1,0,-1,-1,0,1,4
1570178438918639,-3,0,-1,0,-1,1,0,-4
1570178438918639,-3,0,-1,-1,-2,-1,-2,-7
1570178438920253,1,0,-1,0,0,0,-1,-2
1570178438920253,0,-1,-1,-1,-2,-1,-1,4
1570178438941551,2,0,0,0,1,1,-2,12
1570178438941551,-3,-1,-2,0,0,-1,-3,-8
1570178438942397,8,1,-1,-1,1,1,0,10
1570178438942397,-1,2,1,-1,-1,-1,-6,3
1570178438955305,3,0,0,1,-1,-1,-4,7
1570178438955305,-5,-2,0,-3,-2,1,5,-2
1570178438962194,0,1,-1,-1,1,-1,-7,0
1570178438962194,-6,-2,-4,-3,-3,-3,-6,-18
1570178438978098,3,-1,0,-1,1,0,1,8
1570178438978098,4,0,1,0,-1,0,-3,8
1570178438980093,-2,-3,-1,0,-2,-1,2,-6
1570178438980093,-1,0,0,-2,-1,0,-2,-4
1570178439001036,-1,1,-2,-1,0,0,-3,5
1570178439001036,-6,-1,-3,-2,-1,2,12,-24
1570178439003070,-3,2,-1,1,-1,-1,-5,4
1570178439003070,-1,-1,0,1,-1,-2,0,1
1570178439014999,0,-2,-1,0,-1,0,3,-2
1570178439014999,2,-2,-1,-1,-1,0,-1,3
1570178439021979,-3,-1,-1,-1,0,-1,2,-2
1570178439021979,4,1,1,2,0,1,1,10
1570178439037987,-3,-1,-2,-2,0,0,-1,1
1570178439037987,-1,-2,0,-1,-2,-2,-7,0
1570178439039935,7,0,-2,-3,-2,-1,1,18
1570178439039935,2,0,-1,-1,2,-1,-1,3
1570178439061099,6,0,-2,-1,-3,1,3,12
1570178439061099,-1,1,2,1,0,-2,-7,-7
1570178439062871,-5,-1,-1,-1,1,0,1,-9
1570178439062871,-1,-1,1,0,1,0,5,0
1570178439075847,-1,-2,-2,-2,0,0,2,4
1570178439075847,6,4,1,2,1,-3,-24,22
1570178439081917,6,1,1,2,0,1,3,6
1570178439081917,1,-1,-1,-1,-1,-1,1,3
1570178439098783,-1,0,1,1,0,-1,-3,0
1570178439098783,-2,-1,-3,-1,-1,2,6,-1
1570178439099779,-6,-4,-2,-3,-2,-2,-2,-20
1570178439099779,1,1,-2,0,0,0,2,13
1570178439120716,-1,-2,1,2,0,-2,1,-4
1570178439120716,-1,-3,-2,-2,-1,0,4,-6
1570178439122716,-2,-2,-2,-1,-4,0,0,5
1570178439122716,1,-3,-1,-2,-1,-3,-1,-1
1570178439134836,-1,-1,-3,-1,-1,-2,-1,-6
1570178439134836,5,2,1,2,-1,-2,-13,17
1570178439144688,-4,-2,0,0,-1,-2,-2,2
1570178439144688,-3,-1,0,0,-2,2,0,-6
1570178439158965,2,1,0,-2,-1,-1,0,4
1570178439158965,-2,-1,-2,1,-1,0,3,-1
1570178439160190,-10,-3,-1,-1,-2,0,8,-20
1570178439160190,3,0,0,1,-1,-1,-4,4
1570178439180607,0,0,-3,-1,-1,-2,-3,-9
1570178439180607,-3,1,-1,-1,-1,-2,4,-6
1570178439182708,1,1,-2,0,-2,1,-2,0
1570178439182708,-3,0,1,0,-2,-1,-2,-19
1570178439194825,-2,-1,0,0,-1,0,1,-4
1570178439194825,-2,-2,-1,-1,0,1,1,0
1570178439203496,-1,-3,-2,1,3,0,10,-16
1570178439203496,0,-2,-2,0,-1,-2,-3,12
1570178439218454,-3,-2,1,-1,-2,-1,-4,-4
1570178439218454,-2,-2,-1,-1,0,1,4,-2
1570178439220449,-1,1,0,0,0,1,-3,-4
1570178439220449,-1,1,-1,-1,0,0,-1,-4
1570178439240940,-1,-1,0,-1,-1,0,0,0
1570178439240940,-1,-2,-2,-3,0,-1,4,-3
1570178439242395,0,0,0,0,-2,-4,-8,4
1570178439242395,0,-1,-2,1,-1,0,4,12
1570178439254363,0,-1,-2,-1,-1,-1,-4,3
1570178439254363,0,-1,1,1,-1,0,-2,-6
1570178439263334,0,0,1,0,0,-2,-5,3
1570178439263334,0,-2,0,-2,-3,0,1,4
1570178439278436,2,-1,-2,-3,0,2,0,-6
1570178439278436,-4,-1,1,0,0,-1,-3,-5
1570178439280290,2,0,-2,0,-1,-2,1,2
1570178439280290,-5,-4,-3,-2,0,1,7,-10
1570178439301314,4,1,2,2,1,-4,-10,13
1570178439301314,-3,-1,0,0,0,-2,0,-9
1570178439303228,0,1,-1,-2,0,0,0,12
1570178439303228,-1,0,0,-2,-2,-2,-1,-7
1570178439314370,-1,0,-1,1,1,0,2,-2
1570178439314370,4,-1,-2,0,-3,-3,0,5
1570178439323480,0,0,-2,-1,-3,0,-2,-2
1570178439323480,2,1,0,0,1,-1,-3,0
1570178439338135,-3,0,0,-2,-1,-2,3,1
1570178439338135,1,0,-1,-2,0,0,0,2
1570178439340129,-1,-2,-1,0,2,3,6,4
1570178439340129,5,1,0,1,1,-1,-3,10
1570178439361081,-2,-2,-1,1,-1,-1,-1,-5
1570178439361081,-2,0,-1,-1,0,-1,2,-6
1570178439362074,0,-2,-2,-1,-2,0,-4,1
1570178439362074,-3,-1,-1,-1,-1,-2,0,-4
1570178439375043,1,0,-1,-1,0,0,1,3
1570178439375043,1,0,0,0,0,0,-1,4
1570178439384012,-2,0,0,0,0,0,-1,-3
1570178439384012,-7,0,2,-1,1,0,-1,-10
1570178439397975,9,3,4,3,1,-3,-20,26
1570178439397975,-1,-1,-2,-2,-2,0,0,0
1570178439399969,1,1,0,0,-1,-2,-1,7
1570178439399969,-1,0,-2,-2,-1,0,0,-13
1570178439420914,-8,-4,-2,-3,-4,2,7,-19
1570178439420914,0,0,-2,0,2,0,-1,3
1570178439423007,1,0,1,2,-1,-1,-7,4
1570178439423007,1,0,-1,0,0,-2,-3,6
1570178439443852,-4,-2,-3,-5,0,0,0,-15
1570178439443852,2,1,0,0,1,0,2,-1
1570178439444850,3,-3,-1,-2,-3,-2,2,4
1570178439444850,-2,-1,-1,-1,-1,-1,-2,2
1570178439457815,-2,1,1,-1,-1,-1,0,-4
1570178439457815,-5,-2,0,-1,0,0,1,-4
1570178439460241,-1,0,0,-1,1,1,1,-2
1570178439460241,1,0,-1,0,-1,-1,-1,-2
1570178439480815,2,-2,-2,0,0,-1,3,4
1570178439480815,-2,-1,-3,-3,-2,2,6,-2
1570178439482747,1,3,5,3,1,-3,-10,3
1570178439482747,1,-1,-1,-1,0,-2,-1,4
1570178439494747,-1,0,-1,-1,0,1,1,-3
1570178439494747,1,-1,-2,-1,0,-2,1,2
1570178439503690,-1,-1,-2,-6,0,-2,0,-10
1570178439503690,-1,-2,0,1,-1,-1,0,-4
1570178439518685,-4,1,-2,1,-1,-1,4,-5
1570178439518685,4,-1,0,1,-2,-1,-1,-2
1570178439520248,1,0,-1,1,1,0,4,13
1570178439520248,0,-3,-1,0,0,-1,0,3
1570178439540838,0,-1,0,-2,-1,2,4,4
1570178439540838,-2,-2,0,0,-1,0,-3,-5
1570178439542588,-5,-2,-1,-3,-1,-2,-2,-4
1570178439542588,3,1,1,-1,-2,0,1,6
1570178439554556,-1,-1,0,-2,0,0,-1,-2
1570178439554556,1,0,-1,-2,1,-1,-2,-1
1570178439563825,-1,-3,-3,-3,-3,-2,7,-8
1570178439563825,-2,0,1,1,0,-3,-14,2
1570178439577790,-7,-1,-2,0,-2,-4,-6,-18
1570178439577790,0,0,0,-1,-1,-2,-3,0
1570178439586368,-2,-1,-2,1,-1,2,1,-5
1570178439586368,-1,-1,0,-1,-1,0,5,-5
1570178439601056,3,-2,-2,-2,0,0,8,-2
1570178439601056,-1,-1,-1,2,-1,0,-2,2
1570178439602051,-3,-1,-1,-1,-1,-1,-2,-3
1570178439602051,-1,-1,1,1,0,0,-1,-4
1570178439622995,-4,-2,-3,-1,1,-2,-2,-6
1570178439622995,-3,-1,-1,-1,0,2,4,1
1570178439625186,1,2,-1,0,-1,-1,-4,0
1570178439625186,1,-1,0,0,-2,-2,2,6
1570178439638495,-2,-2,1,0,0,2,0,2
1570178439638495,0,-2,-1,0,-1,-1,-1,1
1570178439640003,0,0,1,0,-1,0,0,1
1570178439640003,-1,0,-2,-2,0,0,-2,-8
1570178439661072,-5,-2,0,-1,0,0,11,-18
1570178439661072,1,0,-2,-1,-1,-1,-4,-1
1570178439662442,-2,-1,-1,0,-1,-1,4,3
1570178439662442,0,1,-1,1,-1,0,2,4
1570178439683373,-3,1,1,0,0,0,-2,-1
1570178439683373,-5,0,1,-1,0,0,1,-10
1570178439689318,1,-2,-1,-1,-1,-2,-6,-4
1570178439689318,1,-1,0,-1,2,1,5,4
1570178439698275,4,1,-1,-1,-2,-1,-5,4
1570178439698275,-4,0,1,-1,-1,-1,0,-2
1570178439700388,0,-1,-2,0,0,0,-2,2
1570178439700388,-6,-1,-1,-1,-2,-1,-3,-8
1570178439721306,1,0,1,-1,0,-1,-1,7
1570178439721306,0,1,1,0,0,0,-2,0
1570178439722699,2,-1,0,-1,2,2,5,5
1570178439722699,4,2,0,0,-1,0,-7,9
1570178439743245,0,-3,-2,-1,-1,-1,-4,3
1570178439743245,2,-2,0,-2,-1,-1,2,5
1570178439745239,-3,2,2,0,-1,-2,-3,-5
1570178439745239,-4,-3,-1,-1,0,-1,-5,-6
1570178439758278,5,0,-2,0,-2,0,4,26
1570178439758278,-2,-1,-1,0,-2,-1,-6,1
1570178439764663,1,-1,-3,0,1,1,-2,6
1570178439764663,-3,0,0,-1,-1,-2,1,-10
1570178439781301,0,-2,1,0,-1,1,0,-1
1570178439781301,-1,-2,-3,-2,0,0,0,-6
1570178439782307,-3,-2,-2,-2,-1,0,2,-1
1570178439782307,-4,1,-1,-2,0,1,3,-4
1570178439803250,-5,-1,-1,-1,-2,1,-1,-14
1570178439803250,0,0,-1,0,0,1,1,3
1570178439805238,-1,0,0,-2,-1,-2,-4,-9
1570178439805238,0,-1,-2,-1,-2,-1,0,1
1570178439817771,-1,0,2,0,0,-2,-3,0
1570178439817771,1,-3,-2,-3,-1,-2,-1,-2
1570178439824738,5,4,2,2,-1,-1,0,9
1570178439824738,-2,-3,-3,-1,-1,1,2,-3
1570178439841015,-3,0,-3,-2,0,1,9,-3
1570178439841015,0,1,1,0,0,-3,-4,8
1570178439842554,-2,-1,-2,-3,-1,-1,-2,-5
1570178439842554,-3,-3,-1,-2,1,-2,-2,-4
1570178439865535,3,-1,0,1,-2,-2,0,9
1570178439865535,-3,0,-1,-1,0,0,2,-5
1570178439865535,-2,-3,-2,-1,-1,1,0,-2
1570178439865535,1,0,-1,-1,-1,-1,2,3
1570178439877948,2,1,0,1,1,-2,-7,-3
1570178439877948,0,-1,1,-1,-1,-3,-3,2
1570178439892455,0,-2,-2,-2,0,1,-1,-1
1570178439892455,0,-2,-2,-1,-1,-1,-2,-2
1570178439900434,0,-1,1,0,0,-1,1,8
1570178439900434,-1,0,1,0,0,-1,-1,-5
1570178439902427,-3,0,1,1,-2,-1,-1,-5
1570178439902427,-1,-2,-2,0,-1,-1,-1,-10
1570178439923372,6,2,0,-1,0,-2,-16,25
1570178439923372,1,1,1,0,-2,-4,-7,1
1570178439925366,3,-1,-3,-3,0,-2,-1,3
1570178439925366,-2,-1,0,0,0,-1,-2,-1
1570178439937900,-3,0,-2,-1,0,-1,-1,-13
1570178439937900,1,-1,-2,-1,-1,0,3,3
1570178439944480,-4,-3,-1,-1,0,1,1,-14
1570178439944480,3,1,1,1,-2,0,-2,13
1570178439968252,3,-1,0,1,0,-1,3,22
1570178439968252,-1,-2,-1,-2,0,-1,-1,-5
1570178439970244,-3,0,0,1,-1,0,-1,-4
1570178439970244,3,0,0,1,-1,0,5,9
1570178439983210,-1,0,-2,-1,-2,0,1,-10
1570178439983210,1,-2,-1,1,0,0,-2,3
1570178439985225,0,-1,0,0,-1,1,-1,7
1570178439985225,-5,-1,-2,-3,-2,1,10,-20
1570178439997175,-5,-1,0,-1,0,-1,-3,-13
1570178439997175,2,-2,-1,0,-1,-2,3,0
1570178440004204,0,-2,1,0,0,-2,-1,-1
1570178440004204,-1,-1,0,0,1,-1,-1,1
1570178440022106,-3,-1,1,-2,-1,0,0,-11
1570178440022106,-1,-1,-2,0,-1,-1,-2,-7
1570178440023104,-5,-2,-2,0,-1,-1,2,0
1570178440023104,3,0,1,0,-1,-2,-8,-3
1570178440043051,3,0,-2,-2,0,1,4,12
1570178440043051,0,-1,-2,0,0,0,-3,5
1570178440045082,2,0,-2,-1,-3,-1,-5,-8
1570178440045082,1,-1,0,-1,0,-2,-8,7
1570178440058011,0,-3,-1,0,0,-2,-1,-6
1570178440058011,-1,0,1,-1,1,-2,-6,-2
1570178440063994,-1,-1,-1,-1,-2,-1,2,2
1570178440063994,-2,0,-1,-3,0,1,1,-1
1570178440080980,-2,-1,1,0,-2,-1,-3,-4
1570178440080980,-4,0,-2,-1,-2,1,0,-6
1570178440081947,6,-1,-1,2,0,-1,-2,4
1570178440081947,-1,1,0,-1,0,2,-2,3
1570178440102890,0,-1,-2,0,-1,-1,0,-1
1570178440102890,-2,1,-1,0,2,0,3,-2
1570178440104885,-1,2,2,0,-1,-2,-1,-3
1570178440104885,2,0,0,-1,-1,0,3,9
1570178440117194,-9,-5,-5,-1,-1,3,7,-18
1570178440117194,-1,-1,0,1,-1,-2,-4,-2
1570178440125868,-1,-1,-1,0,0,0,-2,1
1570178440125868,0,-1,-2,0,0,-1,-2,0
1570178440141047,-1,-1,-1,0,-3,-2,-5,-13
1570178440141047,0,-1,-1,0,-2,1,2,5
1570178440142813,-1,1,0,0,0,-1,0,-1
1570178440142813,-3,-4,-2,-1,-2,1,0,-6
1570178440163760,2,0,-1,-1,-1,-3,-5,-1
1570178440163760,-4,-4,-1,-2,-3,1,6,-5
1570178440164754,-1,1,-1,0,2,0,1,7
1570178440164754,-1,-2,-2,-1,1,0,2,-2
1570178440176723,2,0,0,0,1,-2,-2,10
1570178440176723,1,0,-1,-1,-1,-2,-2,-2
1570178440185698,-2,-3,-2,-2,0,-1,-1,-3
1570178440185698,0,-1,-2,0,0,-2,0,-2
1570178440201656,-2,0,0,0,0,0,5,0
1570178440201656,1,1,0,0,1,-2,0,0
1570178440202653,0,-1,-1,-2,-2,-1,-1,-12
1570178440202653,-1,1,2,3,-2,-2,-1,2
1570178440223659,2,-1,1,-2,-2,-2,-1,0
1570178440223659,-3,-1,0,-2,-2,-1,-6,-15
1570178440224935,3,0,1,-1,0,0,-2,4
1570178440224935,0,-2,0,-1,1,0,-1,-4
1570178440237321,-1,1,0,0,1,2,0,-3
1570178440237321,-3,-1,-1,1,-1,-2,-1,0
1570178440245541,-2,0,-2,0,-1,0,4,-2
1570178440245541,4,3,0,0,-1,-3,-17,11
1570178440260498,0,0,1,0,1,-1,-2,2
1570178440260498,3,-1,0,0,-1,1,2,5
1570178440262528,-3,-1,-1,-1,-1,1,4,-3
1570178440262528,2,-1,-1,-2,-1,0,-1,4
1570178440283438,0,0,1,1,-4,-1,0,2
1570178440283438,1,0,-1,1,-1,0,-2,7
1570178440284463,1,0,-1,0,-1,-1,3,4
1570178440284463,-4,-2,-3,-4,-1,3,5,-6
1570178440297403,-1,-1,0,1,2,-1,-3,-1
1570178440297403,3,0,0,-2,-2,0,0,2
1570178440306376,3,-1,-1,-1,-2,-1,-2,10
1570178440306376,-3,0,-1,1,-1,-1,1,-9
1570178440320341,1,1,-2,-2,-2,2,0,-1
1570178440320341,-3,0,0,0,1,1,2,6
1570178440322333,-4,0,-1,-1,0,-1,-6,-18
1570178440322333,-1,-2,0,0,-1,-1,9,-11
1570178440343631,2,0,-4,-2,0,1,-3,11
1570178440343631,-1,-1,-1,1,1,-1,-1,1
1570178440345331,-2,-2,1,-2,-1,-1,-2,-3
1570178440345331,-3,-2,-1,-3,-1,1,2,-2
1570178440357241,1,0,1,-1,-2,-1,1,-1
1570178440357241,-2,-1,-1,-2,-1,-1,-2,-3
1570178440366352,1,0,0,2,0,-1,-4,3
1570178440366352,-4,0,0,0,0,-1,-6,-20
1570178440381176,0,-1,-2,-1,0,-1,4,-4
1570178440381176,9,1,0,1,0,1,-3,22
1570178440382173,-2,-2,0,-2,1,0,3,4
1570178440382173,1,-1,0,1,0,0,0,5
1570178440403217,-4,-1,0,-2,-1,-3,-4,-8
1570178440403217,-3,-1,-2,-1,-2,0,2,-13
1570178440405111,1,-1,-2,0,-1,1,-2,-1
1570178440405111,-4,-2,-1,1,-1,1,9,-12
1570178440417080,0,0,0,0,-1,-1,-2,3
1570178440417080,-4,-1,-1,0,-1,-2,1,-6
1570178440426055,2,-1,0,-2,-2,0,1,8
1570178440426055,-4,0,-1,-1,0,-1,-3,-3
1570178440441016,-3,0,0,1,0,0,1,-2
1570178440441016,-1,-1,0,-1,0,-2,-4,-17
1570178440442013,-1,2,1,0,-1,-2,1,-4
1570178440442013,1,0,-1,-1,0,-1,-2,6
1570178440462957,0,-2,-1,-3,-1,0,-2,-1
1570178440462957,0,-1,-1,-1,-3,-1,-3,4
1570178440464953,-3,-1,0,0,0,-2,-3,-16
1570178440464953,-2,0,-2,-1,-2,-4,-2,-4
1570178440476919,1,-2,-1,0,0,0,-1,5
1570178440476919,0,-2,-1,-1,-1,1,2,-2
1570178440485896,1,2,0,0,-1,-1,-1,7
1570178440485896,-4,-1,-1,-2,1,3,6,3
1570178440500856,-1,0,0,1,-2,-2,2,-4
1570178440500856,2,2,-1,0,-2,-2,-7,8
1570178440502853,-2,-1,-2,-1,-2,-1,-1,-3
1570178440502853,1,0,0,0,0,0,-1,2
1570178440522856,-2,-1,-1,-3,-2,2,4,-1
1570178440522856,1,-1,-3,-1,0,0,3,5
1570178440525196,-2,-2,-1,0,1,-3,-3,-2
1570178440525196,4,-1,-1,-1,0,-3,-5,7
1570178440545737,-1,-1,-1,0,0,-2,-2,4
1570178440545737,-2,0,1,-1,-2,-3,-1,-7
1570178440547731,-2,-2,0,-1,-1,0,13,-14
1570178440547731,1,-1,-1,0,0,-1,-4,1
1570178440560696,-3,0,-2,-1,-3,-1,-3,-12
1570178440560696,-4,-1,-1,0,-2,1,4,-8
1570178440562690,5,4,2,2,3,-3,-16,13
1570178440562690,3,0,1,0,1,1,3,18
1570178440583682,4,0,0,0,1,-3,0,11
1570178440583682,1,-1,0,0,-1,0,2,0
1570178440584848,20,7,5,4,2,7,9,98
1570178440584848,-18,-5,-4,-3,-4,-3,10,-75
1570178440605577,7,0,-1,2,-1,-2,-8,35
1570178440605577,1,0,-1,-3,1,4,6,11
1570178440607571,-7,-3,-2,-2,-1,-2,-3,-29
1570178440607571,-2,-2,2,-1,-1,0,-2,-5
1570178440620536,-2,-1,1,-1,-1,1,7,-6
1570178440620536,-4,-1,-1,-1,1,-4,-2,-13
1570178440622592,-4,-5,-3,-2,0,0,1,-15
1570178440622592,5,1,0,0,0,-1,-3,17
1570178440643474,-3,-2,-3,0,-1,0,-2,-16
1570178440643474,4,-1,0,0,0,0,-3,15
1570178440644472,-7,-1,-2,-2,-1,-3,-5,-26
1570178440644472,6,1,-1,-1,-2,-1,-2,28
1570178440665416,-4,-1,2,0,1,1,1,-8
1570178440665416,2,1,1,0,1,-1,-6,-10
1570178440667632,-2,-1,-1,1,-1,-1,3,-3
1570178440667632,-3,0,0,-2,-1,-1,-5,-2
1570178440680376,2,0,0,-1,0,-1,-1,2
1570178440680376,-2,-1,-1,-1,-1,-1,2,-7
1570178440687358,2,-1,0,-2,-2,0,-11,6
1570178440687358,3,-1,-1,1,0,0,-4,14
1570178440703315,-1,1,-1,-2,1,-2,-2,-1
1570178440703315,0,-2,-1,1,0,0,1,0
1570178440705311,-2,-3,-2,-1,-1,-1,1,-8
1570178440705311,0,0,0,-1,-2,0,-1,1
1570178440726256,1,-1,0,-3,1,-1,0,11
1570178440726256,0,0,1,-1,1,0,3,1
1570178440727252,-5,-3,-4,-1,0,-3,1,-6
1570178440727252,0,0,-1,-1,0,0,-1,7
1570178440740219,-3,-3,0,0,-3,-2,-2,-24
1570178440740219,-3,-1,-1,-1,-2,0,0,7
1570178440747204,-2,-1,-1,-2,-2,0,0,-9
1570178440747204,1,-1,-2,0,1,0,-1,7
1570178440764518,-3,1,0,0,0,0,-3,-11
1570178440764518,4,0,0,0,0,-1,1,11
1570178440765604,-1,-1,-1,-2,0,1,2,-1
1570178440765604,0,-1,-1,0,0,0,0,2
1570178440786095,-2,0,2,2,-2,-1,-1,-3
1570178440786095,0,-2,-3,-2,-4,-1,-15,14
1570178440787170,1,1,-3,0,-1,0,5,6
1570178440787170,-1,-2,-1,-1,0,0,1,1
1570178440800129,1,-3,0,-2,0,-3,-2,7
1570178440800129,-3,-1,-1,0,-2,-1,2,-13
1570178440807064,1,-3,0,-2,0,-3,-3,-7
1570178440807064,0,-1,-1,-2,-2,-2,-2,5
1570178440823190,-3,1,-2,-1,1,1,1,-5
1570178440823190,-2,0,1,1,1,0,0,-9
1570178440825141,-3,-2,-2,-2,-2,-1,0,-8
1570178440825141,-1,-1,0,1,-1,0,2,-2
1570178440845935,-1,-2,-2,-1,0,-1,0,-2
1570178440845935,0,-3,-3,-2,-1,0,2,-5
1570178440847930,0,-1,-1,-1,0,1,-3,2
1570178440847930,-2,0,1,-1,-2,-1,-4,-7
1570178440860895,3,1,-2,-3,-1,-1,-1,2
1570178440860895,-1,0,0,-1,0,1,-1,2
1570178440874858,1,-1,3,1,1,-1,0,-3
1570178440874858,-1,0,1,-1,0,-2,-2,-3
1570178440883833,-1,-1,0,1,-1,0,2,1
1570178440883833,-2,-1,-1,1,-3,-1,0,-1
1570178440884977,-1,-2,-2,-1,0,1,-1,-6
1570178440884977,6,1,-3,0,1,0,-11,22
1570178440905775,0,-1,0,0,0,0,0,8
1570178440905775,-2,0,-3,-1,0,-3,0,-4
1570178440907829,-1,0,-1,-2,-2,-1,-1,4
1570178440907829,-2,-2,-1,0,0,-2,0,-8
1570178440919735,0,-2,-2,-3,-2,-1,0,2
1570178440919735,-5,-3,-3,-2,-3,1,5,-9
1570178440926717,-3,0,-1,1,0,1,1,-7
1570178440926717,1,-1,-2,-2,-1,-1,3,7
1570178440943677,0,-1,0,1,-1,-2,-1,1
1570178440943677,-1,-2,-2,0,1,-1,3,1
1570178440945028,-2,1,2,-1,-2,-1,-2,-5
1570178440945028,0,0,0,2,-2,-3,-5,-7
1570178440965619,0,-1,-1,-2,0,0,-1,3
1570178440965619,2,0,-1,1,-1,-4,-2,-2
1570178440967608,1,-1,-1,-2,-1,-1,3,4
1570178440967608,-1,1,1,1,0,1,0,-2
1570178440980573,-2,-1,-2,0,0,1,1,-5
1570178440980573,-1,-1,1,0,-1,0,-3,3
1570178440986558,0,1,-1,-1,0,1,0,3
1570178440986558,-4,-1,1,-1,0,1,1,-9
1570178441003514,3,-3,-1,0,-1,2,0,14
1570178441003514,-1,-1,0,-1,0,-1,0,0
1570178441004542,0,-3,-1,0,-1,0,0,-1
1570178441004542,-4,0,1,-1,-1,0,0,-6
1570178441025454,-2,0,1,-2,1,0,-1,-2
1570178441025454,0,0,-1,2,-1,-1,-2,2
1570178441027456,1,-1,-1,0,-1,-1,0,6
1570178441027456,-3,-2,-2,0,1,0,0,-2
1570178441039418,-1,-1,-1,-1,-1,0,-1,-4
1570178441039418,-4,0,0,-1,-1,1,-1,-3
1570178441048395,-2,0,-1,0,-1,-1,0,-2
1570178441048395,2,1,-2,0,0,-2,-1,1
1570178441063356,-2,-1,-1,-1,-2,-2,-1,-3
1570178441063356,-7,-5,-2,-2,-1,1,5,-34
1570178441065348,-1,0,0,-1,-1,-2,0,-2
1570178441065348,1,-1,-2,-1,0,-2,2,5
1570178441086292,2,0,-1,1,0,-2,-1,7
1570178441086292,1,1,-1,-2,-1,-1,1,9
1570178441088287,-4,0,0,-2,-1,-3,-2,-4
1570178441088287,1,-2,-1,-2,-2,-1,0,2
1570178441099257,-4,-1,-1,-1,-2,-2,0,-11
1570178441099257,6,0,0,0,0,0,-2,18
1570178441108238,-7,0,0,0,-1,-2,-7,-27
1570178441108238,4,-1,-1,-1,-1,0,0,16
1570178441123200,0,1,-1,0,-1,-1,-1,1
1570178441123200,4,1,0,-2,0,1,-1,7
1570178441125188,0,-3,-4,-1,-2,-1,0,11
1570178441125188,0,1,1,1,-1,-2,-1,-9
1570178441146135,-2,0,1,-1,0,0,0,-2
1570178441146135,-4,-2,-1,-1,-1,0,-2,-8
1570178441148128,0,1,1,-1,0,0,0,2
1570178441148128,-3,0,-1,-1,-1,0,-1,-6
1570178441159100,-4,-1,-2,-1,0,1,2,2
1570178441159100,-3,0,-2,-1,-1,-3,-1,-1
1570178441168076,-1,1,0,1,0,2,2,9
1570178441168076,-3,0,-1,0,0,-2,-3,-8
1570178441183038,-4,1,-1,-2,-1,-1,-7,-12
1570178441183038,-6,-1,0,-2,-3,-2,-3,-7
1570178441185386,1,-2,-3,-1,-2,0,-2,-6
1570178441185386,1,-3,0,0,-2,0,0,2
1570178441206070,-1,-1,0,0,0,1,2,-1
1570178441206070,-1,-1,1,0,-1,-1,-3,-2
1570178441206969,0,-1,-1,-1,-2,-1,1,5
1570178441206969,-1,1,0,-1,0,-1,0,-2
1570178441219961,-1,0,0,-1,-1,-1,-2,0
1570178441219961,1,-1,-2,0,-1,1,-2,4
1570178441228910,3,0,1,-2,0,-1,-3,-8
1570178441228910,1,-2,-2,0,1,0,2,7
1570178441242872,2,0,-1,-1,1,1,-1,2
1570178441242872,0,0,-2,0,0,0,-2,-6
1570178441245098,3,-1,0,-1,0,-2,1,4
1570178441245098,-4,-1,0,0,1,0,-3,-7
1570178441265812,0,-1,0,0,0,-2,-1,-4
1570178441265812,6,-2,-1,-1,-1,-1,-2,9
1570178441267856,-1,-1,-1,-2,-3,0,1,1
1570178441267856,1,-2,-1,-1,0,1,2,2
1570178441279775,-1,0,-2,0,0,-2,-1,0
1570178441279775,0,0,0,0,-1,-2,0,-2
1570178441288827,0,0,1,-1,-1,1,-1,3
1570178441288827,0,0,0,-2,-2,-2,-1,7
1570178441303712,-1,0,-1,-1,-1,1,0,-7
1570178441303712,6,2,1,1,-1,-2,-8,31
1570178441305052,-1,-1,-3,-1,-1,0,1,-3
1570178441305052,0,-1,0,0,1,1,0,-2
1570178441325650,0,-1,1,0,0,-1,-4,-4
1570178441325650,-1,1,2,-2,0,-1,2,-4
1570178441327739,2,-1,0,-1,-1,0,-1,3
1570178441327739,3,-2,0,-1,-1,0,-1,10
1570178441339613,0,-1,1,-3,-1,-1,2,1
1570178441339613,-3,-1,-2,0,-1,-1,2,-9
1570178441348594,-1,-2,-1,0,-1,-2,-1,4
1570178441348594,-4,-1,-1,-1,0,-1,2,-8
1570178441363549,-2,0,0,-2,-1,-1,-1,-7
1570178441363549,3,0,-1,0,-1,2,1,12
1570178441365398,-1,1,0,1,-1,-1,-3,-3
1570178441365398,0,2,0,-1,-1,0,-1,-1
1570178441386509,-6,-2,-2,-2,-2,-1,0,-8
1570178441386509,-3,-2,0,-1,-1,0,-1,0
1570178441388483,-3,-1,-2,-1,-2,-2,-4,-17
1570178441388483,-5,-2,-1,-1,-1,0,-1,-9
1570178441399454,5,-1,-2,-2,-2,-1,0,12
1570178441399454,-2,0,-1,-1,0,2,7,-1
1570178441408429,-4,-3,-2,-3,1,1,9,-21
1570178441408429,6,1,0,1,-3,-1,-4,16
1570178441423454,0,-2,-2,0,-1,-2,-1,2
1570178441423454,0,-2,-1,-2,1,-2,-1,-5
1570178441424389,-4,0,-1,0,0,-1,2,-7
1570178441424389,4,0,-1,0,-2,-1,1,4
1570178441445458,0,0,0,0,0,0,0,0
1570178441445458,-9,-2,0,0,0,-3,-3,-25
1570178441447326,10,1,1,0,-1,0,-2,19
1570178441447326,-4,-1,-2,-2,0,-2,0,-8
1570178441459298,1,0,-2,-1,-1,0,-2,8
1570178441459298,-3,-2,-1,-2,-2,-3,-9,-23
1570178441468271,-3,-1,-1,0,0,1,-2,6
1570178441468271,-1,0,-1,0,-1,0,2,-4
1570178441483798,2,0,0,-2,0,0,4,2
1570178441483798,-1,0,-2,-2,-2,-1,0,-2
1570178441485226,0,0,-1,0,-1,-1,-3,4
1570178441485226,-4,-1,0,-1,-1,-3,-5,-14
1570178441506309,-3,-2,-2,0,0,1,1,1
1570178441506309,3,-1,1,0,-1,1,3,5
1570178441507664,2,0,-1,0,-1,-3,-3,6
1570178441507664,-1,-1,0,-1,0,4,19,2
1570178441529113,-4,-1,0,0,-1,-2,-1,-4
1570178441529113,3,-1,0,-1,1,0,1,3
1570178441530165,0,-1,-1,1,-1,0,-2,0
1570178441530165,3,0,-2,-1,0,-3,-6,3
1570178441543678,0,-1,-1,0,0,1,4,10
1570178441543678,1,3,-1,2,-1,-1,1,6
1570178441545066,-5,-1,-2,-1,-1,-1,2,-7
1570178441545066,-2,1,0,-2,-1,-2,-4,-7
1570178441566008,1,-2,-1,0,-1,0,-4,-3
1570178441566008,-3,-1,-1,0,-1,-1,-4,-10
1570178441568004,-1,0,-1,-1,2,0,1,4
1570178441568004,-4,0,-1,0,0,0,-5,-10
1570178441587950,-2,-2,-2,-2,0,0,-3,0
1570178441587950,-1,-1,-1,0,0,0,0,1
1570178441596289,1,-1,-1,0,-1,-1,-2,-5
1570178441596289,-1,0,-1,1,-1,-2,-2,-1
1570178441602909,-2,0,0,-1,-1,-4,1,-3
1570178441602909,0,-1,-2,0,0,1,1,-4
1570178441605096,3,-2,-1,-1,-1,-1,-1,13
1570178441605096,1,-1,-3,1,1,0,-3,4
1570178441633831,1,0,1,1,-1,-1,-1,-3
1570178441633831,1,-1,0,0,0,-1,1,8
1570178441634825,1,-1,1,-1,1,1,-1,8
1570178441634825,-1,0,0,0,-1,0,0,0
1570178441648789,-1,-1,0,-1,-1,1,-1,-1
1570178441648789,-6,-2,-3,-3,-3,0,-2,-18
1570178441649993,-2,1,0,2,-1,-2,-5,-4
1570178441649993,1,-3,1,2,-1,-1,0,5
1570178441662749,3,1,0,1,1,-1,-1,3
1570178441662749,-4,-2,-1,-2,0,-1,5,-5
1570178441669376,-1,0,-3,-3,-1,-1,1,-1
1570178441669376,0,-4,-2,-3,-2,1,0,2
1570178441685690,-7,0,1,0,1,-3,-6,-14
1570178441685690,1,-1,-2,0,2,-2,-3,9
1570178441687684,-1,-1,-1,1,-1,-1,0,-2
1570178441687684,-4,1,1,0,-2,0,-2,3
1570178441708628,8,-3,-2,-1,-2,1,3,8
1570178441708628,0,0,1,0,-2,2,0,11
1570178441711621,-2,-1,2,-2,-1,-1,-2,-4
1570178441711621,0,1,-1,-1,-1,-1,-2,-1
1570178441722590,0,-1,-1,0,-1,0,-1,-3
1570178441722590,5,2,0,2,1,1,4,21
1570178441729573,1,-2,-2,-1,-1,-1,1,-5
1570178441729573,-2,-1,1,-3,1,0,1,-1
1570178441745531,-1,0,-1,0,0,-2,-2,-3
1570178441745531,-2,-1,-2,-2,1,0,1,-12
1570178441747610,4,-1,-1,1,2,0,-6,17
1570178441747610,-1,0,0,1,1,-1,-1,-6
1570178441768468,0,-1,-1,-1,0,0,2,7
1570178441768468,2,2,1,-1,0,-1,-4,-6
1570178441769465,-1,-1,-1,-1,-2,-1,1,-4
1570178441769465,0,0,-5,-3,-2,0,1,3
1570178441782436,-1,-2,-1,0,-1,-1,-2,-3
1570178441782436,-4,-2,-3,-3,-2,1,-2,-2
1570178441789413,-4,0,1,0,-1,0,3,-7
1570178441789413,1,1,-1,0,-1,0,-5,0
1570178441805556,-4,0,-2,-1,-1,0,3,-5
1570178441805556,0,0,-1,-1,0,0,-2,-1
1570178441807781,-2,0,-1,0,-1,0,-1,-7
1570178441807781,4,1,-2,0,0,-1,-3,7
1570178441828308,-2,-1,0,-3,-1,-1,-1,-4
1570178441828308,-4,-3,-1,1,-2,0,-2,-3
1570178441830303,4,2,0,0,0,0,0,10
1570178441830303,-3,-3,0,1,0,0,3,-1
1570178441843269,0,0,-1,0,2,-2,-3,-14
1570178441843269,4,0,0,0,0,0,0,9
1570178441849255,-2,-2,-1,-2,-1,-2,2,-8
1570178441849255,1,1,1,0,0,0,3,9
1570178441866205,-3,0,-1,-1,-1,-1,-1,0
1570178441866205,2,0,1,-1,-1,-3,-8,12
1570178441867527,3,-1,-2,-1,0,1,3,11
1570178441867527,-4,-1,-2,-2,1,0,-1,-12
1570178441888147,-1,-2,0,-2,0,-1,-3,10
1570178441888147,4,-1,-1,-1,1,-3,2,-1
1570178441890143,-2,1,-2,-1,-1,-1,0,0
1570178441890143,0,-2,-1,0,-1,-2,-2,-1
1570178441911086,0,0,0,1,-2,1,3,-5
1570178441911086,-7,-2,-1,-2,-2,-1,-3,-20
1570178441912084,-2,-1,-1,-1,-1,-1,-3,-8
1570178441912084,-3,-2,0,-1,-2,-1,1,-7
1570178441927043,0,-2,-1,1,1,-1,0,3
1570178441927043,1,-2,-3,-2,-1,-1,-1,5
1570178441927043,-6,0,1,0,-1,-3,-4,-11
1570178441927043,3,-3,-1,0,-1,0,4,2
1570178441947991,1,-2,0,-2,-1,2,5,-10
1570178441947991,1,-2,-2,-1,-4,-1,-4,1
1570178441950283,-3,-1,0,1,0,-1,1,-2
1570178441950283,-2,1,-1,-2,0,-2,-2,-5
1570178441962950,-8,-1,-1,-1,-1,0,2,-6
1570178441962950,-3,0,-1,1,1,-3,-1,-12
1570178441969929,7,-1,0,0,0,-1,-4,8
1570178441969929,0,-1,0,-1,-1,-2,0,2
1570178441985886,2,0,-2,1,-1,-2,-5,2
1570178441985886,-20,-5,-3,-2,-4,1,30,-59
1570178441987883,8,1,-2,0,3,4,11,37
1570178441987883,4,2,2,3,2,2,-1,31
1570178442008827,4,0,0,0,-2,0,-1,15
1570178442008827,2,0,2,0,1,-1,-1,13
1570178442009823,-3,-1,-1,-2,-2,0,0,-17
1570178442009823,-4,-1,-3,-1,-2,-1,-1,-14
1570178442021790,-3,1,0,0,0,0,3,0
1570178442021790,3,1,0,1,0,0,-6,13
1570178442030771,-1,-1,-1,-1,-1,-2,-4,-6
1570178442030771,0,-2,0,-1,-1,-2,-5,4
1570178442045731,-3,-1,0,-1,0,-1,-6,-10
1570178442045731,1,0,1,-1,0,1,-4,4
1570178442047721,-4,-3,-1,-2,-3,-1,-2,-5
1570178442047721,-2,0,0,-1,-1,0,2,-8
1570178442068665,0,-1,-1,0,1,0,-1,-2
1570178442068665,0,-1,0,1,1,-1,0,10
1570178442069662,1,0,0,-1,-1,-2,-5,1
1570178442069662,-5,-1,-1,-1,-1,-4,-6,-20
1570178442081909,5,1,-1,0,0,0,4,15
1570178442081909,2,0,0,0,-2,-1,-9,7
1570178442090605,-3,-3,-1,-1,-2,0,-1,-5
1570178442090605,-5,-2,-1,-2,-2,-2,3,-17
1570178442106019,3,1,0,0,1,-4,-7,3
1570178442106019,-4,-1,-1,-1,-1,0,10,-11
1570178442107653,-4,1,0,0,0,1,-3,-9
1570178442107653,4,-2,0,1,-1,-2,0,2
1570178442128751,-2,-2,-1,0,-1,0,3,-3
1570178442128751,4,2,-1,0,1,-1,-1,11
1570178442129927,-9,1,0,-1,1,-2,-3,-16
1570178442129927,2,-1,2,0,0,0,-6,5
1570178442142467,-1,0,0,-1,-2,0,-2,-5
1570178442142467,2,0,-1,-1,-2,0,-3,7
1570178442151444,2,-2,-2,-1,-1,1,6,-8
1570178442151444,1,-3,-1,0,0,-1,-6,12
1570178442166404,4,-1,-3,-1,-1,-2,2,6
1570178442166404,0,1,0,-1,-2,-1,-1,-1
1570178442167816,-3,-2,-3,-2,-1,-2,-1,-2
1570178442167816,-4,-1,0,-2,1,2,2,-8
1570178442189346,0,-2,1,2,-2,-1,-3,-5
1570178442189346,3,-1,-1,0,-1,0,-5,7
1570178442190343,3,1,0,0,1,-2,-2,6
1570178442190343,0,0,-2,-2,-3,-1,-2,1
1570178442202307,-1,0,0,0,-3,-2,-2,1
1570178442202307,-5,-3,-1,-1,-3,-2,0,-9
1570178442211287,2,-1,0,0,-1,-1,-6,11
1570178442211287,2,0,-2,-3,-1,0,1,-3
1570178442226243,-5,-1,-2,-2,0,-3,-7,-25
1570178442226243,2,1,0,1,0,0,0,12
1570178442227449,0,-2,0,0,-2,1,2,5
1570178442227449,0,2,1,0,0,-1,3,9
1570178442248218,-3,-2,-1,-2,0,0,2,-2
1570178442248218,-1,-2,-2,0,1,-1,-3,-5
1570178442250180,-2,0,0,-3,-1,-1,-4,-4
1570178442250180,1,0,-1,0,-3,0,0,0
1570178442262151,2,1,-1,-2,-1,2,3,7
1570178442262151,1,0,-2,1,0,-1,-1,3
1570178442271130,-3,-1,0,0,0,0,2,-2
1570178442271130,-3,-1,-1,1,1,0,1,-5
1570178442286166,0,-1,1,0,0,0,0,3
1570178442286166,-1,-1,-1,-3,0,-1,-2,-3
1570178442287082,0,-2,-1,0,-1,-1,1,-4
1570178442287082,-1,1,-2,-1,0,0,-1,-2
1570178442309022,0,-2,-2,-1,-1,0,-1,3
1570178442309022,-1,0,0,-1,-1,0,-1,-1
1570178442310022,0,-1,-1,-1,-1,-1,-1,0
1570178442310022,0,-2,0,-1,0,0,0,0
1570178442322254,-2,-1,-1,-1,-1,1,2,-1
1570178442322254,0,1,-1,-1,-1,-2,-2,0
1570178442330963,2,0,-1,-1,-1,-2,-1,5
1570178442330963,-1,-1,0,-1,-1,-2,-2,-1
1570178442345927,-5,-2,-1,0,-2,-1,-4,-18
1570178442345927,6,0,-2,0,1,0,2,9
1570178442347918,-2,-1,1,-1,-2,-2,-2,0
1570178442347918,-1,0,-1,-2,0,0,2,-6
1570178442375972,2,0,2,-3,-1,-1,1,4
1570178442375972,-3,0,1,-1,1,0,-1,-6
1570178442377845,0,0,-1,-2,-2,-1,1,1
1570178442377845,1,0,-2,-1,0,1,3,2
1570178442381871,-2,-3,-3,-2,0,-1,-2,2
1570178442381871,-2,0,1,-1,-2,-1,-1,-3
1570178442390840,3,0,-1,-1,0,0,0,5
1570178442390840,-2,-2,0,-1,0,-1,-2,-1
1570178442405768,1,0,0,-2,0,2,8,11
1570178442405768,6,1,2,0,0,-3,-10,9
1570178442407758,-1,0,0,1,0,-1,0,-3
1570178442407758,0,-1,-1,0,0,-2,-2,3
1570178442428705,-1,0,0,-1,-1,-1,0,0
1570178442428705,-3,-2,-3,-1,-2,1,3,-5
1570178442429794,0,1,0,0,-3,1,0,-2
1570178442429794,-2,1,-1,0,0,-1,0,-4
1570178442450643,2,2,-1,-1,0,0,1,5
1570178442450643,3,-2,-1,-1,-1,-1,3,6
1570178442452639,1,1,0,-1,1,0,-1,-1
1570178442452639,2,-1,1,-2,-2,0,-3,1
1570178442465608,-2,1,-2,1,-2,0,-3,7
1570178442465608,-2,0,-2,-2,0,1,0,-1
1570178442467599,-2,0,-2,0,0,-3,1,-1
1570178442467599,0,-1,-1,-1,-3,2,0,4
1570178442488547,-1,0,-1,0,0,-2,-6,-12
1570178442488547,-2,-2,-1,-1,-2,1,3,-8
1570178442489588,2,0,-1,0,0,-1,-13,7
1570178442489588,-1,0,-3,0,1,0,4,5
1570178442510485,0,-2,1,-1,-1,-1,0,1
1570178442510485,-2,-2,-1,0,-1,0,3,-6
1570178442512479,-2,0,-3,-2,0,-1,3,-5
1570178442512479,-1,1,-2,-2,-1,-2,-3,0
1570178442525891,1,-1,0,0,1,0,-2,5
1570178442525891,-7,-6,-2,-2,-2,-2,5,-9
1570178442527444,-2,-1,1,1,-2,-1,-3,-14
1570178442527444,0,0,-1,-1,-3,0,1,3
1570178442548385,-3,-2,-1,0,0,-1,2,-4
1570178442548385,0,-3,-1,-3,1,-1,-3,1
1570178442550438,-1,-2,-1,-1,-2,-2,1,0
1570178442550438,-1,1,0,0,1,0,2,-1
1570178442571322,-2,-1,0,0,-3,0,-3,-10
1570178442571322,3,3,0,1,-2,-1,-2,10
1570178442572765,0,0,-2,-2,-1,1,2,4
1570178442572765,2,-1,0,-1,0,-1,-2,-1
1570178442585349,-2,-1,-2,-1,-2,0,1,1
1570178442585349,0,0,-2,0,1,0,-5,3
1570178442599274,-4,-2,-2,-2,-2,2,14,-15
1570178442599274,-4,1,-1,-1,-1,-1,-3,-3
1570178442608226,-1,-1,-2,-1,0,1,2,0
1570178442608226,-3,-1,-1,0,-4,-1,-4,-11
1570178442610225,-2,0,0,-1,-1,2,2,-1
1570178442610225,0,-3,0,1,-1,-1,-4,3
1570178442630317,6,1,1,0,0,-1,-1,9
1570178442630317,0,-1,-1,-1,-2,-1,-1,-2
1570178442638157,0,-1,0,-1,0,-2,-5,-2
1570178442638157,-4,-2,0,0,-1,1,-1,-11
1570178442645534,0,-1,-1,-1,-1,-1,-2,1
1570178442645534,0,2,0,0,0,-2,0,7
1570178442654101,2,-1,-1,-1,-1,0,-1,8
1570178442654101,0,0,0,-2,1,1,1,-1
1570178442668061,-4,-1,-2,-1,1,-1,3,-8
1570178442668061,5,1,0,3,2,-1,-4,11
1570178442670057,-2,-1,-1,1,0,-2,1,5
1570178442670057,-1,-1,-1,-2,-1,0,-5,1
1570178442691381,-5,-2,1,0,-1,-2,-2,-7
1570178442691381,-1,-2,-1,-2,1,-1,2,1
1570178442691998,0,1,1,1,1,-1,-6,-2
1570178442691998,2,-2,-2,-3,-1,-3,-3,3
1570178442704962,0,0,-4,-1,-2,0,-1,-2
1570178442704962,-3,-3,0,0,0,0,-2,-4
1570178442711946,1,-1,-1,1,-1,1,4,1
1570178442711946,-1,-1,0,-1,-2,0,0,3
1570178442727901,-2,1,1,-1,0,-2,-2,-10
1570178442727901,0,0,-1,-2,0,0,2,-1
1570178442730150,-5,-1,-1,-1,-1,1,0,-5
1570178442730150,0,0,0,-1,0,-2,-1,-4
1570178442750843,1,0,-1,-1,-1,-1,-4,7
1570178442750843,1,1,-1,-1,0,2,0,1
1570178442752837,1,-2,0,0,0,-2,-2,0
1570178442752837,-6,-4,-2,-2,-1,2,14,-17
1570178442765801,3,0,-1,-2,-1,0,1,9
1570178442765801,-4,-2,-2,-1,-1,1,1,-5
1570178442771784,0,0,-1,0,-2,-1,-6,4
1570178442771784,-1,-1,0,1,0,-1,1,13
1570178442788739,-4,-3,-2,-3,-1,-2,-1,-7
1570178442788739,1,1,0,1,0,1,1,1
1570178442789738,3,0,-1,-1,0,1,-2,12
1570178442789738,1,0,0,1,2,-2,-6,-2
1570178442810710,1,-1,-2,-1,0,0,1,3
1570178442810710,3,2,2,0,-1,-5,-24,0
1570178442812676,-3,-1,0,0,-1,-2,-1,-3
1570178442812676,2,1,-1,0,0,0,-1,-1
1570178442825639,2,0,1,0,0,1,-4,13
1570178442825639,-8,-2,-1,-2,-1,-1,8,-16
1570178442832620,-1,-1,0,-1,-1,-2,-2,-4
1570178442832620,2,0,0,-1,1,0,-4,2
1570178442847629,-7,-2,0,-2,-3,-1,3,-15
1570178442847629,0,-1,0,-2,-2,-2,1,-2
1570178442848579,-2,-1,-1,-2,0,0,0,-3
1570178442848579,0,-1,0,0,-3,-1,-3,-8
1570178442870520,1,-2,-1,1,1,0,2,5
1570178442870520,-3,-1,1,0,0,2,1,-1
1570178442870520,-1,0,0,1,-1,-1,-3,5
1570178442870520,-5,-3,-2,-2,0,-1,-3,-18
1570178442884481,1,-1,-2,-1,-1,1,-1,0
1570178442884481,5,0,-2,-1,0,0,4,15
1570178442892468,-1,-1,-1,-2,0,-1,-1,-8
1570178442892468,1,0,-1,-1,-1,-3,-1,6
1570178442908151,0,1,1,1,0,-1,-2,-2
1570178442908151,0,1,-1,0,0,-1,2,3
1570178442908151,-1,-1,-3,-1,-1,-1,2,-4
1570178442908151,4,0,0,0,-1,0,-6,18
1570178442930192,-1,1,2,0,2,-1,-4,2
1570178442930192,-1,-2,-1,0,-2,0,0,-4
1570178442931186,1,-2,0,-1,2,-1,-2,5
1570178442931186,-2,-1,-2,-1,-1,1,1,-4
1570178442944152,1,0,-1,0,-1,0,1,-2
1570178442944152,1,-1,-1,-1,0,0,1,8
1570178442953129,3,0,0,-1,-1,0,2,1
1570178442953129,0,0,0,-2,1,0,1,1
1570178442967406,-2,2,0,-1,0,0,-2,0
1570178442967406,-1,-1,-2,-2,-2,0,-1,-4
1570178442968403,-2,0,-1,-1,-1,0,-3,-2
1570178442968403,1,1,-1,0,-1,0,1,-1
1570178442990449,0,-2,0,-1,-1,-1,-2,3
1570178442990449,-2,-1,-2,-1,-1,0,-2,-3
1570178442991344,1,-2,0,-2,-1,-2,2,8
1570178442991344,-6,0,0,0,-1,0,-3,-16
1570178443004216,-3,-4,-4,-3,-3,-1,4,-8
1570178443004216,0,-1,2,0,0,0,-2,0
1570178443020174,0,0,0,0,-1,1,-2,-2
1570178443020174,4,0,1,1,1,-1,-10,16
1570178443027342,-2,-2,-1,0,-2,-1,-1,-3
1570178443027342,-3,-1,-2,-1,1,1,0,-4
1570178443028279,0,-1,1,-1,-2,0,-2,3
1570178443028279,-3,-2,0,-1,-1,-1,4,-6
1570178443050079,2,1,-2,0,0,-1,-1,-2
1570178443050079,2,-1,-1,1,0,-1,-2,-1
1570178443051044,-3,-2,0,0,0,0,1,-4
1570178443051044,-1,0,0,0,-1,0,4,0
1570178443065050,-1,-1,-1,1,1,-1,-1,-4
1570178443065050,-1,-1,-2,-1,-2,-2,0,7
1570178443072991,-6,-3,-1,-1,-1,-1,-4,-17
1570178443072991,-3,0,0,0,0,-1,0,-8
1570178443087285,-1,-2,-2,-3,1,-1,0,6
1570178443087285,2,-1,-2,-1,-1,0,-1,-4
1570178443088348,-1,1,-1,-2,1,-1,0,-1
1570178443088348,0,-1,-1,-3,-2,0,0,2
1570178443110074,0,1,1,0,0,1,-1,-4
1570178443110074,-5,0,0,-1,-2,-1,-1,-9
1570178443111181,0,-2,1,-2,-1,-1,1,3
1570178443111181,1,1,-1,-1,-1,-1,1,0
1570178443124071,-2,-1,0,-2,1,-1,-1,1
1570178443124071,-1,-1,2,0,-1,-1,-3,-1
1570178443133127,0,0,-1,0,1,-1,0,-3
1570178443133127,-5,0,-1,0,1,-1,-1,-6
1570178443147974,4,-1,-1,1,1,-1,0,7
1570178443147974,1,-1,-3,-2,1,-1,-1,-2
1570178443147974,-2,0,-2,-2,-1,-1,-1,6
1570178443147974,1,0,-2,-2,-2,-2,0,-1
1570178443170090,0,-1,0,-1,-3,0,-4,-5
1570178443170090,0,2,2,2,1,0,3,6
1570178443171089,1,0,0,0,-1,-1,-2,-8
1570178443171089,0,-3,6,4,1,-1,-3,0
1570178443184270,-5,-3,-9,-6,7,2,0,-9
1570178443184270,6,3,3,6,16,11,7,11
1570178443193029,-7,0,5,1,0,8,15,-9
1570178443193029,-5,-6,-8,-11,-21,-14,-11,-3
1570178443208050,-11,-6,-6,-3,-21,-20,-34,-14
1570178443208050,1,0,2,-1,-5,-6,-8,-19
1570178443208050,-4,-2,1,1,5,0,-3,-8
1570178443208050,2,-3,-5,0,2,5,9,5
1570178443229990,-2,0,-4,-6,7,6,12,-3
1570178443229990,-1,4,-2,-1,1,-1,-1,-2
1570178443230987,-2,-6,2,1,-2,-2,-6,2
1570178443230987,-6,-4,8,-3,-1,-1,-6,-5
1570178443252930,-13,-6,-7,-2,2,1,-2,-13
1570178443252930,12,21,-18,-5,3,4,8,9
1570178443253928,17,42,20,5,0,0,0,-14
1570178443253928,10,-49,3,0,0,1,6,31
1570178443267887,0,-5,14,6,-3,2,9,7
1570178443267887,-24,-40,-10,-4,2,2,1,-28
1570178443268290,3,4,-7,-7,8,-3,-14,5
1570178443268290,8,40,19,5,-15,-7,-12,-19
1570178443297809,-16,-14,22,8,-1,-6,-26,-37
1570178443297809,0,6,6,4,-10,-4,7,0
1570178443299211,4,7,-35,-7,-1,0,9,8
1570178443299211,-8,-20,-30,-3,12,-1,-1,-8
1570178443312831,5,-9,-20,-8,1,6,14,18
1570178443312831,0,8,-12,-2,-5,0,18,2
1570178443313765,-5,-14,11,-4,-4,-1,-20,-7
1570178443313765,4,19,-17,-7,-1,2,0,-9
1570178443327728,11,17,-9,-4,0,3,1,-18
1570178443327728,9,11,20,6,3,5,10,5
1570178443328759,-2,-11,3,4,-4,-2,-2,12
1570178443328759,-12,-17,3,12,6,1,-11,6
1570178443349673,8,1,-5,-8,-1,-3,5,30
1570178443349673,-1,1,7,-3,1,-3,-16,4
1570178443350665,-1,8,-1,-5,-9,0,12,3
1570178443350665,-1,3,17,5,3,4,1,-5
1570178443372608,8,30,-2,2,2,2,12,-10
1570178443372608,11,17,27,5,-7,-7,-18,-4
1570178443373605,-23,-73,-34,-4,-2,-5,3,-84
1570178443373605,-4,0,-13,-9,1,-2,-12,-89
1570178443387751,11,11,-7,-3,-1,-1,6,-39
1570178443387751,-10,1,2,0,2,-1,4,-5
1570178443388564,8,11,16,4,1,6,15,41
1570178443388564,-4,1,-3,-1,6,2,-5,35
1570178443410508,1,-11,18,5,0,-1,-6,42
1570178443410508,-2,0,-20,-14,-5,-8,-13,22
1570178443410797,4,15,11,0,1,4,19,-24
1570178443410797,-5,-29,-6,-3,3,6,7,-15
1570178443432785,-12,-7,7,-3,-3,1,-3,1
1570178443432785,-25,13,-4,-6,-3,-1,1,15
1570178443433445,53,21,-4,-2,-2,-7,-4,34
1570178443433445,3,-11,-2,0,2,2,4,42
1570178443447130,2,-12,8,11,1,1,11,43
1570178443447130,-31,-27,-7,4,0,-1,-8,17
1570178443448814,-19,14,14,9,-3,-10,-17,9
1570178443448814,47,38,26,5,-2,-4,-24,23
1570178443470300,-26,-31,-21,-3,-5,-2,-1,12
1570178443470300,-25,-48,-6,-4,-6,-2,3,-4
1570178443471074,-8,8,-7,-2,-1,5,5,23
1570178443471074,-12,7,0,-1,-4,-2,8,6
1570178443493011,25,31,8,3,3,4,16,11
1570178443493011,13,16,10,4,2,2,-15,-1
1570178443493011,-9,-19,-9,-2,0,3,5,7
1570178443493011,5,8,1,3,1,0,13,16
1570178443507967,4,-1,-4,-6,-5,-3,-3,-1
1570178443507967,6,1,-5,-5,-3,-3,-11,-13
1570178443508965,-1,-17,0,1,1,-4,-5,10
1570178443508965,-17,-6,0,7,2,4,21,-1
1570178443529917,2,10,3,-6,0,4,27,0
1570178443529917,11,20,-1,1,13,-1,-28,-19
1570178443530955,-7,-28,-1,-2,-12,3,3,10
1570178443530955,6,12,-16,-19,-20,-20,-39,-9
1570178443552959,20,6,6,8,0,-2,-2,30
1570178443552959,29,-25,-17,-9,-13,-14,16,-5
1570178443553847,-4,13,-4,-6,4,1,-16,5
1570178443553847,-60,-18,5,5,10,14,35,7
1570178443566809,52,12,-3,0,-3,-5,-39,17
1570178443566809,-17,4,-1,-6,-1,2,32,-51
1570178443575237,-26,-8,8,9,14,7,-1,50
1570178443575237,36,9,-4,-3,-4,-9,13,16
1570178443589881,-32,21,25,8,-2,-2,-2,-24
1570178443589881,-36,-23,-2,1,-5,-4,-28,-12
1570178443590747,40,24,-13,-8,-9,-5,0,-59
1570178443590747,-58,-19,8,5,-4,-6,16,-11
1570178443612963,-6,-23,-16,-1,12,7,-3,93
1570178443612963,6,-17,-14,-6,22,24,25,96
1570178443613684,-36,-22,2,3,-13,-12,-20,35
1570178443613684,35,36,11,-3,-7,-6,15,25
1570178443627647,3,11,-4,-5,-11,-8,13,-92
1570178443627647,-8,-34,-10,1,-3,0,-29,-16
1570178443628644,-34,-16,5,0,15,11,28,-77
1570178443628644,40,29,2,7,5,4,-27,-27
1570178443650634,5,-9,-4,-5,-4,-8,-1,-26
1570178443650634,7,6,3,2,14,10,31,-13
1570178443650634,9,2,-6,-8,-13,-1,-9,-32
1570178443650634,-4,-5,0,-3,0,1,-22,-35
1570178443672533,-61,-23,4,8,10,-1,-19,-38
1570178443672533,72,40,3,0,-1,-5,0,5
1570178443673660,28,12,-7,-8,-38,-21,-2,16
1570178443673660,-21,-3,-3,-6,-4,-5,-3,-13
1570178443687493,24,22,-2,-1,1,3,-28,57
1570178443687493,-19,-8,9,9,2,0,5,26
1570178443688683,10,-6,-8,-9,4,0,7,44
1570178443688683,2,-1,-6,1,4,6,-2,43
1570178443710430,-13,-19,7,3,1,3,12,-23
1570178443710430,15,22,12,7,-7,-4,27,39
1570178443711423,2,13,0,1,12,4,-36,48
1570178443711423,1,-9,-5,-5,0,-4,-18,14
1570178443732367,-8,-14,-8,-5,1,0,5,4
1570178443732367,7,19,5,5,-7,-3,7,-43
1570178443733364,5,-7,12,6,9,8,19,-32
1570178443733364,-21,-19,-19,-10,-4,5,37,-91
1570178443747457,18,7,3,3,0,-2,-27,-14
1570178443747457,0,3,0,-1,-7,-4,-9,-24
1570178443748324,-2,11,2,-1,3,-4,1,-2
1570178443748324,-1,-6,3,5,30,13,1,-30
1570178443770272,5,-1,-9,-9,-36,-7,26,-6
1570178443770272,-9,5,9,-3,-6,-6,-56,-29
1570178443771263,3,2,-1,-1,-4,-2,-3,-16
1570178443771263,8,-8,0,4,0,1,-2,15
1570178443792206,-6,-1,11,8,11,7,21,-7
1570178443792206,7,-4,-3,4,5,4,-14,51
1570178443793206,-6,-3,-1,-1,2,5,11,-5
1570178443793206,5,2,-9,-6,-9,-8,-20,17
1570178443808165,-6,2,1,-1,6,-2,-1,-6
1570178443808165,-4,-4,1,1,-9,-1,10,-17
1570178443808165,0,6,4,5,18,4,-9,-2
1570178443808165,-1,2,2,-1,-1,-1,18,13
1570178443830109,0,-5,-8,-5,1,-11,-27,-7
1570178443830109,-9,-6,-8,-7,-2,7,20,-33
1570178443831202,20,11,8,15,31,11,-28,24
1570178443831202,6,3,4,1,-21,-11,1,19
1570178443853050,1,-6,-7,-5,-21,-7,-10,-16
1570178443853050,1,1,3,-4,-4,-5,-8,4
1570178443853050,-14,-4,-4,-6,-22,-3,23,-21
1570178443853050,5,5,4,9,20,4,-15,-19
1570178443867006,-1,-3,-5,-5,12,4,20,23
1570178443867006,-2,-1,0,7,8,0,10,9
1570178443875090,-3,-5,-6,-10,-25,-5,9,-2
1570178443875090,-4,-2,0,-3,31,12,-28,2
1570178443889950,1,4,4,5,2,4,21,1
1570178443889950,0,-3,-5,-10,-19,-9,3,0
1570178443890945,-5,-2,-2,8,35,2,-13,-11
1570178443890945,3,-3,-3,-2,-20,-11,-9,8
1570178443912890,-3,0,-4,-4,2,18,5,10
1570178443912890,-5,-4,-2,2,-3,-11,9,-20
1570178443913882,0,0,-7,-9,-22,-7,23,17
1570178443913882,16,5,0,-1,-28,-3,-24,13
1570178443927849,-5,0,12,7,18,1,-1,-22
1570178443927849,8,7,9,9,-11,-9,-29,32
1570178443928842,-8,-12,-10,-12,4,10,-5,-2
1570178443928842,-9,-11,-20,-14,12,-7,35,1
1570178443949805,0,2,-2,-8,-30,0,7,-5
1570178443949805,-2,0,0,3,8,-8,-11,-4
1570178443950783,-1,1,3,9,1,-12,-25,-9
1570178443950783,-3,-2,1,1,8,4,14,13
1570178443972731,1,-1,-5,-2,20,7,3,4
1570178443972731,-8,-6,-1,1,11,14,10,-39
1570178443973723,2,1,0,-6,-22,-19,-64,-1
1570178443973723,-1,10,15,9,-7,8,10,-8
1570178443986863,4,-4,-10,-7,-12,-6,-1,4
1570178443986863,1,9,-13,-14,-6,0,-7,-15
1570178443995662,-12,-14,13,6,7,0,21,-15
1570178443995662,6,8,7,8,9,13,-16,1
1570178444010625,2,12,3,-7,-18,-13,6,-5
1570178444010625,-2,-15,5,3,-7,-2,31,26
1570178444010625,1,0,-6,-3,4,-6,-21,-6
1570178444010625,-2,-7,-5,-10,7,4,10,15
1570178444032662,0,-1,-4,5,1,-9,-35,-5
1570178444032662,4,8,1,1,0,5,28,-1
1570178444033563,3,3,0,2,-5,3,12,11
1570178444033563,-5,-4,0,8,32,0,17,-6
1570178444046527,1,1,-3,-8,-30,-13,-8,-1
1570178444046527,-2,-2,-1,-5,-19,-5,-13,4
1570178444055509,-2,-6,-9,-5,2,9,29,7
1570178444055509,0,2,1,3,-3,-7,-51,-1
1570178444070471,0,-2,4,5,8,4,25,11
1570178444070471,3,24,-13,-6,-1,-9,-18,0
1570178444070471,1,-16,19,11,12,13,12,0
1570178444070471,-3,-19,1,5,-13,3,19,-15
1570178444092412,-10,-12,-1,-1,2,-2,-10,-6
1570178444092412,-5,-10,-5,-5,3,2,-11,-4
1570178444093401,10,26,-7,-2,0,-5,8,5
1570178444093401,1,-7,-4,-4,-11,-4,3,11
1570178444107366,-5,-13,-9,-2,12,6,-5,1
1570178444107366,6,3,-5,-3,4,8,15,2
1570178444115567,20,33,15,5,-1,-4,-11,9
1570178444115567,-1,-27,-2,-4,-13,-6,15,21
1570178444130565,-1,-15,-2,6,8,5,1,-9
1570178444130565,-5,2,-3,0,8,1,-42,-6
1570178444131300,2,1,-8,-5,-10,-3,1,3
1570178444131300,11,21,6,-2,-9,-5,8,13
1570178444152251,-5,12,-3,-3,4,4,0,-1
1570178444152251,-7,-5,11,4,6,3,14,-9
1570178444153755,4,19,-8,-2,-2,-4,2,5
1570178444153755,11,25,15,4,-4,-2,-9,-18
1570178444167204,-19,-63,-2,10,11,6,6,14
1570178444167204,1,-17,-5,-5,-6,-6,1,-6
1570178444175185,-20,-19,-10,-1,-2,0,-8,-10
1570178444175185,3,27,-23,-13,-4,1,17,-10
1570178444190142,-7,9,13,6,3,-7,-5,-17
1570178444190142,21,2,13,1,2,3,-4,24
1570178444191140,-3,-11,-17,-10,-7,-2,-3,-10
1570178444191140,-24,-11,-11,0,-4,-6,-22,-30
1570178444213082,17,44,13,5,4,7,14,-6
1570178444213082,5,-6,2,3,-1,0,8,-53
1570178444214079,-8,-34,-22,-7,3,0,-8,-39
1570178444214079,-12,-12,0,0,-3,-1,-2,-16
1570178444236020,6,4,-2,-4,-2,-3,-2,17
1570178444236020,7,9,6,5,5,4,0,22
1570178444237018,-15,9,17,3,0,0,16,46
1570178444237018,0,-9,-13,-5,-2,-1,-3,28
1570178444249983,-2,7,-2,-4,0,-2,-9,26
1570178444249983,0,-6,-8,-4,-2,-2,-1,23
1570178444250981,6,-12,0,1,1,1,13,18
1570178444250981,-26,-2,2,-1,-2,0,12,10
1570178444273008,31,37,8,1,0,1,-20,8
1570178444273008,-15,-28,4,3,0,-1,-3,6
1570178444273008,4,2,1,2,-2,-3,-19,13
1570178444273008,3,-19,-12,-7,-1,0,13,16
1570178444286889,-12,-20,-2,0,0,-3,-3,-12
1570178444286889,24,30,23,5,2,-1,-5,22
1570178444294864,-11,-3,7,1,-1,0,13,-22
1570178444294864,23,4,-1,-1,0,-1,-3,0
1570178444309823,4,12,-7,-5,-2,-1,6,9
1570178444309823,-24,-9,-6,1,3,3,-13,-13
1570178444310920,-9,-2,2,-3,-4,-5,-6,0
1570178444310920,11,20,2,0,0,3,-3,7
1570178444332836,-18,-21,-5,-4,0,-5,-6,-16
1570178444332836,-2,3,-3,-2,-1,2,37,-10
1570178444333758,-4,5,3,-2,1,3,0,26
1570178444333758,-4,-11,1,3,1,-2,-21,10
1570178444355699,-8,-8,-8,-4,-5,3,30,-12
1570178444355699,-1,-4,-11,-5,-2,-6,-48,14
1570178444356696,4,7,10,5,2,2,9,-9
1570178444356696,7,7,7,0,-3,-2,1,-1
1570178444370659,3,1,0,2,1,1,-5,5
1570178444370659,-7,1,-8,-5,-1,4,13,-15
1570178444370703,2,4,0,1,-2,-6,2,-42
1570178444370703,-5,-4,-1,0,0,0,-3,-15
1570178444392601,4,8,11,6,3,0,1,-60
1570178444392601,-9,-11,-8,-2,-1,-2,-5,-29
1570178444393596,9,2,-3,-3,-4,-2,-19,-22
1570178444393596,-4,1,3,1,-2,0,27,-21
1570178444415538,-3,-5,-9,-2,0,0,-22,39
1570178444415538,-1,3,3,1,-9,-3,20,23
1570178444416536,6,2,4,-4,-11,-2,-23,26
1570178444416536,-7,-2,0,0,-6,-2,-4,-6
1570178444430500,-1,-5,-6,-9,-10,0,19,13
1570178444430500,0,0,0,1,2,9,26,9
1570178444430500,-2,-3,-4,2,-5,-14,-1,-5
1570178444430500,3,2,3,-2,9,4,-20,8
1570178444452442,2,1,-4,-1,-20,-5,12,2
1570178444452442,7,1,0,3,38,0,-30,20
1570178444453440,0,1,0,-10,-42,4,29,3
1570178444453440,-6,-6,-5,-7,-11,-3,9,0
1570178444475514,4,5,6,-5,-18,-15,-30,3
1570178444475514,-4,-2,-4,1,19,1,7,-9
1570178444476376,-8,-9,-4,2,13,0,13,-51
1570178444476376,13,6,1,6,18,8,-12,36
1570178444490340,5,5,5,5,-19,1,-11,3
1570178444490340,-2,-1,2,0,-25,-10,-2,-1
1570178444491337,-4,-3,-2,5,54,17,-7,-13
1570178444491337,-2,-1,0,2,-25,-1,21,-3
1570178444512337,-1,-4,-9,-10,18,-9,-6,-6
1570178444512337,3,3,-1,-6,-51,-2,9,8
1570178444513276,1,2,1,-1,23,-10,6,18
1570178444513276,3,3,6,9,29,4,-22,-4
1570178444536217,-3,-7,-4,14,34,19,2,5
1570178444536217,-3,-1,2,-5,-8,-12,11,-6
1570178444536217,2,1,-2,-4,-44,0,1,10
1570178444536217,0,2,3,6,50,1,-31,1
1570178444550178,-5,-3,-6,-13,-41,-7,20,-12
1570178444550178,3,0,-3,-7,-2,-5,10,8
1570178444551177,-5,-5,-8,-5,-11,3,18,-1
1570178444551177,11,7,6,10,-10,8,9,40
1570178444572122,-1,-1,1,-4,12,-19,-29,-10
1570178444572122,5,5,4,14,31,12,-15,-7
1570178444573218,-7,-8,-5,-14,-15,-12,11,-57
1570178444573218,-9,-3,0,-5,-21,-4,-18,-27
1570178444596196,4,3,3,7,5,11,9,9
1570178444596196,-10,-9,-8,-9,1,-12,0,8
1570178444597055,6,0,-3,-3,15,-3,-18,-3
1570178444597055,0,-5,-6,-5,-13,4,30,-11
1570178444610020,1,7,8,5,-1,1,-23,15
1570178444610020,-6,-1,1,-3,-11,-5,-25,-13
1570178444611018,4,5,1,9,11,10,19,31
1570178444611018,-5,0,-8,-9,-3,-7,-10,-9
1570178444632964,-3,-12,-2,-3,-4,0,2,1
1570178444632964,3,-1,-3,3,14,8,14,7
1570178444632964,0,-3,-1,-2,-10,-2,-16,15
1570178444632964,-4,-1,-6,-7,-14,-8,2,-24
1570178444655905,-2,4,-4,0,14,0,-4,-15
1570178444655905,1,7,7,1,-8,5,0,-10
1570178444656895,6,-3,-8,3,6,1,6,14
1570178444656895,-4,-3,13,1,-5,-8,-1,-17
1570178444669865,-12,-16,-6,0,6,2,5,-5
1570178444669865,-6,-4,1,0,1,3,4,-1
1570178444670955,0,5,-1,0,-4,0,-9,14
1570178444670955,8,7,-2,-1,5,1,-7,-5
1570178444692803,9,11,1,-2,0,1,7,9
1570178444692803,-13,-5,-2,-3,-7,-5,3,-10
1570178444693796,5,13,6,3,6,4,4,-3
1570178444693796,5,-6,-6,-4,-8,-5,-15,12
1570178444715744,8,-1,-4,-6,0,-1,1,-9
1570178444715744,-15,-2,-2,0,1,2,8,-8
1570178444716869,13,-12,7,9,5,2,-18,17
1570178444716869,-10,13,3,-1,0,2,10,-2
1570178444730717,5,5,-3,-2,-1,5,13,3
1570178444730717,23,8,-7,-5,1,-6,-22,-10
1570178444730717,4,5,5,0,1,4,0,27
1570178444730717,-31,-26,-7,-1,-4,-4,13,4
1570178444752643,-25,-4,3,5,3,1,-15,-1
1570178444752643,-9,-1,12,5,-1,0,8,-13
1570178444753820,12,-8,-9,-4,-3,-5,-6,-17
1570178444753820,15,-3,-9,-10,-3,-6,-4,6
1570178444775588,-1,19,17,7,5,2,-2,11
1570178444775588,3,2,2,1,2,3,13,10
1570178444776606,-6,25,17,7,1,0,-28,10
1570178444776606,8,-26,-12,-1,1,1,9,3
1570178444790539,-10,-15,-11,-9,-3,-1,10,-10
1570178444790539,12,-2,-3,-1,-1,-1,-13,9
1570178444791537,-11,8,6,5,2,-1,8,-6
1570178444791537,10,-2,-1,-4,-6,-1,2,-29
1570178444812481,-21,-14,-2,1,0,1,-7,6
1570178444812481,3,-5,-8,-2,-5,1,14,-13
1570178444813477,-28,-12,-5,-3,1,0,-5,-6
1570178444813477,0,23,21,9,3,0,-1,-1
1570178444835417,17,1,-9,-6,-2,-2,-3,2
1570178444835417,4,-5,-7,-6,-3,1,-2,56
1570178444836415,-6,1,1,-2,-1,-1,-5,-11
1570178444836415,1,-3,-6,0,-1,0,12,16
1570178444850378,20,13,13,9,6,0,0,-2
1570178444850378,-13,-13,-2,0,-2,0,12,-3
1570178444851375,-6,-34,-12,-6,-3,-7,-6,-14
1570178444851375,0,2,1,-3,-1,-3,-24,53
1570178444873875,0,13,-5,0,1,4,17,1
1570178444873875,10,7,-4,-3,-3,-4,-7,-7
1570178444874314,20,26,28,10,1,2,-4,13
1570178444874314,-24,4,-4,-3,-5,-2,6,-24
1570178444896254,70,8,-1,0,-1,-1,-2,-9
1570178444896254,-12,-10,1,3,4,1,-8,3
1570178444897252,4,-12,-14,-9,-6,-2,-1,-14
1570178444897252,3,-7,-2,-2,-17,-1,4,-11
1570178444910217,-28,2,-2,-1,1,-10,-14,-41
1570178444910217,28,12,3,-7,-59,2,8,2
1570178444911273,-20,-14,-10,8,59,-3,15,-30
1570178444911273,7,19,16,-2,20,4,-24,8
1570178444933156,0,2,-21,-11,-7,-3,17,0
1570178444933156,-16,-11,11,3,0,-3,0,-16
1570178444934153,-6,-6,-9,-6,-23,-1,2,-41
1570178444934153,2,1,5,9,2,3,10,7
1570178444956095,3,-1,0,-3,6,1,2,25
1570178444956095,-6,-4,-1,3,1,-1,-3,10
1570178444963076,14,16,7,0,-7,-1,-20,35
1570178444963076,-16,-9,-5,1,17,3,7,-5
1570178444969061,-30,-19,-8,-3,-22,-6,-11,-16
1570178444969061,10,11,-2,-1,7,0,-2,1
1570178444978041,14,11,4,-2,-3,3,18,-1
1570178444978041,10,-16,-6,0,-6,-1,-1,-9
1570178444992998,-29,-8,7,2,1,0,-7,0
1570178444992998,-10,-5,-4,0,14,-2,-8,-7
1570178444992998,26,9,2,4,7,5,-1,51
1570178444992998,-3,3,-3,-4,-12,-2,2,-16
1570178445015935,2,-3,2,-2,0,2,10,11
1570178445015935,3,1,-2,0,4,-3,-15,-12
1570178445016932,-7,-1,0,-5,-16,-3,1,-7
1570178445016932,-4,3,2,3,7,0,10,3
1570178445029904,6,-4,-3,1,4,1,-7,-23
1570178445029904,0,4,0,-1,12,3,10,10
1570178445037877,3,-2,1,-1,-14,-1,-14,32
1570178445037877,-5,0,-1,-2,-8,-2,-3,-7
1570178445052899,0,0,1,-2,1,-1,6,-3
1570178445052899,0,3,-1,0,0,-2,-11,-6
1570178445053834,-14,-7,-4,-1,-3,0,13,-20
1570178445053834,28,5,5,4,4,0,-16,47
1570178445075777,6,5,3,3,2,4,-7,37
1570178445075777,-11,-6,-4,-2,-1,-1,7,2
1570178445076773,-4,-6,-4,-3,-2,2,8,5
1570178445076773,-4,3,-3,-2,1,-1,12,-12
1570178445098735,-6,-2,2,0,-2,-1,8,-2
1570178445098735,4,-1,-2,-3,0,-1,-8,3
1570178445098735,-6,-5,-3,-3,-5,-3,5,-52
1570178445098735,8,1,-5,-1,-1,-1,1,8
1570178445112680,-8,-4,1,-2,-4,0,10,14
1570178445112680,-8,-1,-1,-1,2,-3,-3,-18
1570178445113673,6,2,-1,1,-6,2,-7,42
1570178445113673,-8,-1,-1,1,4,-5,3,-17
1570178445135616,6,-2,1,0,2,7,-2,-4
1570178445135616,-6,-1,-2,0,9,1,-1,-7
1570178445136752,-1,-1,-1,-4,-22,-3,0,-11
1570178445136752,-2,1,-2,-2,1,-3,-1,-20
1570178445149580,-1,-1,-2,4,-3,0,-5,10
1570178445149580,1,-1,-1,-6,-8,1,-3,3
1570178445157556,6,-4,-6,-2,10,3,2,0
1570178445157556,-3,-1,4,3,-2,1,3,-5
1570178445172711,-2,1,2,-2,-3,-4,0,-13
1570178445172711,15,7,3,8,8,0,-29,22
1570178445173516,-1,3,3,-1,-2,0,1,26
1570178445173516,-2,-6,-4,-3,-4,0,-5,-2
1570178445195455,-5,-1,4,2,5,-1,-1,-3
1570178445195455,2,1,-1,-1,-1,-1,3,0
1570178445196524,8,2,-2,-4,0,-3,0,13
1570178445196524,0,2,2,-1,-6,0,-13,23
1570178445209418,1,-5,-3,0,7,-3,1,-7
1570178445209418,10,5,-1,-6,-7,-2,6,-3
1570178445217402,-8,-8,-3,-1,-13,0,1,-6
1570178445217402,-3,-7,-9,-3,1,-5,7,-19
1570178445232359,-4,1,-1,-2,-11,1,2,-10
1570178445232359,0,-3,0,0,11,2,6,-2
1570178445233355,13,9,0,2,0,-2,1,-12
1570178445233355,-7,-6,-2,-7,-5,-3,4,9
1570178445256292,6,1,-6,-6,-5,-1,-4,4
1570178445256292,-9,-1,3,5,0,-3,1,-6
1570178445256292,-10,2,11,13,11,3,0,0
1570178445256292,11,4,-5,-13,-22,-9,-3,-12
1570178445278306,-13,-6,-5,0,11,-15,-13,-10
1570178445278306,17,-5,-8,-5,-5,-3,4,-8
1570178445279528,-42,-12,-2,0,1,-4,5,-33
1570178445279528,2,1,0,3,1,1,-7,-23
1570178445292197,13,8,5,5,10,7,7,32
1570178445292197,-16,-4,-3,-1,-13,-4,10,-5
1570178445293194,33,8,-2,0,7,-1,-4,29
1570178445293194,-27,-3,2,0,-9,0,12,-10
1570178445316137,19,3,-3,-5,-1,-3,-12,17
1570178445316137,46,12,-4,0,2,2,1,17
1570178445317131,-80,-28,-4,-3,1,-3,6,-47
1570178445317131,-2,2,0,6,3,1,-12,13
1570178445346054,-31,-18,-6,-3,-2,0,0,-8
1570178445346054,3,3,-1,1,0,0,0,-31
1570178445347050,10,-1,-2,-2,-3,0,-2,-2
1570178445347050,42,8,2,1,8,0,-3,11
1570178445352403,-39,-6,0,1,0,-1,13,-25
1570178445352403,8,2,0,-2,-2,-4,-15,-31
1570178445361014,28,1,-3,-6,-2,0,-2,11
1570178445361014,-26,-2,2,3,1,0,0,-15
1570178445375972,-17,2,-4,-4,-4,0,1,6
1570178445375972,-24,0,2,-5,-4,1,4,9
1570178445376970,7,-23,-4,2,2,-1,-4,-1
1570178445376970,15,-7,-4,-2,3,3,3,14
1570178445397914,9,2,1,-1,-5,-2,-5,-17
1570178445397914,-12,7,-1,0,-1,0,9,26
1570178445399948,16,14,3,-1,2,-1,-17,2
1570178445399948,-22,7,5,-1,1,1,3,-19
1570178445411917,25,-6,-1,7,3,4,2,2
1570178445411917,2,-6,-5,-2,7,1,-3,-8
1570178445428832,10,5,0,-4,-17,-1,5,-1
1570178445428832,9,1,-5,-6,-2,3,22,-2
1570178445435814,94,44,12,7,-3,-1,-13,98
1570178445435814,-64,-35,-1,13,23,10,-5,-13
1570178445437805,-80,-40,-4,-2,3,0,6,-33
1570178445437805,9,0,-4,-5,-1,-3,-1,-19
1570178445458755,-15,-7,-7,-6,-5,1,0,-41
1570178445458755,32,39,7,2,-6,-6,8,-14
1570178445459747,7,7,20,8,5,1,2,19
1570178445459747,-25,-25,-5,3,0,-1,-9,-11
1570178445471725,20,9,3,-3,-6,-2,0,4
1570178445471725,-51,-37,-20,-11,-7,-4,-7,-28
1570178445480693,-4,14,-4,-2,-3,1,-5,38
1570178445480693,21,25,12,6,0,1,-1,26
1570178445495975,14,8,4,3,3,1,-7,45
1570178445495975,12,2,7,4,-1,6,2,42
1570178445497650,-16,-14,-11,-8,-4,-5,-6,-18
1570178445497650,37,12,-10,-7,-1,2,-2,20
1570178445518595,-36,-26,-2,0,-5,1,5,-12
1570178445518595,1,4,5,0,0,-3,-3,-1
1570178445519641,95,39,-4,-3,7,-2,-10,11
1570178445519641,-67,-33,-1,7,-1,-4,-6,-5
1570178445531555,-18,11,-2,-4,7,-8,-10,-62
1570178445531555,15,-5,8,4,-17,-2,-1,7
1570178445540541,17,-6,-13,-4,7,-1,4,-2
1570178445540541,33,28,13,3,3,2,-7,15
1570178445555492,-43,-30,-11,-15,-14,-8,-6,-71
1570178445555492,1,1,0,5,13,5,23,-22
1570178445557487,-1,18,6,6,-1,-1,-8,-2
1570178445557487,7,-9,-1,3,6,-2,6,-47
1570178445578431,25,10,6,4,2,2,6,-26
1570178445578431,9,-26,-17,-15,-13,-13,-13,-33
1570178445580425,-4,-3,-5,-11,-10,2,13,7
1570178445580425,-19,-3,-2,-3,5,2,0,-8
1570178445592393,36,4,-3,5,1,-1,4,27
1570178445592393,-25,5,-1,-7,-3,-3,-6,33
1570178445601373,-24,-3,2,5,5,0,9,-75
1570178445601373,35,15,7,0,0,1,-1,55
1570178445616332,0,-6,-7,-1,-5,2,1,-12
1570178445616332,-23,-20,-2,-2,7,2,-1,-20
1570178445617742,-11,-8,-1,3,1,2,18,-22
1570178445617742,-27,-21,-9,-4,-1,-4,6,-7
1570178445638270,30,26,1,3,3,6,6,18
1570178445638270,0,-12,-8,-1,-1,23,-1,13
1570178445640266,13,7,-8,-3,-1,-17,-10,1
1570178445640266,42,27,-5,-8,-9,-3,-2,-16
1570178445652300,-59,-34,-8,-2,0,-6,-4,-7
1570178445652300,48,18,-2,-5,3,-1,3,15
1570178445661210,-31,-5,-1,-1,-3,10,-1,0
1570178445661210,1,-8,1,-5,0,-1,-6,-51
1570178445676172,-32,-4,4,-13,-4,-8,-4,-81
1570178445676172,31,6,10,10,1,-6,-3,-53
1570178445677166,-72,-26,0,-6,-10,-10,-12,-98
1570178445677166,10,-1,-6,-8,10,1,1,-1
1570178445698110,-14,-5,11,0,-3,7,2,-6
1570178445698110,9,21,2,-6,-8,-4,-11,7
1570178445700106,9,-5,4,17,8,3,1,74
1570178445700106,-3,-2,4,11,-15,-2,4,62
1570178445712126,3,-2,-7,6,9,-1,9,112
1570178445712126,-12,6,1,1,-3,5,-4,104
1570178445721051,26,14,1,1,0,7,-3,68
1570178445721051,-20,-17,-4,1,-3,-2,0,62
1570178445736116,24,11,1,-6,-11,-6,-1,61
1570178445736116,-23,-6,-4,-4,15,-7,-1,45
1570178445737007,30,12,-3,-10,-6,15,4,64
1570178445737007,-19,-15,-3,-1,-3,-3,-9,53
1570178445757951,1,10,15,6,-1,2,6,5
1570178445757951,19,8,5,-4,-2,-8,-13,27
1570178445760119,6,-3,4,2,-1,6,-7,74
1570178445760119,-11,-1,-3,-4,5,-10,-3,37
1570178445772027,9,-2,2,4,-5,-13,2,28
1570178445772027,-21,-14,-4,-3,-1,-4,9,-61
1570178445780891,28,15,3,-1,9,0,3,-31
1570178445780891,-10,2,-1,-5,2,0,-7,-79
1570178445795850,11,-5,-5,-1,-5,-2,-12,-45
1570178445795850,-21,4,1,7,-3,-3,-1,-57
1570178445798298,4,-5,-2,-1,-9,-7,6,-29
1570178445798298,-9,1,6,13,29,-7,-8,-38
1570178445818791,-3,0,-3,-1,4,14,3,-40
1570178445818791,6,-5,-4,2,-3,-7,2,3
1570178445819787,26,6,1,2,-6,8,2,-14
1570178445819787,-34,-17,-5,-2,-5,3,11,-59
1570178445831784,22,12,-2,-2,4,5,-12,-16
1570178445831784,8,2,0,-1,-7,-4,-12,-1
1570178445840733,-21,-7,-1,-2,-10,-7,4,-38
1570178445840733,9,7,3,5,18,8,4,4
1570178445855694,12,6,-4,3,8,11,3,11
1570178445855694,-41,-26,-2,1,-14,-3,4,-26
1570178445857855,-5,-4,-3,-6,-6,6,-9,-14
1570178445857855,4,2,-5,0,19,-15,-2,9
1570178445878628,-15,-8,-3,-4,-22,-8,5,75
1570178445878628,16,6,1,-6,14,-1,2,58
1570178445879626,-2,4,2,-5,7,-3,1,37
1570178445879626,10,0,1,-1,-17,8,1,-11
1570178445891593,-8,-4,-2,3,7,-1,0,-27
1570178445891593,2,6,-1,5,-6,1,3,-14
1570178445900570,-19,-9,-3,0,-1,-5,16,-28
1570178445900570,30,7,0,15,-8,6,-12,31
1570178445915577,-17,-7,-6,4,4,-7,-2,-49
1570178445915577,-1,2,2,2,-7,4,0,-5
1570178445917523,-5,-3,-1,2,9,-2,1,-10
1570178445917523,-1,3,3,-7,-10,3,8,-4
1570178445938467,-4,-5,-3,-4,-1,-1,2,-3
1570178445938467,1,0,-1,6,1,2,0,-11
1570178445940466,17,5,2,-3,6,-4,-17,5
1570178445940466,1,4,1,-9,-10,-1,0,-5
1570178445952431,-6,-5,-2,-9,-2,0,2,-16
1570178445952431,9,6,0,-7,3,1,-5,8
1570178445961407,16,6,3,7,3,-4,-8,62
1570178445961407,-2,-4,-1,0,-10,0,1,7
1570178445975478,2,-1,3,2,1,-2,-14,-11
1570178445975478,0,0,0,-2,0,0,4,-6
1570178445977365,2,-1,0,-1,-3,-2,0,19
1570178445977365,-7,-1,-1,-4,-3,-1,-7,12
1570178445998309,4,0,-1,-4,3,0,2,36
1570178445998309,-2,1,-1,-3,-1,-1,-3,-1
1570178446000302,0,-2,0,-2,-1,-1,-2,2
1570178446000302,-11,1,-1,-3,-5,1,7,-24
1570178446012273,-5,-2,-3,4,2,0,14,-26
1570178446012273,12,3,0,1,-2,2,10,81
1570178446021249,-6,-4,-2,-2,0,0,2,-6
1570178446021249,1,0,-3,-3,-2,0,0,19
1570178446034214,-8,-3,-1,-1,-1,-4,-4,8
1570178446034214,-5,-2,-3,-2,2,0,-2,-19
1570178446043190,9,2,0,4,3,-1,-9,15
1570178446043190,0,1,0,0,-1,1,-1,-13
1570178446059262,-2,-3,-2,-2,1,-3,-5,-9
1570178446059262,-6,-2,-1,-3,-3,-1,6,-60
1570178446060150,-2,1,3,1,-2,-5,-8,-17
1570178446060150,-1,-3,-1,1,-4,-1,-1,-21
1570178446072112,0,-1,0,-2,0,1,0,-6
1570178446072112,-3,-1,-2,-3,-1,0,-3,-22
1570178446081107,-10,-1,-1,2,-1,2,8,-34
1570178446081107,15,1,-1,2,-1,3,7,61
1570178446096047,-3,-1,2,-1,-1,0,-2,2
1570178446096047,0,0,0,0,-1,-1,0,3
1570178446097044,-6,-3,-3,-6,0,0,-1,-12
1570178446097044,-1,-1,1,0,0,0,-4,-11
1570178446117992,-7,-1,0,1,-1,0,-4,-17
1570178446117992,0,-1,-2,2,-1,-1,-5,-4
1570178446119983,-9,-2,0,-2,-2,-2,1,-19
1570178446119983,-18,-6,-6,-6,-4,-1,25,-33
1570178446131950,7,0,-1,0,2,2,-1,47
1570178446131950,-9,-2,0,-1,-1,0,2,-14
1570178446140927,12,0,-1,1,0,-2,2,15
1570178446140927,1,1,1,-1,0,0,-3,-3
1570178446155888,1,1,0,-2,-2,-4,-2,-5
1570178446155888,-2,-1,-2,-1,0,-1,-1,-9
1570178446157881,-4,-2,-2,-1,1,1,5,3
1570178446157881,3,1,-1,-1,-2,-3,-15,-3
1570178446178936,-3,-1,-2,-1,-1,-1,1,-18
1570178446178936,1,-1,0,0,-1,-2,0,-12
1570178446180820,-2,-1,-2,-1,0,-1,0,-3
1570178446180820,2,0,0,1,0,-1,-5,-2
1570178446191794,-5,-2,-1,-2,0,0,-3,-10
1570178446191794,-4,-4,-2,-1,0,1,6,-2
1570178446200766,0,-2,-1,1,0,-2,-3,-2
1570178446200766,2,1,1,0,-1,0,0,6
1570178446215728,-3,-1,0,-1,-1,1,12,-11
1570178446215728,11,4,4,2,3,1,-10,18
1570178446217721,0,-1,-2,-1,-1,0,1,1
1570178446217721,7,3,3,1,-3,-3,-6,38
1570178446238667,4,1,0,3,-1,-2,-9,0
1570178446238667,-2,-2,-3,-2,0,-2,1,7
1570178446239663,0,0,-1,1,-1,2,-2,-13
1570178446239663,4,2,1,-2,-3,-1,3,0
1570178446260790,5,1,-2,0,0,1,-1,30
1570178446260790,1,-1,1,-1,0,-1,-1,14
1570178446262603,0,1,0,0,-1,0,-1,11
1570178446262603,-6,-2,-3,-3,-1,1,2,-12
1570178446276380,-3,-4,-2,-1,-2,-3,3,-14
1570178446276380,9,4,2,3,1,0,-8,27
1570178446277561,-2,0,1,1,0,2,6,3
1570178446277561,-5,-2,-1,1,1,-4,-6,-20
1570178446298737,-3,0,-1,-1,0,-2,0,-1
1570178446298737,1,-1,-2,-1,-3,-1,-2,-6
1570178446300500,0,-2,-2,-3,-3,1,-1,-1
1570178446300500,2,0,0,-1,1,2,-2,5
1570178446320482,-1,1,0,0,-2,0,-3,-7
1570178446320482,-2,-1,-2,-2,-2,0,2,-2
1570178446322444,2,1,-2,0,0,-1,-4,2
1570178446322444,-2,-2,-2,0,-1,0,0,-6
1570178446335406,1,0,0,1,0,-1,-1,3
1570178446335406,-8,-2,-2,-1,0,-3,-7,-16
1570178446349608,-5,-3,-2,-2,-2,-2,4,-17
1570178446349608,-5,-5,-2,-2,-2,0,3,-19
1570178446358538,0,-2,-2,-2,1,0,-2,4
1570178446358538,0,-1,0,0,-1,-2,1,10
1570178446360340,-3,-3,1,-4,-3,-3,-4,-6
1570178446360340,-3,0,-1,-2,-1,-2,-4,-5
1570178446381284,4,-1,-1,-1,-1,0,1,4
1570178446381284,-1,-2,-2,-4,0,0,4,-9
1570178446382597,-3,0,0,-3,-1,-1,-1,-1
1570178446382597,4,0,-2,-2,0,0,1,15
1570178446395532,3,1,-1,0,-1,-1,2,5
1570178446395532,-3,0,-1,1,1,-2,-2,1
1570178446402236,1,1,-1,1,0,-2,-3,3
1570178446402236,0,0,1,2,1,0,0,7
1570178446418653,-3,-3,0,0,-1,-1,-1,-7
1570178446418653,7,2,2,0,-1,-2,-12,8
1570178446420180,5,3,0,1,2,-1,-4,14
1570178446420180,-3,0,2,0,-1,-2,-2,-6
1570178446441130,-2,0,-1,-1,0,0,-1,-5
1570178446441130,-2,-2,-2,-1,0,1,6,-5
1570178446442120,-5,-2,-2,-1,1,-1,1,-7
1570178446442120,7,0,-1,1,1,0,-1,11
1570178446455518,-2,0,0,1,-1,-1,-2,-3
1570178446455518,1,0,0,1,-2,1,1,3
1570178446462070,-3,-1,-3,0,-1,-2,0,-2
1570178446462070,-4,-1,0,0,-2,-1,0,-6
1570178446479027,-1,-2,-1,-2,-2,-1,-1,6
1570178446479027,-2,-1,1,2,-1,1,2,-6
1570178446480020,-1,-3,-3,-6,-2,0,4,3
1570178446480020,-3,0,-2,-12,0,-1,-1,-3
1570178446500966,-7,-6,-4,-8,-3,-3,3,-18
1570178446500966,-2,-2,-2,-3,-1,-1,2,0
1570178446501965,-2,-2,-1,4,0,0,-2,-7
1570178446501965,3,0,-1,4,0,1,1,12
1570178446514926,-2,3,0,4,0,-3,-5,-8
1570178446514926,-2,0,-2,2,-2,0,1,-3
1570178446521909,0,-1,-1,1,-1,0,-1,3
1570178446521909,-5,-1,-2,1,-1,0,1,-14
1570178446538864,-2,-2,1,2,1,0,-2,5
1570178446538864,1,1,-2,2,0,-2,-1,1
1570178446539866,0,1,1,0,-1,0,-3,1
1570178446539866,-1,0,0,2,0,-1,-3,0
1570178446560806,4,-1,1,2,1,-1,0,3
1570178446560806,5,-2,-1,-2,-1,-1,2,13
1570178446562799,-5,-2,-1,-2,-1,-1,-2,-20
1570178446562799,4,2,-2,0,-1,1,-1,4
1570178446575766,-1,1,-1,0,0,-1,-1,1
1570178446575766,-4,-1,0,-2,-1,-2,0,-8
1570178446581748,-3,1,-1,0,0,0,1,-7
1570178446581748,9,0,-3,-1,-1,-2,0,19
1570178446598703,-3,-1,-1,0,-1,1,-3,-10
1570178446598703,-1,-2,-1,-4,0,-1,1,0
1570178446600351,-2,-2,-1,0,-1,1,8,-1
1570178446600351,-4,0,0,-1,-2,-1,-4,-6
1570178446619655,-1,1,0,0,-1,-1,-2,2
1570178446619655,-2,0,-1,0,-2,-1,0,-1
1570178446628622,1,0,-2,0,0,-2,-1,1
1570178446628622,-2,-2,-2,-2,0,-2,-1,-9
1570178446634609,3,-2,-1,0,1,-1,0,5
1570178446634609,-2,-1,0,-2,0,2,0,-9
1570178446643582,3,0,2,0,-1,-1,-2,10
1570178446643582,2,0,-1,1,0,-2,-11,10
1570178446658587,-2,0,-1,0,-2,0,-1,-1
1570178446658587,-1,-1,-2,0,-1,0,2,3
1570178446659543,3,-1,-2,-1,-1,-2,-4,4
1570178446659543,-3,-2,-2,-1,-3,-1,2,-6
1570178446680485,-1,-2,-2,-1,0,0,0,2
1570178446680485,-1,-2,1,-1,-2,-1,-3,-1
1570178446682701,1,0,0,-1,-1,-1,0,4
1570178446682701,-4,0,0,-2,1,0,2,-7
1570178446695546,-1,1,0,0,0,0,0,1
1570178446695546,-8,-4,-4,-1,-1,1,4,-25
1570178446702425,6,-2,-2,-1,-1,-2,-2,7
1570178446702425,1,0,0,0,-1,0,3,-1
1570178446718549,2,0,-3,-1,-1,0,1,7
1570178446718549,0,0,0,-1,0,-2,-1,4
1570178446721376,-1,1,1,-1,-1,1,-2,-1
1570178446721376,-3,-3,-1,0,0,1,0,-4
1570178446741321,0,-1,-1,-2,-2,-1,-1,-6
1570178446741321,0,1,-2,-1,0,0,-2,0
1570178446742319,-7,-2,-5,-1,-2,-1,6,-8
1570178446742319,-6,-2,-2,-1,-2,1,9,-7
1570178446754377,1,-1,0,-1,-1,-1,-1,2
1570178446754377,3,0,0,0,1,-1,-2,5
1570178446763263,0,-2,0,-2,-3,0,-2,4
1570178446763263,1,0,0,1,1,1,3,10
1570178446778267,0,0,-1,-2,1,-1,2,0
1570178446778267,0,0,-1,-1,-1,-1,0,-1
1570178446780670,2,2,0,1,0,0,1,-2
1570178446780670,-1,0,0,-1,0,-2,-4,-5
1570178446801264,1,-1,0,0,-2,-2,-2,4
1570178446801264,-4,-2,-1,1,-1,-2,-5,-17
1570178446802765,4,0,-1,-2,1,2,4,8
1570178446802765,4,1,1,-1,-2,-1,-3,4
1570178446814126,1,0,0,-1,0,0,0,1
1570178446814126,-2,-2,0,0,0,-1,0,-1
1570178446823102,-2,-1,-1,1,-1,-2,-2,-3
1570178446823102,-1,-3,-2,-1,-1,-1,0,-5
1570178446838065,-1,1,-1,-1,-1,-1,1,-1
1570178446838065,7,2,1,1,0,1,-11,21
1570178446840064,-3,-1,3,-1,-1,0,-3,1
1570178446840064,1,0,2,-2,0,-1,-1,7
1570178446861001,-2,0,-1,-2,-2,0,-1,-6
1570178446861001,0,-1,0,-1,0,-1,2,3
1570178446862071,-1,-1,-3,-2,-1,-3,-2,-1
1570178446862071,-4,-3,-2,0,-1,-1,-4,-6
1570178446874964,0,-1,-3,-1,-2,0,1,-1
1570178446874964,-2,-1,0,-2,0,-1,3,-1
1570178446882943,-1,0,-1,-2,-1,0,-1,-1
1570178446882943,-2,1,1,1,-1,0,2,-7
1570178446897905,2,1,1,0,1,1,-6,-2
1570178446897905,1,2,0,0,0,-2,2,6
1570178446899897,0,0,-2,-2,-1,-2,-4,0
1570178446899897,-1,-1,-2,-1,1,-2,-1,-4
1570178446920841,0,-1,-2,-2,0,-2,0,-3
1570178446920841,0,-1,0,0,-1,-1,-1,-5
1570178446922837,3,0,1,-1,-2,0,0,0
1570178446922837,0,0,0,-1,-1,-1,0,1
1570178446934915,-7,-2,-4,-2,0,0,11,-13
1570178446934915,-1,-2,-6,-2,0,-2,-1,-7
1570178446944037,1,1,-1,-1,1,-1,1,7
1570178446944037,1,0,0,0,-2,-1,-1,-2
1570178446958029,1,0,0,-1,-2,-2,0,3
1570178446958029,-3,-2,1,-2,-1,1,0,-5
1570178446960024,-1,-2,0,-1,-1,1,0,-3
1570178446960024,-2,0,-1,-1,1,-1,1,-4
1570178446981214,-3,-1,1,0,0,-1,-2,1
1570178446981214,1,-1,-1,0,-2,0,3,15
1570178446982370,1,-1,0,0,0,-1,-3,-1
1570178446982370,-4,-4,-1,0,-1,1,-2,-5
1570178446994422,-4,-2,-1,-2,-1,-1,0,3
1570178446994422,-1,-1,-1,-2,0,-2,-1,-3
1570178447003248,-1,0,0,-2,-3,-1,0,-1
1570178447003248,-2,0,-1,-2,0,0,0,-2
1570178447018293,1,-1,0,0,0,1,-2,2
1570178447018293,0,0,-1,-1,0,0,1,-3
1570178447020205,1,1,0,1,-1,-3,-13,1
1570178447020205,3,1,-1,0,0,-1,-1,18
1570178447041356,0,-1,1,-2,-3,-3,-1,1
1570178447041356,1,1,0,0,0,0,0,5
1570178447042625,-2,-1,-1,-1,-1,0,1,-2
1570178447042625,0,-1,-1,0,-1,0,-2,-5
1570178447054228,2,1,-2,0,-1,-2,-2,3
1570178447054228,-4,-1,-1,-1,-2,0,-1,-4
1570178447063078,3,-1,-2,-1,-1,1,4,-2
1570178447063078,-1,0,1,0,0,-1,-2,-3
1570178447078046,-1,-1,-1,-2,2,-1,3,1
1570178447078046,2,0,1,-2,-1,0,-1,-1
1570178447080142,-4,-2,-1,1,-1,-1,1,-3
1570178447080142,2,1,-2,-1,-2,-1,-1,2
1570178447101290,2,1,0,-1,-3,-1,-4,0
1570178447101290,-2,-1,1,0,-1,-1,2,-2
1570178447102651,-4,-2,-1,-1,-2,-1,0,-3
1570178447102651,-2,-2,1,-2,-1,-1,-1,-5
1570178447114383,1,-1,1,1,2,1,1,2
1570178447114383,0,-1,-1,-1,-1,-2,1,-2
1570178447123281,-2,-3,0,-1,-1,-1,2,-2
1570178447123281,-2,-2,-1,-1,-1,0,-1,-1
1570178447138323,4,0,-2,1,-1,1,1,8
1570178447138323,0,-1,-2,0,-1,-1,-1,-1
1570178447140313,-3,0,-1,-1,0,0,4,-4
1570178447140313,2,1,-1,-2,1,-3,-10,2
1570178447161189,-4,-3,-1,-1,-1,-1,-4,-4
1570178447161189,0,-1,0,-1,0,0,2,4
1570178447164143,-3,-1,-1,-1,-1,-1,-4,-13
1570178447164143,0,-3,-1,-1,-1,3,10,3
1570178447183392,-1,-1,1,-2,-1,-1,-3,3
1570178447183392,0,-1,0,-1,-1,0,-1,2
1570178447185292,-1,-1,-1,-2,0,0,-4,2
1570178447185292,-5,1,-1,-1,-2,-1,1,-10
1570178447198353,6,1,-2,-1,0,-1,-2,6
1570178447198353,1,-1,-2,2,0,-2,1,-1
1570178447200287,1,0,-2,1,1,0,0,3
1570178447200287,-2,-1,-1,0,-3,-3,-4,-18
1570178447221277,-2,0,0,0,-2,1,5,-2
1570178447221277,1,0,0,0,0,-2,-5,-3
1570178447222274,0,1,0,-1,0,-1,-1,3
1570178447222274,0,-1,-1,0,0,-1,0,0
1570178447243318,-6,-1,-2,0,0,-2,0,-7
1570178447243318,1,-1,-3,0,0,-1,-11,12
1570178447245314,2,1,1,1,0,1,1,7
1570178447245314,3,1,0,-3,0,0,-2,8
1570178447258278,-1,0,-1,0,-2,1,-2,-3
1570178447258278,-2,0,0,0,0,-2,3,-1
1570178447260274,-1,-2,0,-1,0,-2,1,2
1570178447260274,6,0,0,1,-1,0,-5,13
1570178447281216,-1,-2,-1,1,-2,-2,-1,4
1570178447281216,-1,1,-1,-1,-2,1,5,-5
1570178447282214,0,0,0,-1,-4,-1,-8,1
1570178447282214,1,-1,0,0,-1,0,3,11
1570178447303158,-12,-4,-1,-2,-1,-5,-8,-55
1570178447303158,1,-1,-1,-1,1,1,2,1
1570178447305155,2,0,-1,-1,0,2,1,6
1570178447305155,0,-2,0,-1,0,-2,-6,2
1570178447318118,-3,-2,-1,0,-1,0,8,10
1570178447318118,-4,-1,0,-1,-3,-2,-2,-6
1570178447320113,-2,0,-1,-1,0,-1,3,-5
1570178447320113,7,3,4,3,1,2,3,47
1570178447341060,3,0,1,-2,-1,0,-1,3
1570178447341060,-6,-1,-1,-2,-2,1,14,-5
1570178447342054,8,2,-1,0,1,1,-7,25
1570178447342054,-8,-4,-4,-3,-1,-1,4,-24
1570178447362998,3,1,-2,1,0,0,-2,9
1570178447362998,-1,-1,-1,-1,0,1,-3,3
1570178447364992,-3,-2,0,-1,-3,-1,-2,-17
1570178447364992,-4,0,-1,-1,0,1,-2,-14
1570178447377958,2,-3,-1,-2,0,0,-1,4
1570178447377958,-1,-1,-1,-1,-1,-2,-4,-13
1570178447384939,-2,-1,0,1,0,-3,2,-7
1570178447384939,-1,-1,-2,-1,-1,-1,1,-10
1570178447400895,4,-1,0,0,-1,0,2,8
1570178447400895,-2,-2,0,0,0,-2,-2,0
1570178447402891,-1,0,-1,-2,-1,-2,-1,-6
1570178447402891,-1,0,-2,-1,0,-1,0,1
1570178447422837,-7,-2,-2,-3,-1,-3,-8,-35
1570178447422837,4,2,0,1,0,-2,-2,9
1570178447424832,0,0,-1,-1,-1,-1,1,-1
1570178447424832,-2,-2,1,0,-2,0,0,-9
1570178447438095,-2,1,1,-1,1,1,2,5
1570178447438095,1,0,-1,0,0,-1,-4,-3
1570178447444965,-2,-2,-2,-2,-1,0,0,-4
1570178447444965,-1,-2,-1,-1,-1,-1,0,-7
1570178447460982,9,3,4,2,3,-1,-13,26
1570178447460982,-1,-1,0,-3,-2,-1,2,-1
1570178447462914,-2,0,-3,-1,-1,1,1,1
1570178447462914,0,0,-2,1,-1,0,-1,-4
1570178447482861,-1,-1,-2,-2,-2,1,5,-1
1570178447482861,6,1,1,0,1,-2,-7,10
1570178447484859,-1,0,2,-2,0,-1,-4,-3
1570178447484859,-3,-1,-3,1,0,-2,0,-2
1570178447497820,4,0,0,0,-1,-1,3,15
1570178447497820,-1,-2,-1,-1,0,1,0,-4
1570178447504900,-3,-1,-1,-2,-1,0,4,-5
1570178447504900,1,0,-1,0,1,-2,-3,2
1570178447520846,-5,0,-2,-3,-1,-2,-4,-17
1570178447520846,-5,-1,0,0,-1,0,3,-19
1570178447522755,0,-1,0,0,0,-4,-5,1
1570178447522755,-3,-2,-1,-2,0,0,0,-6
1570178447543326,-1,-1,-1,0,-2,-1,-1,-3
1570178447543326,-1,0,-1,-1,-2,0,0,-3
1570178447545250,-3,-1,-1,1,2,-1,3,0
1570178447545250,0,-2,0,-1,-1,-2,0,-4
1570178447557218,-1,-1,-1,2,-1,-2,3,1
1570178447557218,-1,0,-1,-2,1,0,-1,4
1570178447564198,-1,-1,0,-1,0,0,2,-1
1570178447564198,-5,-2,0,-2,0,1,11,-12
1570178447581152,1,1,1,0,-1,-2,-4,5
1570178447581152,-1,-2,-2,0,-1,-1,1,0
1570178447582258,0,-2,-1,-1,-1,1,0,-1
1570178447582258,-2,0,-1,-1,-3,0,0,0
1570178447604093,-1,0,-1,-1,-1,0,0,0
1570178447604093,-1,1,1,1,-2,-2,-1,0
1570178447605098,-1,-3,-1,-2,-2,-1,0,-3
1570178447605098,2,-1,-1,-1,-1,-2,-3,8
1570178447618055,-5,-3,-3,-2,0,-1,2,-26
1570178447618055,2,0,-2,-1,-1,-1,-3,6
1570178447624042,1,0,-3,2,1,0,1,4
1570178447624042,-2,1,1,1,0,1,-1,-3
1570178447640995,-1,0,-2,0,-1,0,-2,3
1570178447640995,-1,-1,0,-1,-1,-1,1,-2
1570178447641994,1,-2,-1,1,0,0,1,-4
1570178447641994,2,0,-1,0,0,-1,-3,2
1570178447662957,2,-1,-2,-1,0,0,2,7
1570178447662957,-2,0,-1,0,0,0,-1,0
1570178447665030,-7,0,0,0,-1,0,8,-14
1570178447665030,6,2,-1,0,-1,1,-3,10
1570178447676896,-1,-1,-2,-2,0,0,1,1
1570178447676896,0,-1,-2,-1,-1,-1,0,6
1570178447685872,0,-2,-1,-1,-1,0,0,-5
1570178447685872,-4,-1,-1,-2,-1,-1,-2,-7
1570178447700835,2,0,0,0,0,0,0,7
1570178447700835,0,0,1,-1,0,0,0,-6
1570178447702844,0,-1,-1,-2,-1,0,-2,5
1570178447702844,-1,0,0,0,0,0,-2,1
1570178447723770,-1,-1,-1,0,-1,-1,-2,3
1570178447723770,-3,-1,0,0,0,1,1,3
1570178447724895,0,0,-1,0,-1,-1,-2,2
1570178447724895,4,0,0,1,-1,-2,-8,8
1570178447737735,-3,-1,2,0,0,0,0,3
1570178447737735,-1,-1,-2,1,-1,-1,-3,-3
1570178447745827,0,1,0,1,-1,0,-2,3
1570178447745827,-1,-1,-2,-1,0,-1,2,-4
1570178447760677,0,-1,0,-1,-1,0,1,0
1570178447760677,3,1,1,0,-1,1,2,11
1570178447762690,-2,-1,-1,-1,0,-1,-3,-2
1570178447762690,-2,-2,-3,-2,1,1,8,-9
1570178447783615,2,0,-2,0,0,-1,-4,7
1570178447783615,-2,-4,0,-2,-1,-2,-4,-6
1570178447784612,-2,-1,0,-1,-2,-1,-4,-18
1570178447784612,1,-2,-2,-2,-2,-2,1,-2
1570178447796577,-4,-1,0,-1,0,0,1,-4
1570178447796577,0,-2,-2,-2,0,0,2,2
1570178447806550,2,0,-1,-1,0,0,-2,4
1570178447806550,-3,-1,1,0,1,-2,-4,-3
1570178447820514,1,1,1,0,0,-1,-1,1
1570178447820514,1,0,-2,-1,-1,-1,-5,-5
1570178447822910,-3,0,0,-1,0,0,1,3
1570178447822910,-2,-1,-1,-1,-3,1,-1,3
1570178447843453,0,1,0,-2,-2,-1,1,3
1570178447843453,0,0,-1,-1,0,-1,2,-4
1570178447844450,1,-1,-1,-2,-2,-1,0,3
1570178447844450,-2,-2,0,1,-2,0,0,1
1570178447857415,-1,-2,-2,0,-1,1,-2,-1
1570178447857415,0,0,-2,0,-1,0,-1,-4
1570178447866389,2,2,-1,0,-1,0,-2,2
1570178447866389,0,0,0,0,-1,0,-1,2
1570178447881443,-2,-2,0,-1,0,-1,1,-1
1570178447881443,0,-1,-1,-1,-2,-1,1,1
1570178447882347,-2,-1,0,-1,1,-1,0,3
1570178447882347,-1,-1,-2,-2,-1,0,0,0
1570178447903687,-1,-1,0,0,0,-1,0,-4
1570178447903687,-2,-3,-1,1,-1,-1,-2,21
1570178447905285,0,-2,0,-1,-2,-1,-1,27
1570178447905285,0,-1,2,0,-1,-2,-3,7
1570178447917256,-1,-1,8,0,0,1,-1,2
1570178447917256,-2,0,3,0,0,2,0,-8
1570178447926230,0,0,-4,-1,0,-1,0,-15
1570178447926230,1,-2,-3,0,0,-1,0,-7
1570178447941284,1,0,-6,-1,0,0,1,0
1570178447941284,-1,0,-2,-1,1,-1,0,-8
1570178447942187,-5,-1,-1,1,-1,2,7,-16
1570178447942187,-2,-1,-3,1,-1,-1,0,-4
1570178447963133,0,-1,-3,-1,-1,0,0,-5
1570178447963133,2,0,0,1,0,-3,-2,0
1570178447965127,0,-3,-2,-2,-1,-1,1,-2
1570178447965127,-1,-1,0,-3,0,1,1,-5
1570178447977098,-1,0,-1,-3,-1,-3,0,0
1570178447977098,-2,-1,0,-2,-1,1,1,-5
1570178447986235,1,1,0,1,0,-2,-3,-3
1570178447986235,0,-1,-1,-2,0,0,4,-1
1570178448001029,1,-1,-1,-2,-2,-1,-2,9
1570178448001029,-5,-1,-2,-1,-2,-3,-3,-24
1570178448002028,0,-2,0,0,-1,-1,-3,1
1570178448002028,-1,-1,0,0,2,0,-2,4
1570178448022974,-1,-1,-1,-1,-2,-1,1,-3
1570178448022974,1,0,0,0,0,0,0,1
1570178448024966,1,0,-1,0,-2,-3,-2,5
1570178448024966,0,-1,-2,1,-1,-1,-2,-3
1570178448037008,-2,-2,0,0,0,-1,0,-3
1570178448037008,1,-1,0,-2,3,0,-1,5
1570178448045910,0,-1,-1,-2,0,1,0,0
1570178448045910,1,0,2,-1,-1,-1,-2,5
1570178448060915,0,1,-1,-1,0,0,-1,-1
1570178448060915,-1,0,-2,-1,-2,-1,2,5
1570178448062865,6,2,0,0,0,-2,-15,7
1570178448062865,-1,-1,-3,0,-1,-1,-2,1
1570178448083809,2,-1,-2,3,1,0,-3,1
1570178448083809,3,-1,-1,-1,-2,0,0,4
1570178448085309,-3,-1,-3,-2,-1,0,1,-8
1570178448085309,6,3,1,1,0,2,5,26
1570178448096792,-3,1,-2,-1,1,0,-6,-10
1570178448096792,-2,0,-1,0,-1,-2,0,1
1570178448105914,3,-1,1,-1,-1,-1,2,4
1570178448105914,-3,-2,0,-1,-1,-2,-2,-9
1570178448120713,-3,-1,-2,-1,-5,-2,3,-1
1570178448120713,1,1,0,-2,-5,0,0,1
1570178448122704,-7,-3,-2,-3,-4,0,8,-9
1570178448122704,-2,-1,-1,0,0,-2,-2,-7
1570178448151038,1,1,0,2,1,1,3,6
1570178448151038,-1,0,0,-2,1,0,-2,-4
1570178448152624,-2,-2,0,0,0,0,0,2
1570178448152624,-1,-1,0,-1,-1,0,0,-1
1570178448165590,-2,0,-1,0,0,-1,-2,-4
1570178448165590,1,-1,-1,-1,0,-1,4,7
1570178448167754,-1,-2,1,1,0,1,-1,2
1570178448167754,-1,-1,-1,0,1,-1,-3,-2
1570178448180587,0,-1,-1,-2,-3,1,-1,1
1570178448180587,-3,-2,0,0,0,0,-2,-4
1570178448182829,-1,0,-2,0,1,-1,0,-1
1570178448182829,5,0,1,0,-1,-2,0,2
1570178448203489,0,0,1,0,1,-2,-5,6
1570178448203489,-3,-2,-1,0,1,0,1,1
1570178448209618,-1,0,0,-1,1,1,-2,-1
1570178448209618,-1,0,-1,2,-2,1,-5,0
1570178448225440,0,-1,-3,-2,-2,-1,2,0
1570178448225440,-1,0,-1,1,-3,0,1,-3
1570178448227424,-1,0,0,-1,-2,0,0,5
1570178448227424,-3,-2,-3,-3,-1,1,0,-8
1570178448239395,0,-1,0,0,-2,-1,0,-1
1570178448239395,-2,-2,-2,-1,-1,0,-3,0
1570178448248368,1,0,-1,1,1,-1,3,-1
1570178448248368,-1,-1,1,-3,0,-1,0,-3
1570178448263335,-1,-2,-1,0,0,0,1,-1
1570178448263335,0,0,-1,0,0,-1,-3,-1
1570178448265322,-1,-1,-1,1,-2,-2,-3,-7
1570178448265322,-2,-1,-1,0,-1,0,3,-5
1570178448285273,5,1,1,1,-1,-1,-3,5
1570178448285273,-1,0,-1,-1,-1,3,0,-4
1570178448293248,-1,-2,-2,-2,-1,0,-2,-2
1570178448293248,-3,0,0,0,0,-2,-1,-2
1570178448300340,-2,-1,0,1,-1,1,2,-3
1570178448300340,-1,-3,1,-1,-1,-1,-1,0
1570178448307294,1,0,-1,0,-2,-2,-1,2
1570178448307294,-2,-1,1,-1,-1,-1,0,-2
1570178448323174,-2,2,0,1,0,-1,-9,-3
1570178448323174,3,0,-1,-3,-1,-1,1,5
1570178448325163,-1,1,0,-1,1,1,0,1
1570178448325163,-3,-1,-2,0,-1,-1,2,-5
1570178448346107,-2,-1,1,-2,0,0,1,-6
1570178448346107,-3,0,0,0,-1,-2,0,-3
1570178448347287,1,-3,-1,-1,-1,-2,-2,3
1570178448347287,1,1,-1,1,-1,1,-3,4
1570178448360325,0,0,-1,-1,0,1,1,-1
1570178448360325,1,-1,-1,-2,-2,-1,-2,5
1570178448367053,-1,-2,0,-3,0,-2,-6,-17
1570178448367053,-1,-2,-3,-2,0,0,-1,2
1570178448384048,0,-1,1,-1,-1,-3,-1,-1
1570178448384048,-1,1,0,0,-1,-1,1,1
1570178448386002,-1,-1,0,0,-1,-1,0,-1
1570178448386002,2,1,-1,1,1,-1,-1,2
1570178448405947,-1,-3,-2,-1,1,1,-1,1
1570178448405947,-3,-2,-1,-2,-1,-1,-2,-6
1570178448406944,-1,2,-1,-1,-2,0,-1,5
1570178448406944,-1,-1,-1,-2,-2,0,0,-1
1570178448420030,0,-2,-3,0,-1,-1,3,2
1570178448420030,-3,-1,-1,-1,0,-1,5,-7
1570178448426890,-3,0,-1,0,1,-1,0,2
1570178448426890,0,0,1,-1,-1,0,1,3
1570178448443847,-1,0,-2,1,-2,0,-3,-1
1570178448443847,-6,-3,-3,-2,-1,1,5,-9
1570178448444845,2,-2,0,-1,1,0,2,4
1570178448444845,-1,0,0,-1,0,-2,-3,-4
1570178448465787,-2,-1,-1,-2,-2,-1,2,-1
1570178448465787,2,0,-1,0,-3,0,-1,0
1570178448467782,-1,0,-1,0,-2,0,1,1
1570178448467782,-1,-1,-2,-1,0,-2,-1,0
1570178448480687,1,0,-2,-1,0,-1,3,4
1570178448480687,0,-1,-1,0,-1,-1,-4,4
1570178448503685,0,-1,0,-1,0,0,-2,-2
1570178448503685,1,-1,0,-1,-1,-1,-2,0
1570178448504686,0,-3,-3,0,0,0,0,-1
1570178448504686,-2,-1,1,0,2,-1,-2,2
1570178448506834,-1,-1,0,0,0,-1,0,1
1570178448506834,1,0,0,-2,-3,0,-1,0
1570178448525631,-2,0,1,0,0,-2,0,-2
1570178448525631,4,1,-2,0,-1,0,-3,3
1570178448527697,1,0,-2,0,1,1,2,-2
1570178448527697,-1,0,-1,-2,-1,0,0,2
1570178448540587,0,-2,0,-1,-1,-1,-2,-3
1570178448540587,-1,1,-2,0,1,-2,1,-3
1570178448546572,2,2,-1,0,-1,-1,-2,2
1570178448546572,-8,-2,-2,-1,-1,-1,-3,-19
1570178448562532,0,-4,-1,-4,-1,1,11,-2
1570178448562532,-1,-1,1,-1,0,-2,-1,1
1570178448571504,-4,-2,0,-1,0,-2,1,-4
1570178448571504,1,0,-2,-1,0,-1,-1,5
1570178448586466,-3,-1,0,-1,-1,-3,-5,-16
1570178448586466,1,-1,-2,-2,0,0,-2,3
1570178448587543,1,1,-1,0,-3,-1,-1,-2
1570178448587543,-1,-2,0,-1,-3,-1,0,8
1570178448600753,-1,2,0,0,0,-1,-2,4
1570178448600753,0,-1,-1,-1,-3,0,-1,3
1570178448607408,-1,-2,1,0,-1,-1,-1,0
1570178448607408,0,-2,-1,1,1,-1,1,-2
1570178448623365,0,0,0,0,0,-1,-1,0
1570178448623365,-2,0,1,0,0,0,-3,-4
1570178448625360,-1,-2,-1,-1,0,0,0,-1
1570178448625360,-4,-3,-3,-3,-2,-1,8,-6
1570178448646305,-2,-2,-1,-1,1,0,-1,4
1570178448646305,-1,1,-2,-2,-1,-1,-1,-2
1570178448647303,-2,1,-1,-2,0,-3,2,-3
1570178448647303,5,1,0,2,0,-2,-13,9
1570178448659278,-1,0,-3,1,-1,0,-4,-4
1570178448659278,-1,-2,1,1,1,-1,1,-1
1570178448668247,-2,0,-2,0,0,-1,3,0
1570178448668247,-2,0,1,0,0,-1,1,-2
1570178448683210,-2,-1,1,0,-2,-1,1,-5
1570178448683210,9,1,1,0,1,0,-1,12
1570178448685200,2,-1,0,-2,-2,0,-3,11
1570178448685200,-1,0,-1,-1,-1,0,0,1
1570178448706144,0,1,-1,0,-1,1,-2,3
1570178448706144,-5,-1,-2,0,-2,1,1,-7
1570178448707141,-1,-1,0,-1,-1,-1,-1,-4
1570178448707141,2,-1,0,-1,0,0,1,2
1570178448719110,-2,0,-1,-2,-1,0,-1,-3
1570178448719110,0,-2,-1,0,-2,0,0,0
1570178448728086,-1,0,0,-1,-2,-2,-2,-1
1570178448728086,-2,-1,0,1,-2,-1,-1,-2
1570178448743162,0,-1,1,2,0,0,-2,1
1570178448743162,-2,-1,-3,0,2,0,-1,-1
1570178448745046,-1,0,-2,0,1,0,-2,-2
1570178448745046,1,0,-2,-3,1,-1,2,-3
1570178448765984,2,0,0,-1,0,-1,-1,2
1570178448765984,-1,1,1,0,0,0,2,-3
1570178448767042,0,-1,-2,1,-2,-1,-1,3
1570178448767042,-2,1,-1,0,-1,0,-1,3
1570178448779947,-1,-1,-3,1,-1,-3,-4,-17
1570178448779947,1,-1,1,-1,-1,-1,-3,1
1570178448788923,-1,-2,0,0,-1,-2,1,3
1570178448788923,1,-1,-2,-1,0,1,0,2
1570178448803883,0,-3,-1,-2,0,-1,-1,3
1570178448803883,3,-1,0,-1,-2,-3,-12,4
1570178448805317,-7,-1,0,-2,-2,0,-1,-15
1570178448805317,5,0,-1,1,0,-1,1,5
1570178448825826,3,0,-1,-2,-1,0,1,8
1570178448825826,-2,0,-1,1,0,0,4,-4
1570178448827819,-3,1,-1,0,0,0,-1,-1
1570178448827819,-1,0,-1,0,-1,-2,-2,-4
1570178448839786,-3,0,-2,-1,-1,1,2,-3
1570178448839786,-2,-1,-2,-1,1,0,0,-1
1570178448848762,0,-1,-2,0,0,0,-1,-3
1570178448848762,-1,-1,0,0,0,0,0,-4
1570178448863722,1,-1,-1,-2,-2,-2,-1,2
1570178448863722,-2,2,1,-2,-1,-2,0,-1
1570178448864720,1,1,-1,0,-1,-1,-2,3
1570178448864720,0,-2,0,0,-1,-1,-2,-2
1570178448885665,-1,-1,0,0,0,0,1,2
1570178448885665,0,-1,-1,0,-1,-2,-1,-10
1570178448887659,1,-2,0,-1,-2,-2,1,-1
1570178448887659,-2,0,0,-2,0,-1,-2,-1
1570178448899626,-5,-1,-1,0,-2,1,9,-3
1570178448899626,1,1,0,1,-1,-2,-9,12
1570178448908634,4,0,-2,-3,2,0,1,7
1570178448908634,-2,0,-1,0,0,-1,0,-2
1570178448923562,0,0,-1,-2,0,-1,0,1
1570178448923562,-6,-2,-2,-1,-2,1,3,-4
1570178448924560,3,0,-1,-1,-1,0,1,5
1570178448924560,-2,0,0,-1,-1,-1,-3,0
1570178448945604,2,3,-1,0,-1,0,-3,3
1570178448945604,-2,-1,-2,0,2,2,2,-5
1570178448947497,-1,-2,0,-2,-1,-1,-2,-3
1570178448947497,-5,-2,-1,-1,-1,0,0,-11
1570178448959469,6,0,1,0,0,-2,-1,8
1570178448959469,0,-2,1,-1,-2,2,1,2
1570178448968442,-3,-3,-1,1,0,0,2,-3
1570178448968442,-1,0,-1,-2,-1,-1,0,0
1570178448983407,-4,0,0,-2,-1,-2,-3,-3
1570178448983407,-1,0,-2,0,0,0,-1,-1
1570178448985399,-2,0,-1,-2,0,-2,-3,-5
1570178448985399,1,-2,0,1,0,-2,0,4
1570178449006391,-1,-2,-1,-1,0,0,-1,-3
1570178449006391,2,-1,1,-3,-2,0,2,0
1570178449007492,-2,0,-1,0,-2,-1,-2,-3
1570178449007492,0,1,-2,-1,0,0,0,-2
1570178449020370,-2,0,0,0,0,-2,-2,-2
1570178449020370,1,-1,-2,-1,-2,-2,1,-4
1570178449028283,0,-1,1,3,0,1,1,9
1570178449028283,-1,1,-1,-1,0,0,-1,3
1570178449043324,-2,-1,-1,0,-2,0,-2,-3
1570178449043324,-1,-1,1,-2,-2,-3,-1,-2
1570178449045238,2,0,-2,-2,-1,-1,-3,-2
1570178449045238,0,-1,1,1,-2,0,0,1
1570178449066186,-3,-1,-2,-1,0,1,-2,-4
1570178449066186,5,0,-1,0,-1,0,2,9
1570178449067267,0,-1,-1,-2,-1,-1,1,-2
1570178449067267,-1,1,0,0,-1,0,-1,1
1570178449088123,-3,1,-1,-1,-1,0,0,-3
1570178449088123,-3,0,0,-1,1,-2,-1,0
1570178449090118,-2,-1,-1,0,-1,0,-1,-3
1570178449090118,0,-3,-2,-3,0,-1,-2,-2
1570178449103489,-1,1,1,0,-1,1,1,7
1570178449103489,-2,-1,-1,-3,-1,-2,1,-4
1570178449105092,-1,-1,-1,1,1,1,0,-1
1570178449105092,-3,-1,0,0,1,-1,0,-3
1570178449126026,1,-2,0,-1,-1,0,-2,4
1570178449126026,0,-2,-1,0,-1,-1,0,1
1570178449127018,-1,-1,0,0,-1,-1,0,-2
1570178449127018,1,-2,-1,-1,-2,0,1,2
1570178449148012,-3,-1,-1,-2,-2,-3,1,-20
1570178449148012,-1,0,1,-1,-1,-2,-2,-2
1570178449149958,0,0,-1,-1,-1,0,0,0
1570178449149958,-2,1,-2,0,0,-1,0,-2
1570178449162925,1,0,1,0,-1,0,0,4
1570178449162925,-1,1,-1,0,0,0,0,2
1570178449164917,-1,0,1,-2,1,-2,1,1
1570178449164917,1,0,-2,-1,0,-1,-2,0
1570178449185885,1,-1,0,-2,1,-4,-1,1
1570178449185885,-1,-2,-2,0,0,-1,-1,-3
1570178449187855,2,-1,-2,-1,-1,0,0,3
1570178449187855,-3,0,0,0,1,2,-1,-2
1570178449208914,4,-1,-1,0,-1,0,0,12
1570178449208914,-4,-2,-1,1,0,0,-3,-14
1570178449210200,2,1,1,0,-1,-1,-1,1
1570178449210200,-1,0,-1,-1,0,-2,-1,-3
1570178449223760,-5,-1,-2,-2,1,1,11,-11
1570178449223760,2,1,2,0,0,0,1,18
1570178449225225,-1,-1,-1,0,0,0,-2,-1
1570178449225225,-3,-2,-1,0,-1,0,1,-5
1570178449245876,2,-1,0,0,-3,1,2,6
1570178449245876,0,-1,-2,-2,-2,-1,-1,-2
1570178449247696,0,-3,-2,-2,-2,-1,0,-4
1570178449247696,-1,-1,-2,-1,-2,-1,0,2
1570178449268640,0,1,-1,-1,-1,-2,-3,5
1570178449268640,-2,0,0,-2,0,1,0,-4
1570178449269643,1,1,2,0,-1,-2,-4,0
1570178449269643,-1,1,0,0,-2,0,1,0
1570178449282602,2,-2,0,-1,0,-2,-3,2
1570178449282602,2,1,0,-1,-2,-2,-1,1
1570178449289589,-2,-2,-3,-1,-2,1,1,-3
1570178449289589,0,-3,-1,-1,0,-1,0,-1
1570178449313524,-1,-3,0,1,-1,-1,-3,-4
1570178449313524,0,1,1,0,1,-1,-1,1
1570178449314520,-3,-1,1,-1,-1,-2,-1,5
1570178449314520,-1,0,1,-1,-1,0,-1,-7
1570178449328482,-4,-2,-1,0,-1,1,9,-10
1570178449328482,-2,0,-1,1,-2,1,-1,-1
1570178449329483,-1,1,-1,-2,-1,-1,0,-2
1570178449329483,4,0,1,-1,-2,-1,0,15
1570178449342889,-2,0,-1,0,-1,0,-3,-5
1570178449342889,-1,-1,-3,-2,-1,-1,-2,-4
1570178449349515,-1,-2,-1,1,-1,-1,-3,-4
1570178449349515,1,-1,-1,0,0,-1,2,-3
1570178449365385,1,0,0,-1,-1,0,-5,1
1570178449365385,1,0,-1,0,-1,-1,0,8
1570178449367378,-1,0,-1,0,0,-1,-3,2
1570178449367378,-1,-1,-1,0,0,-2,-2,-2
1570178449388508,0,0,-2,-2,0,0,-2,1
1570178449388508,-1,-1,-1,-1,0,0,-2,-3
1570178449390314,-1,0,0,0,1,0,1,-3
1570178449390314,0,-1,0,-1,-2,-1,-2,0
1570178449402364,-2,0,0,0,-1,-1,-2,-5
1570178449402364,1,-2,-2,-1,0,-1,2,-1
1570178449409268,-1,-2,-1,-3,0,0,0,5
1570178449409268,-1,-1,0,-3,1,-1,-2,-1
1570178449426301,-1,0,-1,0,0,-1,-5,2
1570178449426301,2,-1,1,1,-1,-1,1,2
1570178449427738,-2,-1,-1,2,0,0,-2,-1
1570178449427738,-2,-1,-1,2,0,-2,-3,-6
1570178449448266,3,1,0,0,1,-3,0,11
1570178449448266,-2,-3,-1,1,-1,-1,-1,-1
1570178449450157,0,0,0,0,0,-1,0,-2
1570178449450157,-1,0,-1,-1,-1,-1,0,-1
1570178449463122,-1,-2,-1,-1,0,-1,-2,-2
1570178449463122,-4,-2,-1,0,0,-1,-1,-5
1570178449469108,1,-2,0,-1,-1,0,-2,1
1570178449469108,-2,-1,0,0,-2,-1,-1,-5
1570178449486058,1,-1,-1,-1,-2,-1,0,3
1570178449486058,0,-1,0,-2,-1,-2,-2,-2
1570178449487449,-1,-1,-1,-1,-2,1,0,-4
1570178449487449,0,1,1,-1,-1,0,-1,-3
1570178449508003,0,-1,1,0,-2,1,-1,-4
1570178449508003,-2,0,-1,-2,0,0,0,1
1570178449509996,-2,-1,0,-1,-2,-1,-3,-5
1570178449509996,0,-1,0,-2,0,1,0,6
1570178449522149,1,1,-3,-1,0,0,-2,3
1570178449522149,-6,0,0,1,0,0,-3,-14
1570178449531122,4,2,-2,0,-1,-1,0,6
1570178449531122,0,1,-2,-2,0,0,1,4
1570178449545932,0,-1,-1,0,-2,0,1,0
1570178449545932,0,0,1,0,1,-1,0,-2
1570178449547895,1,-2,-1,-2,0,-1,-1,2
1570178449547895,-4,0,-1,1,-1,2,1,-8
1570178449569054,3,0,1,1,-1,-2,-13,7
1570178449569054,1,0,-1,1,-1,2,2,13
1570178449569835,-2,0,-2,0,-2,-1,1,0
1570178449569835,3,-1,-2,0,1,-1,-1,7
1570178449581952,3,0,0,0,0,-2,-13,4
1570178449581952,0,-2,0,-1,-1,-1,-1,-3
1570178449590798,2,2,3,0,0,1,-1,7
1570178449590798,1,-1,-1,-1,-2,-1,0,8
1570178449605743,-4,0,0,0,0,-2,0,-8
1570178449605743,3,-1,-1,-3,-2,1,3,16
1570178449607737,-3,0,-1,0,-1,-1,0,-4
1570178449607737,-1,1,-1,1,0,-1,-3,-4
1570178449628678,-1,-1,0,-1,1,2,5,0
1570178449628678,-1,-1,-1,-1,0,-1,-2,-8
1570178449629736,-5,-3,-2,0,1,-1,-1,-8
1570178449629736,1,-1,-1,0,0,-2,1,1
1570178449641648,0,-1,-1,-1,-2,-1,-1,0
1570178449641648,0,-1,0,-1,-2,-3,-3,-1
1570178449651007,-1,-1,-2,-2,1,-1,2,-2
1570178449651007,0,-1,-1,0,-1,0,-2,-2
1570178449665583,-1,-1,-1,0,-2,1,3,1
1570178449665583,-1,-1,0,-2,-1,1,-4,-8
1570178449667574,2,0,0,0,0,0,0,8
1570178449667574,5,-1,-2,-2,-3,0,0,6
1570178449688517,-7,-2,-3,-1,0,-1,11,-11
1570178449688517,2,2,-3,-1,0,0,-3,14
1570178449689515,0,-2,0,1,-1,-2,-1,-3
1570178449689515,-6,-2,1,0,-1,-2,-2,-4
1570178449702481,-1,-1,0,-1,0,-1,3,1
1570178449702481,-2,-1,1,0,0,-1,1,-5
1570178449711456,-2,-2,0,-1,-1,-2,-3,-4
1570178449711456,-1,0,-2,0,0,-1,0,1
1570178449725420,0,0,-1,-2,2,-1,-4,-5
1570178449725420,-1,-3,0,0,-2,-1,0,-5
1570178449727414,0,0,-1,-2,-2,1,-3,-2
1570178449727414,-4,0,0,0,-1,-1,0,-9
1570178449748360,-1,0,-2,-1,-2,-2,-2,1
1570178449748360,-1,0,-1,-1,-2,-1,-2,-5
1570178449750351,0,0,-1,0,-1,-1,1,-1
1570178449750351,3,1,1,-1,0,0,1,7
1570178449762333,-2,0,-1,0,-1,0,-1,-2
1570178449762333,0,-1,0,-1,-2,0,0,-1
1570178449771296,-2,-2,-2,-2,-1,-1,-2,-7
1570178449771296,-1,-2,-1,-2,0,-1,0,-2
1570178449786263,-3,-4,-1,1,-1,0,0,-4
1570178449786263,-3,-2,-2,-1,-2,0,5,-14
1570178449788251,1,2,1,0,0,-2,-4,9
1570178449788251,0,-1,0,-1,-3,2,-2,1
1570178449808198,-1,-2,0,-2,-2,1,-1,-1
1570178449808198,-3,-2,-1,0,-1,0,-1,-1
1570178449810263,-2,-3,-3,-3,0,-2,-1,-6
1570178449810263,-1,0,0,0,-3,-1,-2,-6
1570178449822164,0,0,-2,-2,0,-1,0,2
1570178449822164,2,1,-1,0,0,0,2,2
1570178449831309,-2,0,0,-1,1,0,1,-6
1570178449831309,-2,-3,1,0,1,-2,-3,0
1570178449846095,1,1,2,1,-1,-2,0,5
1570178449846095,-1,-2,0,-1,0,-1,-3,-4
1570178449847326,-1,-2,0,-1,1,1,-1,-1
1570178449847326,0,0,-1,0,1,-1,-2,-4
1570178449868084,1,2,1,0,-2,-1,-1,2
1570178449868084,1,2,-2,1,-1,-1,-2,1
1570178449870032,-1,0,-2,0,-2,-1,1,3
1570178449870032,-1,-2,0,-1,-1,-1,3,-2
1570178449882000,-1,-2,-1,-1,0,0,-1,-3
1570178449882000,-1,-1,0,0,-1,-1,-1,0
1570178449890976,-1,-1,-2,1,-2,0,1,0
1570178449890976,1,-1,-2,-2,-1,0,-2,-2
1570178449906186,0,-1,0,-1,-1,-2,-1,2
1570178449906186,1,0,-1,-2,-1,0,-2,2
1570178449907933,-1,0,1,-1,0,-3,-2,-3
1570178449907933,2,-1,0,-1,1,-2,2,7
1570178449928265,0,-2,-2,0,1,0,-1,-1
1570178449928265,0,1,-1,-2,-1,0,-1,6
1570178449930053,0,0,0,-1,0,1,-1,2
1570178449930053,-4,-1,-1,1,0,2,-1,-14
1570178449941839,6,2,1,1,2,-1,-15,9
1570178449941839,0,-2,0,1,-1,-1,1,3
1570178449958795,-1,1,0,1,0,-1,1,-2
1570178449958795,-3,-1,-1,-1,-2,-3,-1,2
1570178449966025,-5,-2,0,-2,0,0,3,-8
1570178449966025,3,1,-2,1,-2,0,0,1
1570178449967773,1,0,0,-3,-1,0,-2,8
1570178449967773,0,1,-2,-2,1,0,0,-1
1570178449988717,-2,0,-2,-1,-1,2,3,-4
1570178449988717,7,3,-1,-1,2,-3,-15,-7
1570178449989712,-3,-1,-1,-2,-1,2,4,-2
1570178449989712,0,-1,1,-1,-1,1,-1,0
1570178450002054,1,0,-1,-1,-1,0,2,0
1570178450002054,-4,-2,0,-1,0,-1,1,-5
1570178450010657,-1,-1,0,-1,0,-1,-1,-3
1570178450010657,-4,-2,-1,-2,0,0,9,-12
1570178450025617,-9,-2,0,1,-1,-1,-3,-8
1570178450025617,4,-2,-2,0,1,0,5,4
1570178450027651,-1,0,0,-1,-1,0,-3,-4
1570178450027651,1,1,0,-1,-2,1,3,8
1570178450048558,-3,-2,0,-3,-1,0,13,-8
1570178450048558,-1,-1,0,-1,-2,1,-4,4
1570178450049762,-1,-2,-1,1,-1,-1,0,-2
1570178450049762,-4,-1,-1,-1,-1,1,6,-8
1570178450070701,-2,-2,-2,-1,-2,-1,12,2
1570178450070701,6,2,1,-1,1,3,1,32
1570178450072604,2,-1,-1,0,1,0,-2,5
1570178450072604,-1,-1,-1,-2,0,-1,-5,-1
1570178450085463,12,4,2,3,1,1,2,59
1570178450085463,-4,-2,1,0,-1,-2,4,-1
1570178450087451,1,-1,1,1,-2,-1,-1,-3
1570178450087451,3,0,-1,1,0,-2,-4,14
1570178450108395,-2,-2,-2,-1,-1,0,-5,-17
1570178450108395,-4,-1,-2,0,0,-1,-3,-9
1570178450110389,0,-1,-1,-2,1,-1,0,2
1570178450110389,-1,-1,-1,0,-1,-1,-5,-4
1570178450131332,0,0,-1,-2,-2,-1,-4,-18
1570178450131332,-3,-2,-1,0,-3,-1,1,-9
1570178450132331,-1,-1,0,-2,-1,-2,1,-6
1570178450132331,-2,-1,-1,1,-1,-1,-2,-2
1570178450146293,-2,-1,0,0,2,-1,-4,-6
1570178450146293,-3,1,-1,-1,1,2,2,4
1570178450147506,-4,-1,-1,1,-1,1,7,-11
1570178450147506,-2,-1,-3,0,-3,-2,-1,-2
1570178450168441,0,-2,-2,0,-3,-2,-2,-1
1570178450168441,-4,-3,1,-1,-2,-2,-5,-17
1570178450170229,-4,-2,-1,-3,-2,0,6,-1
1570178450170229,7,1,1,0,0,0,-3,8
1570178450191174,-3,-3,-1,0,-1,-2,-2,-7
1570178450191174,-1,-1,-1,-2,0,-1,2,-5
1570178450192314,1,1,0,0,-1,-2,-3,0
1570178450192314,-2,1,1,1,1,1,-3,2
1570178450205139,0,-1,0,-1,0,-1,-4,-3
1570178450205139,-1,1,0,0,-1,-1,0,4
1570178450212231,3,1,0,0,0,0,-4,-6
1570178450212231,0,1,0,-1,-1,-2,-2,3
1570178450228075,-1,0,-1,0,0,-1,-1,1
1570178450228075,-2,-2,0,0,-1,0,1,0
1570178450230069,-2,-2,-1,0,-2,-1,-3,-1
1570178450230069,-2,-1,-1,-1,0,2,1,-6
1570178450251014,-1,-1,0,0,-2,1,-1,-3
1570178450251014,-1,0,-2,-1,-1,-3,-1,2
1570178450252255,0,2,-1,-1,-1,0,1,1
1570178450252255,1,0,-1,0,-1,0,0,1
1570178450265082,0,-1,-2,0,0,1,1,-4
1570178450265082,1,0,1,1,1,-1,-6,0
1570178450272086,3,0,-2,-1,1,0,-2,9
1570178450272086,-7,-2,0,-1,-2,0,-1,-7
1570178450288482,5,1,-1,0,-1,-1,1,3
1570178450288482,-2,-1,-2,-2,-1,-2,4,-3
1570178450290524,-8,-3,-3,-3,-2,-2,1,-23
1570178450290524,0,2,1,0,-1,-2,-2,0
1570178450310858,0,-1,-1,0,0,-3,-5,0
1570178450310858,0,-1,0,0,-1,0,0,-2
1570178450312854,1,0,0,-1,-1,-1,-3,3
1570178450312854,2,-1,1,-2,0,-1,2,6
1570178450324820,-1,-2,-2,0,0,0,-3,0
1570178450324820,-1,-2,-3,-1,0,1,1,-2
1570178450331878,-1,0,0,1,-2,-1,-3,3
1570178450331878,-2,-2,-2,0,-2,-2,0,-5
1570178450348752,2,2,3,-1,0,1,-3,10
1570178450348752,1,0,-1,-1,0,-2,0,2
1570178450349748,1,-1,0,1,-2,0,-2,6
1570178450349748,-4,-3,-1,-1,-1,-1,-6,-16
1570178450370697,-2,-1,-2,0,-1,-1,1,-6
1570178450370697,0,-3,0,-2,0,-1,-3,-3
1570178450372688,1,-2,0,-1,2,-1,-2,9
1570178450372688,-1,-1,-2,-2,0,0,2,-2
1570178450385654,-3,0,-2,-2,-1,0,0,-1
1570178450385654,-3,1,0,-1,-1,1,2,-1
1570178450391638,1,-1,-2,-2,-2,-1,-1,-1
1570178450391638,1,0,-2,0,0,-1,0,2
1570178450408592,-3,-1,0,0,-2,-2,-1,-6
1570178450408592,2,-1,-2,0,0,-1,-1,10
1570178450409590,1,2,0,0,-2,1,-2,0
1570178450409590,-2,-2,-1,-1,0,-1,-3,0
1570178450430627,-2,-1,-1,0,0,0,1,-3
1570178450430627,3,0,2,0,0,-2,-10,0
1570178450432528,3,-2,-1,0,0,0,0,5
1570178450432528,0,0,-1,-1,0,0,0,-4
1570178450445518,-1,-1,-2,-3,1,-1,5,-3
1570178450445518,0,0,0,-1,0,-1,-7,-2
1570178450451479,-3,-2,-2,1,1,0,3,10
1570178450451479,1,2,0,0,2,0,-1,5
1570178450468432,-3,-1,-2,-1,0,-1,1,-11
1570178450468432,-2,-2,-1,0,-2,0,3,1
1570178450469430,-2,1,1,0,-2,0,0,-4
1570178450469430,1,-1,-1,-2,-2,-2,-1,1
1570178450490372,1,0,0,-2,-1,1,-2,3
1570178450490372,-3,-1,-1,-2,-1,1,2,-6
1570178450492569,0,-1,0,1,-1,-2,-4,-4
1570178450492569,-2,-3,-1,0,0,0,1,-2
1570178450505336,3,-2,0,-1,-1,0,-2,5
1570178450505336,-3,-1,-2,1,1,-1,0,-6
1570178450512317,1,-1,-2,-2,1,0,1,1
1570178450512317,0,0,-1,-1,-1,-2,0,0
1570178450528276,-1,-2,-2,0,-2,-2,0,4
1570178450528276,-1,-1,-1,-1,-1,-1,2,-2
1570178450530267,0,-2,-1,2,1,-1,-1,-2
1570178450530267,2,-1,-1,0,1,-1,-2,0
1570178450551283,-2,-2,-1,1,-1,-2,-2,-4
1570178450551283,0,-2,-2,0,-1,0,-1,-8
1570178450552564,-3,-1,0,-1,0,2,13,-1
1570178450552564,-4,-1,-1,-2,-2,-1,-1,-8
1570178450573151,-1,-2,-1,0,0,-2,2,1
1570178450573151,-2,-1,0,1,-1,2,1,-1
1570178450574150,0,-1,0,-1,-1,-2,-4,-4
1570178450574150,1,-2,0,1,0,-2,-1,1
1570178450588255,-1,0,2,1,0,-3,-2,-2
1570178450588255,-3,0,-1,-1,-1,0,1,0
1570178450588255,1,0,0,-1,0,-1,-2,2
1570178450588255,1,1,0,-1,-1,2,-2,7
1570178450610246,0,0,0,0,-1,0,-5,-1
1570178450610246,-2,0,-2,-1,-1,-3,-2,1
1570178450611054,0,1,-1,-1,-1,-2,-4,4
1570178450611054,-2,-1,-2,1,0,1,2,1
1570178450633173,-2,1,0,-1,-1,0,0,-3
1570178450633173,1,1,-1,0,0,0,1,0
1570178450634069,-2,-1,-1,-2,-1,1,-2,-1
1570178450634069,1,0,1,-2,-1,0,-1,0
1570178450648149,-1,0,0,-1,-2,-2,-3,-1
1570178450648149,4,-1,1,0,-1,-3,-15,4
1570178450648149,-1,-1,-1,-1,1,-2,-4,-1
1570178450648149,0,-1,1,0,2,0,0,1
1570178450669897,0,0,1,0,-1,-1,0,1
1570178450669897,-4,0,-1,-1,1,0,1,-7
1570178450670896,-1,1,-1,-1,-1,-1,1,-5
1570178450670896,3,0,-1,1,1,-2,-8,3
1570178450692832,-1,-1,-1,-1,-1,2,0,-1
1570178450692832,0,0,-1,-1,-1,0,3,-1
1570178450693829,-1,0,0,0,-1,0,-2,1
1570178450693829,-1,0,0,0,-2,-1,4,-3
1570178450707865,0,1,-2,-1,0,-1,-1,0
1570178450707865,0,-2,-2,0,-1,0,0,4
1570178450708790,-3,-1,-2,0,1,0,0,-5
1570178450708790,0,-1,-1,-1,-1,-2,0,0
1570178450729736,1,-1,-3,0,1,0,0,2
1570178450729736,-2,0,0,1,-2,0,2,-1
1570178450731248,-2,0,1,1,-1,0,-2,-1
1570178450731248,-4,-2,1,-2,-3,-2,-3,-1
1570178450753766,1,0,0,-1,0,0,-1,-6
1570178450753766,-2,-2,-2,-3,-1,2,13,-8
1570178450753766,1,-1,-1,0,0,0,-4,7
1570178450753766,-2,-1,0,-1,-1,1,-1,2
