timestamp,emg1,emg2,emg3,emg4,emg5,emg6,emg7,emg8
1570179723388408,0,0,1,-1,0,-1,-1,3
1570179723388408,1,0,-1,-1,0,-1,0,3
1570179723389359,-1,-1,-2,-1,0,-2,-1,-4
1570179723389359,3,1,1,2,2,0,-8,5
1570179723389359,-4,-2,-2,-2,0,-1,-1,-2
1570179723389359,5,-2,-1,1,0,0,0,2
1570179723390364,2,2,0,-1,0,1,1,10
1570179723390364,-2,-2,-2,-2,-3,0,1,3
1570179723411307,-1,0,1,2,0,-1,-1,-6
1570179723411307,0,2,0,0,-1,0,-1,0
1570179723411536,-2,-2,1,0,-1,-1,-1,-9
1570179723411536,-1,0,-1,0,0,0,1,-1
1570179723420321,-2,-1,-1,-2,-4,-1,-4,-6
1570179723420321,-4,-1,-1,0,0,0,1,-7
1570179723432340,0,-1,-1,0,1,0,0,1
1570179723432340,-5,0,0,0,-1,0,2,-5
1570179723440229,0,-1,-1,1,0,2,-3,-5
1570179723440229,2,0,-1,-1,-2,0,0,8
1570179723463366,-2,-1,-1,-1,-2,-1,-2,-2
1570179723463366,-1,0,1,0,0,-2,1,-2
1570179723464434,0,0,-2,-1,-2,0,0,2
1570179723464434,-1,-3,-1,-2,-2,-1,-1,-2
1570179723478231,-6,-2,-3,-2,-1,2,12,-11
1570179723478231,4,0,-3,-1,-1,-2,1,7
1570179723479397,0,1,-1,-1,0,1,1,5
1570179723479397,-1,2,-1,0,1,-1,-4,-1
1570179723524249,-1,1,-1,0,0,0,0,0
1570179723524249,-2,0,-1,0,-1,0,-3,-1
1570179723524998,1,-2,-3,0,-2,1,0,3
1570179723524998,-5,-2,1,-1,-1,-2,-6,-18
1570179723525996,-2,-2,-1,-2,-1,0,0,-6
1570179723525996,-1,-2,-2,0,-1,-2,-1,-1
1570179723529125,1,1,-1,-2,1,0,0,3
1570179723529125,-1,-2,-1,-1,-1,-2,-1,0
1570179723537214,5,2,0,-1,-2,-1,2,18
1570179723537214,-2,0,-1,-2,-1,-1,-1,-2
1570179723543949,-1,-1,-2,-2,-2,-1,0,-6
1570179723543949,1,1,-1,0,0,-1,-2,-1
1570179723550981,-3,0,0,0,-1,-1,-1,-4
1570179723550981,0,0,-1,-1,-2,0,-1,3
1570179723566143,-3,-2,-1,1,0,-2,-2,-2
1570179723566143,10,1,-1,0,-1,1,4,18
1570179723574427,-1,-1,0,0,1,-1,0,-6
1570179723574427,1,1,0,0,1,-1,-1,-2
1570179723597806,-2,-2,-1,-1,0,-1,-1,-1
1570179723597806,0,-1,-1,0,-2,-2,-1,1
1570179723598800,-1,-1,0,1,-1,0,-3,-4
1570179723598800,1,-1,-1,0,-1,0,1,-1
1570179723610817,-1,1,0,-1,0,-1,-2,0
1570179723610817,-2,0,0,-1,0,0,-2,-10
1570179723619984,-4,-1,0,-2,1,-1,-3,-5
1570179723619984,3,3,2,0,1,0,-7,8
1570179723634703,0,1,-1,-3,0,0,0,3
1570179723634703,-5,-3,-2,-2,-1,3,11,-6
1570179723636737,0,-3,-3,-1,-1,0,-3,1
1570179723636737,-3,0,0,0,-1,-2,1,-7
1570179723657830,0,-2,0,0,-2,-2,-4,-6
1570179723657830,0,-2,0,0,0,-2,-1,7
1570179723658642,-1,-2,0,-1,0,0,0,1
1570179723658642,-4,-2,-2,-1,-1,2,5,-5
1570179723670607,3,1,1,0,-2,-2,3,-2
1570179723670607,-5,0,-1,-3,-2,0,-4,-8
1570179723679972,1,-1,0,0,0,0,0,1
1570179723679972,0,-1,0,-1,0,1,1,0
1570179723695548,-1,-3,-1,-1,0,0,0,1
1570179723695548,-2,-1,-1,0,0,1,-3,-1
1570179723696538,-3,-1,-2,-1,-1,0,1,2
1570179723696538,-1,0,-1,0,0,-1,0,5
1570179723717630,1,-2,0,-3,1,0,0,3
1570179723717630,0,0,-1,-2,-1,-2,-2,-2
1570179723723465,-1,0,-1,-2,-3,-3,-1,0
1570179723723465,0,-2,-2,0,0,-2,-1,-5
1570179723731453,-6,-1,-1,-2,-2,-1,0,-6
1570179723731453,-6,-1,-4,-1,-3,0,10,-12
1570179723740420,0,-1,-2,-1,0,0,-4,2
1570179723740420,-4,-3,-1,-1,-1,-1,-2,-18
1570179723755383,1,0,0,1,-3,0,-1,1
1570179723755383,0,-2,0,0,1,0,3,4
1570179723756703,-1,-2,-1,-1,-1,-1,2,-1
1570179723756703,7,3,1,0,-1,-1,-7,28
1570179723801357,-1,-2,-1,-1,-1,-1,-2,19
1570179723801357,-1,0,0,-1,-1,-2,-4,26
1570179723803253,-2,1,0,0,0,0,-2,10
1570179723803253,-4,0,0,-2,-1,0,0,-3
1570179723803253,4,2,1,1,0,1,-1,-15
1570179723803253,5,3,0,0,-1,0,-4,-4
1570179723807242,-1,-1,-2,-2,-1,-1,2,-11
1570179723807242,0,-3,-1,-2,0,-1,4,-12
1570179723815220,0,-1,-1,0,0,0,1,-5
1570179723815220,0,-4,-1,-1,-1,-1,-3,-10
1570179723816219,1,0,0,1,-1,0,1,-6
1570179723816219,-2,-2,-1,-1,-1,-1,-7,-6
1570179723836164,-1,-1,-2,0,-2,1,3,3
1570179723836164,2,1,-1,0,0,0,-4,2
1570179723845265,-2,1,1,0,-1,-2,-1,-5
1570179723845265,-1,2,-1,-2,0,-3,1,-1
1570179723851130,-2,1,-1,1,-2,0,-1,-2
1570179723851130,1,-3,-1,1,0,-2,-1,-1
1570179723860103,-8,-4,-1,-2,-2,2,11,-23
1570179723860103,2,-1,-1,-3,0,0,4,17
1570179723875062,-6,1,0,1,-1,0,-3,-4
1570179723875062,2,1,0,0,-1,1,0,2
1570179723876138,2,1,-2,0,0,0,1,1
1570179723876138,2,0,0,0,0,1,3,3
1570179723904979,0,-1,-1,-4,-1,-2,0,3
1570179723904979,-4,0,1,-2,-1,-1,2,-5
1570179723905982,5,2,2,2,0,-2,-6,10
1570179723905982,-2,0,0,-2,-1,-2,1,-4
1570179723911001,3,-3,-2,-1,-2,0,-3,5
1570179723911001,3,1,0,0,0,-1,-9,5
1570179723919941,0,-1,-2,-1,1,1,-1,1
1570179723919941,-2,-3,0,1,-2,-1,-1,-2
1570179723934906,0,0,1,1,1,-1,-1,-1
1570179723934906,-2,1,0,-1,0,-1,-2,-3
1570179723936897,0,-1,-2,-1,1,0,-2,3
1570179723936897,0,-1,0,-1,0,-1,-1,-5
1570179723964826,-4,-1,0,0,-1,-1,0,-5
1570179723964826,-4,-2,-1,0,-2,2,1,-4
1570179723966817,-1,0,2,-1,-1,-2,-4,4
1570179723966817,-3,-2,-1,0,-1,0,1,-5
1570179723970912,2,0,-1,0,-1,0,-1,-8
1570179723970912,-5,-1,-1,-1,-1,-2,-3,-17
1570179723979782,9,1,-2,0,0,-2,-11,22
1570179723979782,0,0,-1,0,-2,-2,-3,0
1570179723994767,-3,0,-1,-1,2,0,0,2
1570179723994767,1,-1,0,0,0,1,3,3
1570179723996735,-6,0,0,0,-2,0,0,-13
1570179723996735,0,0,-1,0,0,0,-2,-2
1570179724017760,1,-2,-1,0,1,-2,-2,2
1570179724017760,-1,-1,-1,-1,-1,-1,1,6
1570179724019223,-1,-3,-3,0,1,1,2,-2
1570179724019223,-1,-1,-2,0,0,-1,1,0
1570179724031644,0,0,0,-2,0,0,0,-4
1570179724031644,0,-2,-1,-2,0,-1,0,5
1570179724039683,-2,1,0,-2,-1,-1,0,-4
1570179724039683,-2,-2,-1,-1,0,0,0,-2
1570179724054590,-1,0,-1,-1,-1,0,-1,-1
1570179724054590,-2,-1,-2,0,1,-2,1,2
1570179724056576,0,-1,-3,-1,-3,-2,-2,-7
1570179724056576,0,2,0,1,-2,-1,-11,-5
1570179724077736,10,-1,-2,-1,-1,0,0,17
1570179724077736,2,-2,1,1,0,0,-2,8
1570179724079515,-6,-3,-1,-1,-1,1,12,-12
1570179724079515,0,0,-2,-1,-1,0,0,0
1570179724091482,-6,-1,0,-1,-1,0,0,-7
1570179724091482,0,1,-3,-2,0,0,-2,4
1570179724100459,-1,-2,0,-1,-2,1,1,-1
1570179724100459,-1,-2,1,0,-1,0,1,0
1570179724115419,-1,-2,-1,1,0,1,1,2
1570179724115419,-1,1,2,1,-1,-2,0,-9
1570179724116535,0,1,0,0,-1,-1,-3,0
1570179724116535,-1,0,0,-1,0,-2,-3,0
1570179724137371,-2,-2,1,0,-1,-1,-5,-15
1570179724137371,0,-1,0,-1,-2,0,0,1
1570179724139506,0,-1,0,-1,1,0,0,1
1570179724139506,-1,-1,-1,-1,0,0,1,-2
1570179724151530,-1,-1,-1,-1,0,-1,0,1
1570179724151530,1,-2,-2,-1,-1,0,-2,2
1570179724160309,-1,-2,1,-1,-1,-2,-6,-12
1570179724160309,-2,-1,-1,0,-1,0,4,1
1570179724175431,-2,0,-1,0,-2,-1,-1,0
1570179724175431,-4,0,-2,0,0,0,0,-3
1570179724176797,2,0,0,-1,-1,-1,-2,5
1570179724176797,0,-1,-1,-2,-1,0,0,-1
1570179724197208,-8,-1,-1,0,-1,-1,11,-22
1570179724197208,1,0,-1,-1,0,0,-5,-8
1570179724203192,8,1,-2,0,0,0,-5,15
1570179724203192,2,2,0,2,0,-1,-2,-2
1570179724211363,0,1,0,0,0,-1,0,3
1570179724211363,-1,-3,-1,0,-1,0,4,-1
1570179724226320,-4,1,-1,-2,-1,-1,2,-3
1570179724226320,1,1,-1,-2,0,-1,1,3
1570179724234302,0,0,-1,-1,0,-2,-9,-8
1570179724234302,-1,-1,-1,0,0,0,0,0
1570179724242099,-1,-1,0,0,-2,-1,-3,4
1570179724242099,-1,-1,0,0,-1,1,-1,-6
1570179724257273,-2,0,-1,0,-3,-1,-4,-14
1570179724257273,-1,0,-1,-1,0,0,1,4
1570179724259151,-1,-1,-1,0,0,1,2,-1
1570179724259151,-4,-2,-1,-1,1,0,0,-3
1570179724279979,2,-3,-1,-1,0,-1,-3,9
1570179724279979,-3,-1,-2,-1,0,0,0,-2
1570179724281289,1,-1,-1,1,0,0,1,2
1570179724281289,6,0,0,0,1,-3,-16,15
1570179724295137,1,-2,-1,-2,-1,-1,-2,13
1570179724295137,2,1,2,0,-1,-1,-4,2
1570179724297013,-3,0,0,-2,1,-2,-2,-3
1570179724297013,-1,-1,-1,-1,-3,1,5,-2
1570179724318006,-4,0,2,0,1,0,3,3
1570179724318006,4,0,-2,-1,0,-2,-4,1
1570179724319209,-4,1,-1,0,-1,0,0,-8
1570179724319209,-3,-4,-3,-2,-2,-2,9,-10
1570179724346939,0,0,-1,-2,-1,0,0,6
1570179724346939,-3,-1,0,1,0,-1,2,-5
1570179724355910,-1,-2,1,-1,-1,1,-3,-6
1570179724355910,2,1,-2,-1,-2,0,1,4
1570179724356775,1,1,-1,0,-2,0,2,9
1570179724356775,0,-2,0,0,0,-2,-1,-6
1570179724357937,-1,-2,-3,-1,-1,0,3,-1
1570179724357937,3,1,0,-1,0,-1,0,3
1570179724377769,-2,0,-1,-1,-2,-2,-4,-6
1570179724377769,0,1,0,1,-2,-1,0,5
1570179724379154,-2,-2,-2,-1,0,3,5,3
1570179724379154,-11,-4,-1,-2,-1,1,10,-21
1570179724399816,3,1,-1,0,-1,-1,-4,4
1570179724399816,-2,0,0,-3,-2,2,1,1
1570179724401749,-2,0,2,0,-3,-2,-2,-13
1570179724401749,-1,0,-2,0,0,-1,0,-1
1570179724414785,1,0,0,0,1,0,4,7
1570179724414785,1,-1,-1,0,0,-1,1,3
1570179724416618,-4,-2,0,0,-2,-2,0,-5
1570179724416618,2,0,1,0,1,1,-3,8
1570179724437561,-3,0,-3,1,-1,-3,-5,-16
1570179724437561,-1,0,0,0,0,0,1,1
1570179724439010,4,1,0,0,0,-1,-6,10
1570179724439010,1,0,-1,0,-1,0,-2,4
1570179724459712,0,-1,-1,-2,-1,1,-2,0
1570179724459712,-3,0,-1,0,-2,0,1,-5
1570179724461609,-4,-2,0,-2,1,-1,0,-7
1570179724461609,4,0,-1,1,0,0,-3,2
1570179724474627,1,-2,1,0,0,-1,-2,-2
1570179724474627,-4,0,0,-1,0,0,-4,-5
1570179724481588,0,0,-1,-1,-2,0,5,7
1570179724481588,-3,0,0,0,0,-2,-4,-6
1570179724496402,-2,-1,1,-1,0,0,2,2
1570179724496402,7,1,1,2,1,-2,0,14
1570179724505380,-2,0,-1,-1,0,0,-3,-5
1570179724505380,0,-1,-3,-2,-1,0,0,-1
1570179724520487,0,1,1,0,0,0,-1,10
1570179724520487,-6,-2,-3,-2,-1,-1,0,-13
1570179724521336,1,0,0,-1,-1,-1,-1,2
1570179724521336,1,-2,0,1,0,-1,0,6
1570179724542477,3,-1,-3,-3,0,0,-4,10
1570179724542477,-1,0,-1,-2,-1,0,0,2
1570179724544276,3,-1,-1,0,-1,-3,-1,3
1570179724544276,-3,-1,0,-1,-3,2,-3,-6
1570179724556443,1,-2,-2,-1,1,0,1,-6
1570179724556443,0,-1,-1,-1,-1,-3,-2,-1
1570179724572246,0,0,-2,0,0,0,-5,5
1570179724572246,-3,-3,0,0,1,0,1,-4
1570179724580360,0,0,-1,-1,-3,0,-1,-3
1570179724580360,1,1,-1,0,-1,-1,-4,4
1570179724581494,-1,-1,0,1,-1,-1,-1,-4
1570179724581494,0,0,0,-1,-2,-2,-1,1
1570179724602167,-6,-1,-2,-2,-2,1,12,-8
1570179724602167,-1,-3,-1,-2,0,0,-3,-6
1570179724604111,-1,0,-1,-2,-1,0,2,0
1570179724604111,3,0,1,0,0,-2,-2,3
1570179724616225,2,0,2,2,0,0,4,9
1570179724616225,-3,-1,1,0,-1,-3,-2,-18
1570179724625066,2,-1,-2,0,-1,0,1,11
1570179724625066,-2,-1,-1,0,-3,-1,-1,-6
1570179724640232,-1,1,0,-1,-1,-2,-5,-7
1570179724640232,1,0,-2,-2,1,0,-1,0
1570179724641516,2,1,2,-2,-2,0,-1,4
1570179724641516,-5,-1,-1,-2,0,0,0,-5
1570179724662954,0,-3,-1,-1,-2,-2,-3,2
1570179724662954,0,-1,0,1,0,0,1,1
1570179724663953,-2,1,0,-1,0,-2,1,-6
1570179724663953,1,0,1,-1,0,0,-2,7
1570179724684900,0,0,1,0,0,-2,-3,-5
1570179724684900,1,0,-1,-1,0,0,1,5
1570179724686889,-2,0,0,1,0,0,0,-2
1570179724686889,1,-1,-1,-2,-2,0,-6,12
1570179724699994,0,-2,0,0,-1,0,-4,4
1570179724699994,-1,-1,0,-2,0,1,2,3
1570179724701958,2,-1,0,-1,-2,-3,-2,4
1570179724701958,-4,0,-1,-1,0,-1,2,-13
1570179724722793,-3,-2,1,1,1,1,3,4
1570179724722793,0,-1,-2,0,-1,0,1,3
1570179724724046,-4,-3,-2,-2,-1,0,2,-5
1570179724724046,-1,0,1,0,0,-1,0,1
1570179724737002,-3,0,-1,-1,-2,-1,-4,-13
1570179724737002,0,-1,0,1,1,0,-2,-2
1570179724744831,0,-2,-1,0,-1,0,0,0
1570179724744831,-1,-2,-3,-1,0,-2,0,-7
1570179724760009,-3,2,0,1,-1,-2,-5,-3
1570179724760009,-2,-1,0,-1,-1,0,3,0
1570179724761692,0,-1,-1,-1,-1,0,-3,-2
1570179724761692,1,-1,-1,-2,0,-1,0,2
1570179724782756,0,-1,0,-1,-1,1,3,-2
1570179724782756,-4,-2,-1,-1,-2,1,13,-9
1570179724784631,2,-1,0,-2,1,-1,-4,1
1570179724784631,-2,0,-2,0,-3,1,8,-6
1570179724804575,4,2,2,0,3,0,1,22
1570179724804575,0,0,0,1,2,1,-2,2
1570179724806570,-4,-2,1,-1,-1,-1,-3,-4
1570179724806570,-2,-1,-1,0,-1,0,0,-6
1570179724819543,-2,-3,0,-1,-2,-2,-1,-7
1570179724819543,1,0,-1,-2,-2,-3,-3,3
1570179724821530,-1,0,0,0,0,0,0,4
1570179724821530,0,1,1,0,1,-1,-3,4
1570179724842480,-6,-1,-2,-2,-1,-2,-2,-15
1570179724842480,3,-1,-1,0,0,-1,-6,5
1570179724844470,-1,-2,-1,-1,0,0,0,-5
1570179724844470,0,0,0,1,-2,-1,0,1
1570179724865411,0,2,-1,-1,0,0,0,-3
1570179724865411,0,-2,-1,-2,-2,-2,-3,-7
1570179724866985,-2,-1,-2,0,1,-1,1,-4
1570179724866985,0,-1,0,0,-2,-1,-3,1
1570179724880373,0,-2,-1,-2,1,2,0,4
1570179724880373,-2,-2,-2,-1,-2,-1,0,6
1570179724881465,10,3,0,-1,-1,-1,-15,27
1570179724881465,0,0,0,0,0,-1,-2,4
1570179724903312,-1,-1,-1,-1,-2,-1,-1,0
1570179724903312,-5,-2,0,0,-1,-2,-1,-10
1570179724904308,-4,-2,-1,-1,-2,-2,-1,-25
1570179724904308,2,-2,0,0,1,0,2,-2
1570179724925251,0,-1,-1,0,0,0,-3,-4
1570179724925251,-2,0,0,1,0,-2,0,-5
1570179724926249,-2,-2,-2,-1,0,0,3,-5
1570179724926249,1,-1,0,-1,-2,-2,-2,5
1570179724939499,-5,-3,-4,0,-2,-1,0,-11
1570179724939499,0,1,0,0,0,1,-1,4
1570179724946198,-1,0,-2,0,-2,0,3,3
1570179724946198,-2,-2,-1,-2,0,0,-1,-5
1570179724963185,0,1,0,0,1,-2,-5,-1
1570179724963185,0,-1,-3,-1,-2,0,-2,5
1570179724964146,-1,-2,1,-1,1,1,4,2
1570179724964146,-1,-2,-2,0,1,-2,-1,-2
1570179724985094,2,1,-2,0,0,-1,1,3
1570179724985094,-3,-1,0,-1,-1,-2,-2,-5
1570179724986156,3,-1,-1,0,1,-1,2,8
1570179724986156,-1,0,-1,-2,0,1,1,0
1570179724999178,-1,0,-1,1,0,-1,0,24
1570179724999178,1,-1,-1,1,-1,-1,-1,14
1570179725006316,-3,0,-2,0,0,0,0,-1
1570179725006316,1,-1,-1,-1,0,-1,0,-8
1570179725023021,2,-2,-1,0,-1,-1,-3,-10
1570179725023021,-3,-1,-2,-1,0,0,-2,-14
1570179725023988,-1,0,3,0,-1,0,-2,-9
1570179725023988,-1,-1,-1,0,-1,-1,-2,-11
1570179725044951,0,0,-2,-1,1,1,17,0
1570179725044951,2,-3,-1,-1,-1,1,1,3
1570179725046928,-2,1,-1,0,1,-1,2,-3
1570179725046928,-2,-1,-1,-2,-1,0,1,9
1570179725059895,-3,0,-3,0,0,-1,-1,-5
1570179725059895,2,0,0,-1,-1,1,-1,0
1570179725066477,0,0,-2,0,-2,0,-1,10
1570179725066477,-2,0,-2,-1,-1,-3,0,0
1570179725082926,0,-2,-1,0,-1,-2,-3,0
1570179725082926,2,0,-2,0,1,-2,-1,4
1570179725084197,-1,0,-1,1,-2,0,-6,-3
1570179725084197,-1,-1,-1,0,0,0,-1,2
1570179725105063,2,1,2,-1,-1,0,-2,-1
1570179725105063,-4,-1,-1,0,1,-1,4,-11
1570179725106766,0,-1,1,0,1,-1,-2,1
1570179725106766,-1,0,-1,-1,-1,-1,-1,3
1570179725127823,1,0,1,-1,0,0,-2,1
1570179725127823,4,-3,0,-2,-2,1,4,8
1570179725129464,-3,-2,-1,-2,-1,0,0,-5
1570179725129464,-3,-1,1,0,0,-1,-2,-7
1570179725142997,0,-2,-1,-1,0,1,-2,2
1570179725142997,1,0,-1,-1,-1,-1,-3,5
1570179725144219,-1,-1,0,-1,-1,-2,-1,0
1570179725144219,-2,0,-1,0,-1,0,-3,-3
1570179725164801,-2,0,0,0,-2,0,-1,0
1570179725164801,-1,0,-1,0,0,0,-2,-7
1570179725166735,2,-2,-1,-1,0,-1,1,8
1570179725166735,-3,-1,-1,-1,-2,2,13,-7
1570179725179903,-3,-2,-2,-1,-1,-1,-2,-1
1570179725179903,0,0,1,1,-1,-1,-3,-1
1570179725210487,1,1,0,1,0,1,0,-2
1570179725210487,0,-1,0,0,-1,-1,-2,6
1570179725211485,1,-1,0,-1,-1,0,0,0
1570179725211485,-1,-2,-1,-2,0,-2,-3,-3
1570179725212877,-2,-1,-1,-4,-3,-2,3,-4
1570179725212877,3,1,1,1,1,-1,-7,-7
1570179725223454,-1,-1,-1,0,-2,-2,-2,2
1570179725223454,0,-1,-2,0,0,-1,-2,0
1570179725232460,1,-1,-1,0,1,-1,-2,3
1570179725232460,3,1,-1,0,-1,-2,-4,8
1570179725239773,-1,-2,0,-1,-1,-1,1,2
1570179725239773,-3,0,-1,-1,-2,0,-2,-7
1570179725246703,1,0,1,0,-1,2,-1,-5
1570179725246703,-4,0,-1,0,-1,0,-1,-8
1570179725262390,2,0,0,-2,0,-1,-1,0
1570179725262390,-2,0,0,-1,-1,0,-2,-3
1570179725264348,1,-2,-1,0,0,-3,-5,11
1570179725264348,-2,-3,-3,-1,0,0,9,10
1570179725292350,0,0,0,0,1,-2,-4,2
1570179725292350,2,0,-1,1,0,-1,1,7
1570179725294269,-3,0,-1,0,-1,0,-2,-9
1570179725294269,0,-3,-1,-2,-1,-1,-1,-2
1570179725298965,0,1,-2,-3,-2,0,0,-6
1570179725298965,2,-2,0,0,-1,0,1,-5
1570179725315480,3,1,0,0,0,0,-6,2
1570179725315480,1,-1,1,0,1,0,-3,-1
1570179725323034,0,1,-1,0,1,0,3,0
1570179725323034,-3,-1,0,0,0,-1,-5,-3
1570179725323814,-2,-3,-2,-1,-3,1,4,4
1570179725323814,0,0,-1,-1,0,1,-2,-5
1570179725343979,-3,-2,0,-1,-2,0,-4,-6
1570179725343979,-3,0,-2,-1,-1,-1,2,-5
1570179725352736,-3,-1,-2,-1,0,-3,0,-5
1570179725352736,2,1,0,-1,1,-1,-2,5
1570179725358920,-1,-1,-1,-1,0,-2,2,-2
1570179725358920,1,1,0,1,0,-1,-2,4
1570179725367807,-4,-1,-2,0,0,-1,-1,-9
1570179725367807,0,-1,-1,-2,-2,-3,-7,-9
1570179725382394,-5,-1,-2,-2,-2,-1,0,-3
1570179725382394,-7,-3,0,-3,-2,0,1,-10
1570179725384354,0,-1,-1,-1,-1,0,1,3
1570179725384354,1,-2,-1,0,-1,0,1,-10
1570179725404864,0,-1,0,0,-1,0,-1,1
1570179725404864,1,-2,0,-2,-1,0,1,3
1570179725406754,-2,0,-1,0,0,-1,-1,-5
1570179725406754,-2,-2,-3,-1,-2,0,16,0
1570179725427968,3,3,3,1,0,-2,-11,6
1570179725427968,-1,0,-1,0,-1,0,0,4
1570179725428841,1,-2,0,0,0,-1,1,-1
1570179725428841,0,0,-2,0,-1,-1,1,4
1570179725442037,-6,-2,-3,0,-1,-1,-1,-14
1570179725442037,1,0,0,-1,-1,-1,1,1
1570179725444030,-2,0,-1,0,-1,1,-2,-4
1570179725444030,3,-2,0,1,-1,1,-4,12
1570179725465020,3,0,-2,0,-1,-1,2,11
1570179725465020,1,0,2,0,0,0,-3,4
1570179725466970,-1,-2,-2,-2,-2,-2,2,-3
1570179725466970,-2,-1,1,0,0,-1,-4,-2
1570179725478865,0,0,-2,-2,0,0,1,-2
1570179725478865,-1,-2,-3,-2,-1,0,3,2
1570179725487942,2,2,2,0,1,0,2,17
1570179725487942,-2,3,2,-1,0,-2,-4,-19
1570179725501984,3,-2,-1,-1,0,-2,1,5
1570179725501984,-2,-1,0,0,0,0,-3,1
1570179725503981,-1,-1,0,-2,-1,-1,-1,-4
1570179725503981,-3,-2,0,-2,-2,0,-3,0
1570179725524821,0,1,1,-1,-1,1,1,-1
1570179725524821,1,0,-1,-3,0,-2,-1,-3
1570179725526774,-2,-1,-1,-2,-1,0,4,0
1570179725526774,-8,-3,-3,-2,-1,-3,-8,-15
1570179725538859,2,0,-2,0,-3,-3,3,4
1570179725538859,-2,-2,-2,1,0,-1,-5,5
1570179725547527,-1,-1,1,-1,-1,-1,-1,-4
1570179725547527,-1,0,0,0,-1,0,0,4
1570179725569471,-4,-3,0,-1,0,0,1,-3
1570179725569471,2,2,0,2,0,0,-3,-2
1570179725571465,4,0,-2,0,-1,0,1,9
1570179725571465,6,1,-1,-1,1,1,4,23
1570179725585427,-2,0,0,-1,0,-1,-3,-4
1570179725585427,1,0,0,-2,0,-1,3,1
1570179725586424,-3,0,1,0,0,-3,-5,-9
1570179725586424,2,0,0,0,-1,-2,-5,6
1570179725598876,0,-2,-2,-1,-3,-1,1,1
1570179725598876,-3,-2,-1,-1,-1,0,-3,0
1570179725607233,0,-1,1,-1,-1,0,0,-1
1570179725607233,-4,-1,-1,0,-2,-3,-2,-11
1570179725621195,1,-2,-1,-1,-1,0,-2,1
1570179725621195,-3,-1,-2,-1,0,0,1,-9
1570179725630133,2,-1,-2,0,-1,0,0,4
1570179725630133,2,0,0,0,0,0,1,1
1570179725645135,-2,1,1,1,1,2,0,0
1570179725645135,1,1,1,1,-1,-4,-8,0
1570179725646165,-2,0,-2,0,0,0,0,-4
1570179725646165,-1,-1,-1,0,-1,-1,-3,-5
1570179725659101,-2,0,0,-1,-1,1,0,9
1570179725659101,0,-4,-2,-2,0,1,4,2
1570179725668024,4,-1,-1,1,-1,-2,-2,2
1570179725668024,-3,0,-2,0,-1,-1,1,4
1570179725681985,-2,-1,-1,0,1,2,-1,-8
1570179725681985,1,-1,-2,0,-2,0,1,2
1570179725683982,0,0,-1,-2,-1,0,0,2
1570179725683982,0,-1,0,-2,2,0,0,2
1570179725704925,0,-2,-3,-1,-1,-2,-2,0
1570179725704925,-4,0,-2,-1,0,1,7,-3
1570179725706919,-2,1,-1,-1,-3,-1,-4,-9
1570179725706919,1,-1,-1,-1,-2,0,-2,28
1570179725727865,-6,-2,-1,-1,-2,1,10,5
1570179725727865,0,-2,-1,-2,-2,-2,-1,15
1570179725729039,-5,-3,-1,0,-1,-2,0,-6
1570179725729039,2,0,-1,1,-1,1,-1,-7
1570179725742891,0,0,1,-1,0,-2,1,-13
1570179725742891,0,-2,-2,-2,0,0,0,-12
1570179725743827,5,1,0,0,0,0,3,3
1570179725743827,-2,-1,0,-1,0,0,-1,-20
1570179725764764,0,-1,-1,-1,-1,-3,-5,-7
1570179725764764,3,0,-1,1,0,-1,-1,-3
1570179725766760,-6,-2,-2,-4,-1,-2,-10,-27
1570179725766760,2,-1,-2,-1,-2,-2,0,6
1570179725794682,1,3,0,-1,0,0,0,-3
1570179725794682,-3,-3,0,-1,0,0,-2,-1
1570179725796677,0,0,0,2,-1,0,1,-2
1570179725796677,-2,0,0,-1,0,1,-1,-11
1570179725802662,1,0,-2,0,-1,1,-3,-2
1570179725802662,8,0,-1,-3,-2,-1,1,13
1570179725803686,-2,-2,-1,-1,-2,0,0,0
1570179725803686,1,-1,0,1,1,-1,1,8
1570179725824602,3,-1,-2,0,0,0,-1,10
1570179725824602,-3,3,1,0,0,-2,-1,-7
1570179725826597,-4,-1,0,0,0,0,1,-1
1570179725826597,5,1,0,-1,0,-3,-15,9
1570179725847540,-2,-1,0,-2,1,0,-3,-3
1570179725847540,-2,-2,-2,0,-2,0,-2,0
1570179725848537,1,0,0,-1,-1,-2,2,3
1570179725848537,3,2,1,2,1,2,0,14
1570179725862500,-2,-2,-3,0,-1,-2,0,-2
1570179725862500,-1,0,0,-1,0,1,-4,2
1570179725868483,-3,-3,-4,-2,0,1,-1,-1
1570179725868483,-5,-2,-1,0,-1,-2,4,-7
1570179725883444,-5,-2,0,0,-1,-1,-4,-9
1570179725883444,6,0,0,0,-1,-1,3,12
1570179725908380,0,0,0,-1,-1,1,-1,-2
1570179725908380,-2,0,0,-1,-2,1,5,-7
1570179725909376,-1,-2,-1,-1,-2,-1,-3,5
1570179725909376,-8,-2,-1,-1,0,0,1,-15
1570179725910372,-1,0,1,1,0,-2,-7,1
1570179725910372,1,-1,-1,-1,0,1,-1,-9
1570179725921344,-1,3,3,0,0,0,9,-11
1570179725921344,1,1,0,-1,0,-2,-6,3
1570179725928359,-2,-1,-1,-4,0,0,-1,2
1570179725928359,-3,-2,-1,-1,-1,0,3,-2
1570179725945290,-2,-1,-3,-1,-1,1,-1,-1
1570179725945290,-1,0,1,0,-1,0,1,-6
1570179725947276,-1,-2,-1,0,-1,-1,0,3
1570179725947276,-1,-2,-1,0,-3,-1,0,-3
1570179725967226,2,0,1,0,1,-1,-3,2
1570179725967226,0,-1,0,0,-1,0,0,3
1570179725969306,-1,0,1,0,1,1,1,3
1570179725969306,-2,-2,-3,1,-1,1,3,9
1570179725982190,-1,-2,-1,-3,-3,-2,-5,-15
1570179725982190,-2,-1,-1,1,-1,0,0,2
1570179725988174,4,0,0,-2,-1,1,1,7
1570179725988174,-2,-2,0,-2,0,-1,-1,-7
1570179726012105,0,-3,-2,-1,0,-2,-3,6
1570179726012105,2,-1,-1,-2,0,-2,-3,-11
1570179726014099,0,0,-3,0,-1,-1,0,4
1570179726014099,-1,0,-1,-1,-1,0,-1,0
1570179726028062,2,-1,-1,0,0,2,1,6
1570179726028062,-6,-2,-2,-1,-1,-1,3,-8
1570179726029059,-4,-1,1,-1,-1,0,-3,-7
1570179726029059,5,0,1,-1,0,-1,1,9
1570179726042072,-1,0,-1,-1,0,1,0,4
1570179726042072,-1,-1,-1,-1,-1,-2,0,-2
1570179726056041,-1,0,-2,0,-1,-1,-1,-6
1570179726056041,-4,-1,-1,0,-1,0,-1,-5
1570179726071943,2,0,0,-2,1,0,-2,4
1570179726071943,1,-1,0,-1,0,0,-3,4
1570179726073937,6,1,1,0,-1,-2,-11,19
1570179726073937,-1,-2,0,-2,-2,-3,-1,-2
1570179726087901,-2,0,-1,1,-1,-1,-1,-1
1570179726087901,1,1,1,1,-1,-1,-3,1
1570179726089385,-2,-3,0,-2,0,-1,4,5
1570179726089385,-2,-2,-2,-1,0,0,0,-4
1570179726101871,-2,1,-1,0,-2,-3,-9,-7
1570179726101871,2,-1,-3,-3,0,0,3,-3
1570179726108842,0,0,-1,1,1,1,2,0
1570179726108842,1,1,0,-1,-3,-1,0,1
1570179726125063,-2,-1,0,2,-3,0,1,-5
1570179726125063,-2,0,-2,-1,0,-3,-4,2
1570179726126960,-2,-2,0,-1,-1,-3,1,-6
1570179726126960,-3,0,-2,-1,-1,-1,-3,-2
1570179726147740,2,-1,0,-1,0,0,0,4
1570179726147740,-1,-1,-1,1,-2,0,-2,0
1570179726149735,1,0,-1,0,0,1,0,0
1570179726149735,-1,-1,-1,1,0,0,-2,-3
1570179726161704,0,-2,-1,-2,-1,-1,2,4
1570179726161704,-1,-1,-2,-1,0,-1,2,5
1570179726168754,-2,-1,-2,-1,-1,-1,0,-7
1570179726168754,-1,-1,-1,0,1,-2,-1,-2
1570179726184848,0,0,1,1,0,-1,-1,0
1570179726184848,0,-1,0,-1,0,-2,-4,-1
1570179726186637,-1,-3,-1,-1,-2,0,1,-5
1570179726186637,5,1,0,-1,0,-1,-14,12
1570179726214561,-4,-2,0,-2,-1,-1,-1,-17
1570179726214561,12,2,1,0,0,-1,-4,22
1570179726216607,-3,1,0,1,-1,-1,3,-4
1570179726216607,-3,1,0,-1,-1,0,2,-8
1570179726220622,0,-3,0,-1,-2,-1,-1,-2
1570179726220622,-5,-2,-1,1,-1,1,2,-2
1570179726237780,4,3,1,1,1,0,2,7
1570179726237780,0,-1,1,1,0,-1,2,1
1570179726244482,-1,-1,-2,-1,0,-1,1,4
1570179726244482,-6,-2,0,0,0,-1,1,-13
1570179726246820,0,-1,-1,-3,-2,0,0,-1
1570179726246820,-4,-1,-1,-2,-1,-1,2,-2
1570179726267480,-2,0,-1,-1,0,0,2,6
1570179726267480,-3,-1,-2,0,-1,0,2,1
1570179726269415,-3,0,-1,2,0,-2,-4,-9
1570179726269415,-2,-4,-2,-3,0,0,3,-24
1570179726281383,3,0,0,1,0,0,-7,8
1570179726281383,-1,-1,1,1,0,-1,-1,-3
1570179726290359,-4,0,0,-1,-1,0,0,-5
1570179726290359,-1,0,-1,0,-2,0,2,-1
1570179726305318,2,1,-1,-3,-1,-2,2,2
1570179726305318,-2,-3,-2,-2,-1,1,1,4
1570179726306634,1,-3,1,-2,1,-2,-4,3
1570179726306634,-2,-1,0,0,-1,-1,-2,-5
1570179726327753,2,0,-1,0,-2,0,1,5
1570179726327753,1,0,-1,0,-1,-1,-3,4
1570179726329254,-3,-1,-2,-1,1,-1,1,-4
1570179726329254,-7,-1,-1,-2,-2,-2,-5,-6
1570179726341222,-5,-2,-1,-2,-1,0,7,-4
1570179726341222,0,0,-1,-1,-3,0,2,-3
1570179726350198,-1,-1,-1,-2,-2,0,-1,-1
1570179726350198,2,0,-1,-2,0,0,-2,5
1570179726365159,-3,-1,0,1,0,-2,-3,-5
1570179726365159,1,-1,-2,0,-1,-1,1,0
1570179726366155,-4,-2,-2,0,-2,-2,-3,-7
1570179726366155,0,-2,-1,0,0,0,1,6
1570179726387098,-4,-2,-1,-2,-1,0,12,-19
1570179726387098,0,1,0,-1,-1,-1,-3,4
1570179726389093,3,0,1,0,1,0,0,7
1570179726389093,0,-3,-1,-1,-1,-1,2,0
1570179726401061,1,1,0,-2,-1,-1,-2,5
1570179726401061,-5,-2,1,0,-1,-1,-4,-10
1570179726410037,-2,0,-1,-1,-1,0,0,-3
1570179726410037,0,1,0,1,-1,0,3,3
1570179726425006,0,1,1,1,3,-1,-6,-1
1570179726425006,0,-1,-1,0,-1,-1,-1,4
1570179726426993,5,-1,-3,-2,-2,0,-1,12
1570179726426993,1,1,-1,1,0,0,1,7
1570179726446939,-1,0,-2,1,-1,-1,-4,2
1570179726446939,-2,-2,0,0,0,0,0,-6
1570179726448932,-1,-2,0,-1,-1,0,1,-4
1570179726448932,-2,-1,-2,-1,0,-1,-1,-3
1570179726460903,1,0,1,0,-2,0,-2,2
1570179726460903,-5,-1,0,-2,-1,-1,-3,-15
1570179726469877,0,-3,-1,-1,-1,-1,-1,-11
1570179726469877,3,-3,-2,-2,-1,-1,2,8
1570179726484836,-3,-1,-3,0,-2,-1,6,-4
1570179726484836,9,2,2,0,2,-4,-19,14
1570179726486833,0,0,-1,0,-2,-1,0,0
1570179726486833,-1,-1,-1,0,-1,-1,-1,-3
1570179726507776,-1,-1,1,1,0,-1,-1,-3
1570179726507776,-3,-2,-2,-2,-2,-2,4,-5
1570179726509103,-2,0,0,-1,1,0,0,1
1570179726509103,3,3,0,0,0,-2,-3,6
1570179726520816,0,-1,-1,1,0,0,-3,5
1570179726520816,-3,-1,-2,-1,-1,1,4,-3
1570179726529717,0,0,1,0,0,-3,-5,1
1570179726529717,-3,0,0,0,-1,1,2,-8
1570179726544878,1,-1,0,1,-1,-2,-3,3
1570179726544878,-2,-1,0,1,2,1,3,-5
1570179726546671,-2,-3,-3,-3,-2,-1,2,-3
1570179726546671,-2,-1,-1,0,0,-1,-3,-10
1570179726567618,4,1,-1,-1,-1,1,0,9
1570179726567618,-2,0,1,0,0,-1,3,-2
1570179726568613,-1,-1,0,0,-1,0,0,-2
1570179726568613,-2,-1,0,-1,1,-1,-1,0
1570179726580582,-4,-1,-1,-2,-1,2,9,-12
1570179726580582,-3,-1,-3,-1,-3,-1,1,-5
1570179726589661,2,0,0,0,-1,1,-1,3
1570179726589661,-1,-1,1,-2,-1,-1,1,3
1570179726604524,-2,-2,0,-1,0,-1,-1,-3
1570179726604524,-2,1,-1,-2,-1,-1,1,-6
1570179726606516,7,1,-2,-2,-2,-1,2,12
1570179726606516,0,0,-1,0,-1,1,1,4
1570179726627736,-1,-2,-1,-2,-2,0,-4,7
1570179726627736,0,0,0,0,0,-2,3,1
1570179726629453,-4,-3,-1,-1,0,0,3,-8
1570179726629453,0,0,-1,0,-2,0,-2,6
1570179726641420,2,-3,-2,-2,0,-1,-3,5
1570179726641420,-1,-2,-1,1,0,2,0,-1
1570179726650399,-6,-3,-1,0,0,-1,3,-5
1570179726650399,1,-2,1,1,-1,-2,-1,5
1570179726665357,0,1,0,2,-3,-3,-5,-5
1570179726665357,-1,-1,0,0,-3,0,-1,0
1570179726666353,1,1,0,-1,-1,0,-3,-1
1570179726666353,-1,0,-3,-1,0,0,-2,-9
1570179726687297,2,0,0,0,1,-2,-1,8
1570179726687297,5,0,-1,0,0,2,4,23
1570179726689297,-1,0,1,-1,0,-1,-1,-1
1570179726689297,-2,0,-2,-3,-1,1,-1,-3
1570179726710236,0,-1,-2,-2,-1,1,-1,-3
1570179726710236,-7,-2,-1,-1,0,1,9,-20
1570179726711237,0,0,-2,2,-2,0,-4,3
1570179726711237,5,0,0,-1,-1,-2,1,12
1570179726725201,-5,-2,-2,-2,1,-2,-3,-1
1570179726725201,4,1,1,-2,-1,-1,-1,-5
1570179726727190,-2,0,0,0,-1,-2,-1,-2
1570179726727190,-3,-2,1,1,0,-1,-1,-7
1570179726747139,3,0,-1,-1,0,1,-2,4
1570179726747139,1,-1,-2,-1,-1,-2,-3,4
1570179726749133,-3,-1,0,0,-1,0,-1,-5
1570179726749133,1,-1,1,-1,0,0,-1,2
1570179726770082,-3,-1,0,0,2,-1,-2,-8
1570179726770082,-2,-1,0,-1,1,-1,-3,7
1570179726771158,-2,1,0,0,-1,0,-1,0
1570179726771158,-3,0,-1,0,-1,-1,1,-1
1570179726785036,0,1,-2,-1,-2,0,-2,-3
1570179726785036,-3,-3,-3,0,-2,-3,-5,-14
1570179726786035,2,-1,1,1,0,-1,0,4
1570179726786035,-1,-2,0,1,0,-1,-2,-7
1570179726806977,-1,-1,0,-2,0,-1,0,1
1570179726806977,0,-1,-2,0,1,-1,-1,2
1570179726808990,-2,0,-1,-1,-3,-1,1,-1
1570179726808990,1,-3,-3,-1,-1,1,0,-2
1570179726829930,0,0,-1,0,-2,0,-2,0
1570179726829930,-2,0,0,0,-2,-1,0,-6
1570179726831910,1,0,1,-1,0,1,0,0
1570179726831910,-4,-3,-2,-2,-2,-2,2,5
1570179726844886,0,-1,-4,-1,-2,-1,15,-7
1570179726844886,1,1,-1,2,1,-2,-2,3
1570179726850861,0,-2,-1,0,-1,0,0,2
1570179726850861,-2,1,1,0,0,0,0,-3
1570179726867817,-1,-2,0,-1,0,0,0,2
1570179726867817,-6,-2,-1,-2,-1,1,5,-6
1570179726868813,-1,-3,-2,-3,0,-3,-2,-2
1570179726868813,-3,1,0,-2,1,-2,-1,-7
1570179726889757,-1,0,1,1,1,-2,-4,-2
1570179726889757,4,0,2,-1,1,-1,-1,9
1570179726891751,-4,-1,0,0,0,-1,-4,-3
1570179726891751,0,-2,-1,-1,-1,-2,-5,-16
1570179726904717,0,2,-1,-1,0,0,0,3
1570179726904717,-2,-1,-1,-2,0,-1,-3,-3
1570179726910702,-1,0,-1,0,-1,-1,1,-1
1570179726910702,2,1,-1,-1,0,1,0,11
1570179726927655,1,-1,1,0,-1,-2,-4,-6
1570179726927655,-1,-1,-1,0,0,-1,-2,1
1570179726928653,-1,0,0,-2,-1,1,0,-8
1570179726928653,1,-1,-1,1,-2,0,2,15
1570179726949669,0,-1,0,-1,-1,-1,-2,0
1570179726949669,1,2,0,-1,0,0,0,7
1570179726951592,0,1,0,-1,0,1,0,-4
1570179726951592,-4,-3,-3,-2,-2,1,11,-14
1570179726964683,0,0,0,1,0,-3,-7,3
1570179726964683,-3,0,-1,0,-2,0,-5,-8
1570179726970545,0,-2,-1,-3,0,-1,-2,5
1570179726970545,-2,-1,-2,0,0,-1,1,-4
1570179726987497,-1,-2,0,-1,0,0,0,1
1570179726987497,-2,-1,0,-1,0,-1,0,1
1570179726988493,-1,-3,-2,0,0,-1,-2,-1
1570179726988493,1,1,2,-1,-1,-1,-6,3
1570179727010249,-1,0,-1,0,0,0,1,4
1570179727010249,3,1,-1,0,-1,1,-1,11
1570179727011435,0,0,-1,0,-2,0,1,-4
1570179727011435,1,1,1,1,1,1,-2,1
1570179727024395,-4,-1,-2,0,-2,0,1,-5
1570179727024395,-2,-3,-1,-1,-3,0,1,-6
1570179727031377,-2,-1,0,0,0,0,0,1
1570179727031377,3,0,-1,-1,-1,-1,-4,4
1570179727047334,-1,-1,0,-2,0,-1,-5,1
1570179727047334,-4,-1,0,-2,0,1,0,-10
1570179727049409,1,-2,-2,-1,-1,0,1,6
1570179727049409,2,1,-1,0,0,0,-2,2
1570179727070271,4,-2,-2,0,-1,2,4,3
1570179727070271,-4,-2,-1,-2,-4,0,9,-14
1570179727071269,0,2,0,-1,-1,-1,-5,-2
1570179727071269,-1,-1,0,0,0,0,-1,-2
1570179727084233,0,-1,0,-2,-1,0,-1,-1
1570179727084233,0,0,-2,0,1,0,1,4
1570179727091281,0,1,0,-1,-1,0,1,5
1570179727091281,3,2,1,0,-1,-2,-1,0
1570179727107181,-5,-1,0,0,-1,-1,-1,-6
1570179727107181,3,-3,-2,0,0,-3,-7,1
1570179727109167,-2,0,-1,-1,-2,-1,2,-3
1570179727109167,6,1,-1,0,0,0,2,29
1570179727129124,-2,-1,-1,-1,0,-1,-1,-6
1570179727129124,0,1,-1,0,-2,-3,-3,3
1570179727137298,1,-1,-1,0,-1,-1,-3,-3
1570179727137298,-3,-2,-2,-1,0,-2,-1,-5
1570179727144075,-3,0,-1,0,-1,0,0,-4
1570179727144075,2,0,-1,-2,-2,-1,-4,-3
1570179727151063,-4,-2,-2,-2,-1,0,-1,-7
1570179727151063,-3,0,0,-1,-2,-1,-3,-8
1570179727166015,-1,-1,-1,-1,-1,-1,0,2
1570179727166015,-2,-1,-1,0,0,0,-4,0
1570179727181975,5,0,0,-1,0,0,0,-3
1570179727181975,-4,-1,-1,-1,-2,0,2,-14
1570179727189954,3,1,1,-1,-1,0,-2,7
1570179727189954,0,0,0,0,0,1,3,5
1570179727191947,-4,-1,0,-1,-1,-2,-3,-3
1570179727191947,-2,-1,0,0,-1,-1,2,0
1570179727204018,1,-1,-1,-1,-1,0,0,-5
1570179727204018,-1,0,1,-1,0,1,0,2
1570179727212892,2,1,0,-1,0,-3,-16,1
1570179727212892,-3,-1,2,0,0,-2,-6,-2
1570179727227015,2,-1,-1,-1,-1,1,1,7
1570179727227015,0,0,0,0,1,0,-1,2
1570179727234917,1,-4,-3,-2,-1,0,6,5
1570179727234917,0,1,-1,-1,1,0,0,-2
1570179727249792,0,-1,1,0,0,1,-3,0
1570179727249792,-1,-1,-1,-1,-2,1,-2,0
1570179727251787,0,0,1,1,-1,1,3,0
1570179727251787,0,-2,-1,-1,1,1,0,2
1570179727263763,-7,0,0,-2,-1,-1,3,-7
1570179727263763,-1,0,-2,-2,-1,-1,-1,-3
1570179727278721,-5,-2,-1,-1,-4,-1,8,-7
1570179727278721,0,-1,-2,-2,-1,-1,-1,-2
1570179727294675,-1,1,0,0,1,1,-1,1
1570179727294675,0,0,-1,-2,0,-1,0,3
1570179727296711,-1,0,2,-1,1,-1,-1,0
1570179727296711,-3,-1,-2,-1,-3,0,-3,-11
1570179727309640,1,0,-1,0,0,-2,0,-1
1570179727309640,0,-1,0,1,0,-1,-1,0
1570179727311637,-2,-1,-1,-1,-2,0,-3,2
1570179727311637,-2,-1,-1,-1,-1,0,-4,-3
1570179727323596,2,-1,-2,-1,-1,-1,-2,3
1570179727323596,0,1,-1,2,0,-1,0,8
1570179727338628,-2,-1,0,0,-1,0,-3,-16
1570179727338628,1,-1,-2,-1,-1,1,2,10
1570179727347531,6,-1,0,1,-1,-3,-14,17
1570179727347531,-1,-1,0,0,-1,-2,-1,1
1570179727348531,6,1,-3,-1,-1,1,-3,5
1570179727348531,2,2,1,1,1,0,-1,0
1570179727370470,-5,-1,-1,1,-2,0,2,-11
1570179727370470,2,1,-1,-1,0,0,-1,-1
1570179727371751,2,0,0,2,1,-2,-1,9
1570179727371751,-2,-1,0,-1,-1,0,0,-4
1570179727383443,0,-2,-1,-1,-1,0,4,1
1570179727383443,-5,-2,0,-2,0,0,-1,-10
1570179727400388,-2,-1,-1,-1,-1,0,3,5
1570179727400388,0,0,0,-1,-1,-1,0,1
1570179727407371,-4,0,-2,-1,1,-3,1,-3
1570179727407371,0,0,0,0,-2,0,-2,1
1570179727409365,0,0,1,0,-1,0,1,3
1570179727409365,-3,0,-1,0,-1,-1,0,-12
1570179727430197,1,1,-1,0,-1,-1,-3,0
1570179727430197,-2,-3,0,1,0,-1,0,-6
1570179727431340,-3,0,2,-1,1,-2,-1,-2
1570179727431340,-1,-2,-1,-1,0,-1,0,3
1570179727443274,0,-1,0,-2,-2,1,5,2
1570179727443274,1,0,-1,-2,-1,-1,-1,0
1570179727460230,-2,0,-2,0,0,-3,-1,-4
1570179727460230,-1,0,-1,-2,-1,0,-2,0
1570179727467212,0,0,-1,-1,-2,-1,0,-1
1570179727467212,-4,-1,-1,-2,-1,-1,-1,1
1570179727469207,-2,-1,-1,-1,0,1,0,3
1570179727469207,-2,0,0,-1,0,0,1,1
1570179727489151,3,2,2,0,1,-1,-12,9
1570179727489151,2,0,1,1,-2,1,1,1
1570179727490154,1,0,0,0,0,0,-1,-1
1570179727490154,-6,-3,-2,1,-2,-1,5,-5
1570179727512090,2,-1,-2,0,-2,1,1,-8
1570179727512090,1,1,-1,-1,-1,-1,0,-1
1570179727512258,1,-1,0,-3,-2,0,0,2
1570179727512258,0,-1,-1,-1,-1,-2,1,0
1570179727535291,-3,-1,-1,-2,-1,-2,3,-2
1570179727535291,3,0,-3,-2,-1,-1,0,6
1570179727536028,6,1,-1,1,-2,0,0,9
1570179727536028,-2,-2,-1,-1,-1,-1,-4,-2
1570179727548992,-1,0,0,1,-1,-1,2,-7
1570179727548992,1,0,-2,-1,0,0,0,-2
1570179727549988,-5,0,0,-1,1,-1,0,-8
1570179727549988,1,1,0,0,0,-1,-3,-1
1570179727571930,-5,-5,-2,-1,-1,0,-2,-3
1570179727571930,-2,-3,-1,1,0,1,-1,-3
1570179727572108,-1,-2,1,-1,0,-2,-1,-1
1570179727572108,3,1,2,1,0,-1,0,18
1570179727586897,-1,0,-3,-1,0,1,3,3
1570179727586897,-1,1,0,-1,0,-2,-2,1
1570179727587889,-2,-1,-3,-1,-2,0,-2,-3
1570179727587889,-4,-4,-2,-2,-2,-1,8,-21
1570179727608832,2,-1,-1,0,-2,-2,-3,3
1570179727608832,0,0,-1,-1,-1,0,1,3
1570179727609933,0,0,-2,-2,-2,-1,-1,-2
1570179727609933,-2,1,-1,-2,-1,0,-1,-4
1570179727631773,1,0,0,-2,-1,-3,0,-2
1570179727631773,-3,-1,1,0,-2,-2,-2,-5
1570179727632770,-2,-1,0,1,-1,1,-2,-8
1570179727632770,3,0,0,0,0,0,-3,6
1570179727646906,-2,-1,0,-1,2,0,-2,1
1570179727646906,2,-1,-2,-2,0,-2,-1,5
1570179727647731,-2,0,0,-2,-1,0,0,-2
1570179727647731,-2,-1,-3,-2,-2,-2,-6,3
1570179727669670,-4,-1,2,0,-1,-3,-6,-26
1570179727669670,-3,-2,-1,0,0,1,1,-6
1570179727669670,1,0,1,-1,0,-1,-1,2
1570179727669670,1,-2,0,-2,-2,-1,0,5
1570179727691803,0,0,-1,-1,-2,1,5,1
1570179727691803,-4,0,0,0,-2,-1,-5,-5
1570179727692615,-7,-2,0,-1,-1,0,12,-15
1570179727692615,1,-2,-1,1,2,0,-6,-3
1570179727707421,-3,0,1,-1,0,0,2,2
1570179727707421,2,-2,-1,-1,0,1,-1,5
1570179727708654,2,0,-2,0,-1,-1,0,9
1570179727708654,0,0,1,0,0,0,1,-1
1570179727729511,-2,1,-2,1,0,0,0,-4
1570179727729511,0,1,-1,-1,-2,0,1,-3
1570179727729511,1,-1,-1,0,0,0,-4,-1
1570179727729511,1,1,-1,-1,0,0,-1,-2
1570179727760428,0,-1,0,-1,0,0,0,4
1570179727760428,-2,0,0,-1,1,0,0,-5
1570179727760606,-3,1,-2,0,1,-1,-3,-4
1570179727760606,5,2,0,-1,-1,0,-1,-2
1570179727766413,3,-2,-1,0,-2,1,2,8
1570179727766413,-3,-3,-1,-2,0,-1,3,5
1570179727767409,-1,-3,1,-1,-1,0,-1,3
1570179727767409,-2,0,-1,1,0,-1,0,1
1570179727789623,-1,0,-1,0,-1,0,0,-2
1570179727789623,0,1,0,-1,-1,1,-2,-5
1570179727790346,0,0,0,0,0,-1,-1,4
1570179727790346,1,-1,-1,0,1,-1,-1,4
1570179727812287,0,-1,-1,-1,-1,1,-2,1
1570179727812287,-6,-3,-2,-2,-3,-3,3,-8
1570179727813284,1,-1,-2,-3,0,-2,1,-1
1570179727813284,-4,0,0,-1,0,0,-6,-1
1570179727826249,3,1,-1,1,-1,-1,1,4
1570179727826249,0,-1,-1,0,0,0,0,-1
1570179727834228,-2,1,1,-2,-1,-2,-3,-8
1570179727834228,-1,-2,-1,-1,-1,0,4,-4
1570179727849806,-3,0,0,-2,0,-2,-1,3
1570179727849806,0,-1,1,0,0,-1,-4,-16
1570179727850192,3,0,0,1,-1,0,2,17
1570179727850192,1,0,-1,0,0,1,-1,3
1570179727872132,-1,0,-1,1,1,-1,0,0
1570179727872132,1,0,0,-1,-2,-2,-5,-3
1570179727873126,-2,0,-1,-1,2,1,-2,-7
1570179727873126,-2,1,-2,-2,-2,-1,-1,-2
1570179727887155,-2,0,0,-2,-1,-1,0,-2
1570179727887155,-1,-2,-1,-2,-1,-1,3,-4
1570179727887155,-2,0,-1,-1,-3,0,-2,-3
1570179727887155,5,2,1,1,1,-1,-14,14
1570179727910028,-1,-1,-2,-2,0,-3,-3,-5
1570179727910028,-1,0,-1,-1,0,1,1,4
1570179727911025,3,-1,1,0,-1,-3,0,4
1570179727911025,-1,-1,-2,-1,-1,0,4,-5
1570179727931972,0,-1,-1,0,-3,-1,1,0
1570179727931972,-2,-1,-2,0,1,0,-1,3
1570179727932661,2,-1,-2,2,-1,0,1,-6
1570179727932661,-2,-1,0,-1,0,-2,0,-4
1570179727946931,-3,-2,0,-2,-1,0,4,-5
1570179727946931,2,-1,-1,1,-2,-2,-2,7
1570179727948014,1,-1,-2,-2,-1,-1,-1,-1
1570179727948014,-3,-2,0,0,-2,-1,1,-3
1570179727968873,-2,-2,-2,-1,-1,-1,-2,-14
1570179727968873,1,1,0,1,2,-1,-1,3
1570179727969868,-1,-1,0,-1,-1,0,1,0
1570179727969868,3,1,0,1,-1,0,3,13
1570179727991808,2,0,0,-1,-1,1,-4,2
1570179727991808,1,-1,1,0,0,0,-1,4
1570179727993057,-3,0,1,0,0,0,-4,-2
1570179727993057,-2,-4,-2,-2,0,-1,1,-9
1570179728016742,0,-1,1,-1,-2,0,0,-2
1570179728016742,-10,-2,-2,-2,0,2,12,-25
1570179728017740,0,2,2,1,2,-2,-7,7
1570179728017740,3,1,-1,-1,-1,0,0,3
1570179728029707,1,0,2,0,0,-4,-2,2
1570179728029707,-1,-2,-1,-3,-1,0,1,-1
1570179728029770,-3,-1,-2,0,-3,-2,1,-1
1570179728029770,-4,-1,0,-1,-2,0,1,-4
1570179728051700,-2,-2,0,0,0,0,-5,-12
1570179728051700,2,1,0,1,-2,-1,-2,10
1570179728052747,-1,-3,-1,-1,-2,-1,-1,-5
1570179728052747,3,-1,-2,-2,0,-1,-1,5
1570179728066632,-1,0,-1,-1,-1,-1,0,3
1570179728066632,0,-1,1,0,-2,-2,-4,4
1570179728067610,-6,-2,-3,-1,-1,-1,5,-13
1570179728067610,-5,-2,-1,-1,-1,0,1,-5
1570179728089548,1,0,-2,-1,0,0,-1,4
1570179728089548,0,0,-2,0,-1,0,-1,5
1570179728090546,-2,-2,-1,-2,-1,-2,1,-7
1570179728090546,0,-1,-2,0,-1,1,0,-2
1570179728128615,-6,-2,-2,-2,-3,-2,10,-12
1570179728128615,4,3,-1,0,0,-1,-3,11
1570179728129622,0,-2,-1,0,-1,-1,0,2
1570179728129622,-1,1,1,-1,-1,-2,-1,2
1570179728131436,-3,-2,0,1,-1,1,2,-7
1570179728131436,0,0,-2,-1,1,0,-3,0
1570179728134552,1,-1,-1,-2,-1,0,-3,2
1570179728134552,-1,-1,-1,0,-1,0,0,-6
1570179728149390,-1,-1,0,1,1,1,-2,5
1570179728149390,1,-2,0,2,-2,-1,-1,0
1570179728150384,1,0,0,1,0,0,-3,5
1570179728150384,-1,1,0,1,-1,-3,-4,0
1570179728171330,3,0,-1,-2,-1,-1,-3,5
1570179728171330,0,-1,-1,-2,-2,0,-3,-4
1570179728179311,3,0,1,0,-2,-1,-1,5
1570179728179311,-1,1,-2,0,0,0,0,4
1570179728186291,-1,1,1,1,0,-1,-4,-7
1570179728186291,-2,-2,0,-2,-1,-1,0,0
1570179728194271,-5,-1,0,1,2,0,0,-8
1570179728194271,4,-3,-1,-1,-1,0,0,9
1570179728209227,0,1,0,-1,0,1,1,12
1570179728209227,0,0,-1,0,-1,1,-1,0
1570179728210231,-5,-2,0,-1,-1,-1,-1,-6
1570179728210231,3,-1,0,-1,-1,-1,0,-1
1570179728233610,1,-1,-3,-1,-1,1,0,5
1570179728233610,-2,-2,0,-2,1,-1,6,-11
1570179728234238,6,1,-1,-1,-1,-1,-6,15
1570179728234238,-9,-3,1,-2,-3,-3,-3,-22
1570179728246128,2,0,1,-1,-3,-2,-1,0
1570179728246128,-1,-1,-2,0,-1,1,2,-1
1570179728254109,0,0,-1,0,-1,0,0,-4
1570179728254109,-2,-3,-1,-2,-1,0,2,3
1570179728269068,-1,1,-1,0,0,-2,-6,2
1570179728269068,1,-1,0,0,1,-2,-2,1
1570179728270064,-5,1,0,0,-2,-2,0,-8
1570179728270064,-1,0,-2,0,-1,1,-3,-2
1570179728292098,-4,-1,-2,-1,1,-2,1,0
1570179728292098,1,-1,-1,0,-1,-1,-1,1
1570179728293004,2,-1,-2,-1,1,1,2,3
1570179728293004,1,0,-1,0,1,1,1,2
1570179728306090,-2,-2,-1,1,-2,0,-1,0
1570179728306090,3,-1,-1,0,-2,-1,-5,6
1570179728313950,0,0,1,-3,-2,-1,0,2
1570179728313950,-2,-1,1,0,0,0,-1,-3
1570179728328910,-1,-1,-2,-1,1,-1,5,1
1570179728328910,2,1,1,1,1,-3,-14,8
1570179728329909,-1,-2,-1,-2,-1,1,2,1
1570179728329909,1,-1,-1,0,-2,-1,0,3
1570179728351850,1,-1,0,0,-1,0,0,4
1570179728351850,-5,-1,-1,-1,-1,-1,2,-7
1570179728352843,1,-1,-1,1,-1,1,0,12
1570179728352843,-4,-2,-1,-2,0,-3,-7,-8
1570179728365811,0,-1,-1,0,-1,0,-2,-4
1570179728365811,-3,-1,-1,-1,-2,0,1,-3
1570179728374667,0,-1,-1,0,0,0,0,0
1570179728374667,0,0,0,1,0,0,4,-1
1570179728388747,0,-1,0,-1,0,0,-1,-3
1570179728388747,-3,-1,-2,0,-2,0,1,-1
1570179728389812,0,1,-3,-1,0,0,2,-3
1570179728389812,-2,0,-1,1,-1,-2,-2,-4
1570179728411687,3,-1,0,-1,0,-1,-1,6
1570179728411687,-1,-2,1,-1,0,-2,1,-1
1570179728412777,-1,-2,0,0,-1,0,-2,-7
1570179728412777,2,0,-2,-1,-1,0,-2,3
1570179728426646,1,-1,1,-1,-1,0,-1,3
1570179728426646,-2,-1,-2,-2,-1,-1,-2,-11
1570179728434624,1,2,0,-1,-1,1,3,-2
1570179728434624,3,1,2,-1,-1,-2,-19,0
1570179728449586,-3,-1,-2,0,0,-2,0,-5
1570179728449586,3,-1,-1,-1,-1,-1,3,8
1570179728449586,1,-1,-3,-1,0,-1,1,5
1570179728449586,-2,1,-1,1,-1,-1,4,-7
1570179728471525,0,-2,-3,-2,-2,0,0,1
1570179728471525,-1,0,1,0,-1,-2,-4,-3
1570179728472526,-1,-1,-2,-1,-2,-3,-3,3
1570179728472526,1,1,-1,0,2,1,4,3
1570179728486557,0,1,-1,1,-2,0,-6,0
1570179728486557,-3,0,0,-3,0,0,5,2
1570179728494466,-2,-1,1,0,0,-1,-1,-8
1570179728494466,-1,-2,-2,0,0,-1,2,3
1570179728509426,1,0,-1,-1,-1,-1,-1,1
1570179728509426,-3,-2,-2,-1,-2,0,0,-3
1570179728510490,5,0,-1,-1,-1,-1,-1,3
1570179728510490,-2,-2,-1,-2,-1,0,3,-3
1570179728531464,-1,1,0,0,0,1,0,-1
1570179728531464,3,0,-1,0,-2,0,-5,10
1570179728532508,-6,-1,0,-2,-1,-2,-5,-15
1570179728532508,0,0,2,-1,0,-1,2,-4
1570179728546327,0,0,-1,-1,1,-2,-1,6
1570179728546327,-2,0,1,1,0,0,-2,-8
1570179728554352,-1,0,0,-1,2,-1,-1,0
1570179728554352,3,0,0,-2,-2,-1,-2,2
1570179728570264,-4,-2,0,-1,0,0,2,-6
1570179728570264,0,1,-2,-1,1,-1,-2,-5
1570179728570264,1,-1,-3,0,-1,-2,2,8
1570179728570264,-3,1,-1,0,-2,0,1,-1
1570179728591205,0,-1,0,-1,0,-1,-2,-3
1570179728591205,1,0,0,-1,0,0,0,4
1570179728592205,0,0,-1,0,-1,1,-1,3
1570179728592205,-4,-1,0,-2,0,0,0,-3
1570179728622160,9,3,1,1,0,0,-14,8
1570179728622160,0,0,0,0,1,-1,1,3
1570179728623119,0,-1,1,-2,-1,-1,1,-1
1570179728623119,-1,-2,0,0,-1,-1,2,6
1570179728629103,-10,-5,-2,-2,-2,-3,-1,-28
1570179728629103,-6,-3,-1,-1,-2,1,11,-15
1570179728630199,-3,1,1,1,0,-1,-9,-4
1570179728630199,2,-1,-2,0,1,0,0,2
1570179728652041,-2,0,-1,0,-3,-2,2,-1
1570179728652041,0,0,-1,2,-1,0,0,4
1570179728652041,-3,-3,-1,-2,0,1,2,-3
1570179728652041,-2,-2,-1,-3,0,0,0,-1
1570179728673983,2,0,-2,-1,0,0,-1,5
1570179728673983,-3,0,0,0,0,-1,-6,-6
1570179728681962,2,-1,-1,1,-1,0,2,8
1570179728681962,2,1,0,0,-2,-2,-1,4
1570179728688989,-2,-1,-1,0,0,0,4,0
1570179728688989,0,1,0,-1,-1,-2,-4,-1
1570179728689941,0,-1,-1,-1,1,0,-1,1
1570179728689941,1,-2,2,-1,0,0,1,0
1570179728712879,-2,0,1,0,-1,-2,3,3
1570179728712879,2,0,1,0,-1,-1,-6,2
1570179728712879,-5,-1,-3,-2,-2,-1,4,-20
1570179728712879,-3,0,-1,-1,-1,-2,-11,-9
1570179728734821,-2,1,0,-1,-2,-1,-4,-2
1570179728734821,3,-1,-1,-2,0,0,-2,-8
1570179728735818,1,-2,-1,-1,-2,-2,-2,-3
1570179728735818,-4,-1,-3,-1,-2,0,1,-1
1570179728748829,2,-2,-1,-2,1,2,3,10
1570179728748829,5,0,-2,0,-2,-2,1,14
1570179728749780,-2,-1,-1,-2,0,-1,0,3
1570179728749780,-3,1,-2,-2,1,0,2,-4
1570179728771723,1,0,-3,0,-1,0,0,4
1570179728771723,-2,-1,1,1,0,0,-1,3
1570179728772719,2,0,-2,0,0,-2,-3,7
1570179728772719,1,-1,-1,-1,-1,0,2,0
1570179728794661,0,1,0,-1,-3,-1,0,-8
1570179728794661,0,0,0,1,-1,-1,0,-1
1570179728795658,-2,-2,-2,1,-1,0,-2,8
1570179728795658,-3,0,0,0,0,-1,1,8
1570179728808622,-2,-1,-1,-1,0,-2,1,8
1570179728808622,-5,0,0,-2,0,-1,7,-10
1570179728809657,5,3,2,0,1,0,-6,16
1570179728809657,4,0,-1,-2,-2,-2,0,-2
1570179728831562,-5,-3,0,-1,-1,1,9,-15
1570179728831562,0,-2,-2,-2,1,2,3,-6
1570179728839540,0,1,1,1,-1,-3,-1,-7
1570179728839540,-1,-3,0,1,-1,0,2,-2
1570179728856494,1,-1,-2,-1,1,-1,-5,-11
1570179728856494,4,1,0,-1,-2,-4,-2,4
1570179728856494,-3,-1,-1,-2,-1,0,2,-9
1570179728856494,-2,0,0,-1,-1,1,2,-1
1570179728869460,0,-1,-2,1,-1,0,-3,3
1570179728869460,-1,0,0,1,0,0,0,2
1570179728870494,1,0,-1,0,-2,0,1,-3
1570179728870494,-2,0,-1,1,0,-1,0,-8
1570179728891401,2,0,1,-1,-1,-1,1,7
1570179728891401,-1,-1,-2,-1,-1,-1,-3,2
1570179728899380,-1,-2,0,-2,0,0,-1,-4
1570179728899380,2,0,-1,-2,-1,-2,-1,4
1570179728914341,0,1,1,0,0,-1,-1,1
1570179728914341,-4,-1,-2,0,-1,-1,-3,-5
1570179728921323,3,-1,-1,-2,-1,-1,1,-3
1570179728921323,1,0,-2,0,0,1,4,-3
1570179728929320,4,1,-1,1,0,-1,-11,11
1570179728929320,-5,-3,-1,-1,0,-1,-2,-14
1570179728930368,-3,-1,-1,0,1,-1,-1,-3
1570179728930368,-2,-1,1,-1,-1,0,1,-5
1570179728952240,-1,-1,-2,-2,-3,-2,5,0
1570179728952240,-1,0,-1,1,0,0,-1,2
1570179728953236,2,0,1,-1,-1,0,-10,10
1570179728953236,-1,-1,0,2,0,0,-4,-2
1570179728975177,-3,0,0,0,0,0,1,-2
1570179728975177,2,2,0,0,-1,-2,-2,5
1570179728975177,-4,-2,-2,-1,-2,-3,-1,-5
1570179728975177,1,-1,-1,0,0,0,0,4
1570179728989140,-1,-2,-3,-1,-2,-1,0,0
1570179728989140,-2,-1,-1,-1,-2,-1,0,-4
1570179728990137,1,0,-1,0,0,1,4,4
1570179728990137,-3,0,0,-2,-1,-2,-4,-5
1570179729012127,1,-3,0,-1,-1,1,8,8
1570179729012127,0,-1,0,0,0,-2,-2,1
1570179729012127,-3,-2,1,0,-1,1,2,0
1570179729012127,2,1,-2,-1,1,-1,-4,-3
1570179729035059,-1,0,1,-1,-1,-1,1,-3
1570179729035059,2,2,-1,-1,1,0,-1,1
1570179729036015,-7,-1,-1,1,1,-1,-1,-4
1570179729036015,-3,-2,-2,-1,-2,0,4,-1
1570179729047984,1,0,-1,0,-1,0,-3,0
1570179729047984,2,0,1,0,0,2,0,5
1570179729056009,-2,-2,-3,-2,-2,-2,0,-4
1570179729056009,2,-1,0,0,-1,1,-1,6
1570179729071920,-8,-5,-4,-1,-2,-1,8,-13
1570179729071920,-1,0,-2,-1,-2,-3,-4,3
1570179729071920,2,-1,0,-1,-1,-1,2,8
1570179729071920,-2,-1,0,0,-1,-2,-1,-1
1570179729094857,-1,2,0,0,0,0,-1,1
1570179729094857,-2,-2,-2,-1,0,0,9,-10
1570179729095855,0,-2,-1,-2,1,-1,-2,-4
1570179729095855,3,-1,-1,-1,0,-1,2,5
1570179729108820,-2,-1,0,0,-1,-2,-6,0
1570179729108820,-2,-1,0,-2,0,-1,-2,-8
1570179729123986,2,1,0,1,-2,-1,0,4
1570179729123986,-3,-2,-1,0,2,-2,-3,-3
1570179729131758,-2,-2,0,-1,0,-1,1,-5
1570179729131758,3,-2,-1,-1,-2,0,-1,8
1570179729132758,-4,-3,-3,-2,-1,1,-1,-9
1570179729132758,1,-1,-2,0,0,0,1,3
1570179729154699,-1,1,1,1,-2,-1,-2,-1
1570179729154699,2,2,2,0,-1,0,-2,5
1570179729155695,1,-1,0,-1,-2,0,0,-3
1570179729155695,-2,0,-2,-1,-1,0,-1,2
1570179729168661,0,0,-1,-1,-1,-3,-4,0
1570179729168661,9,2,0,0,1,-3,-22,22
1570179729176639,-2,0,-2,-2,0,-1,1,-3
1570179729176639,1,0,-1,-1,-2,0,1,3
1570179729191666,2,-1,-1,-1,0,0,-3,3
1570179729191666,-2,-2,-1,-1,-2,-1,4,-6
1570179729192869,-7,-2,-1,1,-1,0,1,1
1570179729192869,6,-2,-1,-1,0,-1,-2,7
1570179729214541,-1,0,-1,0,0,-1,0,-7
1570179729214541,-1,-3,0,0,0,-1,3,-2
1570179729215753,-1,1,0,0,0,-1,-1,-8
1570179729215753,-3,-2,1,-1,-1,2,5,5
1570179729228501,1,0,-1,-1,-2,0,-1,-2
1570179729228501,-2,-1,-2,-2,1,1,4,2
1570179729236742,1,2,-1,-1,0,-2,-2,2
1570179729236742,-1,1,1,1,-1,-1,-3,-2
1570179729251505,3,2,-1,-1,0,-1,0,2
1570179729251505,-3,0,-1,1,-2,-2,1,-1
1570179729252438,-1,-3,-4,-3,1,2,15,3
1570179729252438,1,1,0,2,0,-4,-5,-9
1570179729275413,1,0,0,-1,0,-1,0,2
1570179729275413,-1,-1,-1,-1,-1,1,0,0
1570179729275413,-3,1,-1,0,0,-2,-3,-6
1570179729275413,-5,-1,-1,-4,-2,-1,-1,-8
1570179729288342,-2,-1,-1,0,1,2,0,-2
1570179729288342,3,2,-1,0,0,0,3,3
1570179729296322,5,2,1,-1,0,-1,0,4
1570179729296322,-5,-4,-3,-1,0,-2,-3,-4
1570179729311278,-1,-1,-1,-1,-2,1,1,8
1570179729311278,0,-1,-2,-1,-2,-1,0,-3
1570179729312276,0,-2,0,1,-2,-2,-5,4
1570179729312276,1,0,-1,0,-1,0,0,5
1570179729334218,-3,-1,-1,-1,1,0,0,-5
1570179729334218,-1,0,0,-1,0,-2,2,-1
1570179729341227,1,-1,0,-2,0,-1,-3,0
1570179729341227,-2,0,-2,-1,-1,-2,-1,-6
1570179729349177,-3,-1,0,0,-1,-2,-3,-7
1570179729349177,-2,0,1,0,-2,-2,-1,0
1570179729357203,1,0,0,1,-1,-2,-5,0
1570179729357203,-1,-2,0,-1,0,0,1,-3
1570179729371855,2,-2,-2,0,1,0,-5,1
1570179729371855,-4,1,-1,0,0,-1,-2,-2
1570179729372860,-1,-2,-2,0,-1,2,0,-17
1570179729372860,6,3,2,1,0,-3,-6,10
1570179729402473,-1,-4,-5,-3,-3,-1,5,-2
1570179729402473,-4,-2,-2,-2,0,-1,-1,-7
1570179729403472,0,0,0,1,0,-1,0,5
1570179729403472,-5,0,-2,0,-1,0,2,-10
1570179729408458,0,1,0,0,1,-1,-1,7
1570179729408458,-1,-3,-1,-1,-1,0,2,-1
1570179729417438,0,-1,-2,1,-1,0,-1,4
1570179729417438,0,-3,-1,-3,0,0,3,0
1570179729431490,0,0,2,2,-1,0,-3,-1
1570179729431490,-1,0,-2,0,-2,0,-3,0
1570179729432734,-3,1,-1,-1,1,-1,0,0
1570179729432734,1,0,0,-2,-2,-1,-1,2
1570179729455324,0,0,0,-1,0,-2,1,3
1570179729455324,-1,0,-1,0,0,-2,1,-17
1570179729455425,5,1,0,-1,0,-1,-8,14
1570179729455425,2,-1,1,0,0,0,0,4
1570179729468391,1,0,0,-2,-2,-2,-2,1
1570179729468391,-4,1,-1,-1,-1,-2,0,-5
1570179729476459,-5,-1,-2,-2,-1,-1,1,-12
1570179729476459,0,-2,-2,1,0,1,0,7
1570179729491573,-1,0,0,0,0,-1,0,3
1570179729491573,1,-2,0,0,1,1,1,4
1570179729492699,-2,-1,0,-2,0,0,8,-7
1570179729492699,-6,1,-1,-1,-2,-2,-4,-8
1570179729514634,3,-2,0,-1,0,1,2,0
1570179729514634,1,0,-1,0,-1,0,0,14
1570179729515631,-3,0,0,-1,-1,-1,1,0
1570179729515631,-1,2,1,0,0,1,2,-6
1570179729537616,-1,0,-1,1,0,-1,-1,-5
1570179729537616,-2,-1,0,-2,-3,-2,0,-2
1570179729538613,2,-1,-1,-2,-2,-1,-3,1
1570179729538613,0,-2,-3,2,-1,-1,1,0
1570179729551578,-1,-2,1,1,1,-1,-2,-2
1570179729551578,1,-2,0,1,0,-1,-1,3
1570179729552780,-1,1,1,-1,-1,-1,-1,-1
1570179729552780,-2,-2,0,-1,-1,-1,-2,0
1570179729574598,-3,-1,0,-1,-1,0,1,-5
1570179729574598,1,0,-1,-3,0,0,0,0
1570179729575596,-2,-2,-1,0,0,0,-2,-2
1570179729575596,-4,0,-2,-1,0,-2,-1,-11
1570179729597720,4,2,-1,0,1,2,4,20
1570179729597720,-2,-1,-2,0,-1,-2,-3,0
1570179729597720,2,0,-1,1,-2,0,-2,5
1570179729597720,-1,-1,-1,-2,-1,-1,1,10
1570179729611581,-3,-1,-1,0,-1,-1,-1,16
1570179729611581,-1,0,0,-1,0,1,0,9
1570179729612606,-2,-2,-2,1,1,0,0,15
1570179729612606,1,-1,-1,0,0,-2,0,4
1570179729642724,-3,0,-3,-2,-4,0,-2,-7
1570179729642724,3,2,0,3,0,0,1,-3
1570179729643571,-2,-1,-1,0,-2,-1,-2,-15
1570179729643571,-2,-1,-2,-2,-1,0,-1,-13
1570179729657580,0,-1,-1,-3,-3,-2,-3,-13
1570179729657580,-3,-2,-2,-1,1,-1,0,-8
1570179729658580,4,0,13,0,-2,-2,2,7
1570179729658580,2,1,-13,-4,7,3,1,1
1570179729680550,-11,-3,-6,-2,-8,-1,0,-20
1570179729680550,-7,-7,-8,-17,-4,-1,-1,-12
1570179729681516,0,3,5,13,16,6,4,2
1570179729681516,9,11,18,20,8,0,1,6
1570179729694482,7,-5,4,-4,-11,-6,-10,7
1570179729694482,12,9,-11,6,2,-2,0,10
1570179729695479,-14,9,15,1,-4,-2,13,-21
1570179729695479,-9,-8,10,2,8,9,-6,0
1570179729717421,-2,2,-11,-5,19,7,8,2
1570179729717421,-1,-8,-4,1,-33,-20,-21,-24
1570179729718418,-10,-20,-21,-18,4,1,6,9
1570179729718418,14,11,4,5,-4,-4,-1,-2
1570179729731436,39,24,12,-1,-12,-3,4,50
1570179729731436,-55,-62,-2,0,9,7,3,-22
1570179729732574,7,6,5,18,-4,-3,1,-13
1570179729732574,-2,-5,-15,-6,7,-1,1,-14
1570179729754389,5,15,2,2,4,3,1,-37
1570179729754389,8,18,6,-6,4,6,9,-85
1570179729755574,-6,-5,2,3,-3,-5,-14,-83
1570179729755574,-12,-9,-7,-8,-7,-1,-4,-51
1570179729777260,3,5,3,13,9,-1,1,-56
1570179729777260,14,13,8,-2,-1,3,10,-23
1570179729778258,-14,-22,-18,-20,-9,-1,-9,-24
1570179729778258,11,7,-2,3,-1,0,12,2
1570179729792221,16,10,26,13,6,1,-4,59
1570179729792221,-21,2,18,4,2,4,8,73
1570179729793219,35,25,-1,1,3,-3,-24,68
1570179729793219,11,-2,14,1,1,-1,11,42
1570179729814164,-5,-28,-37,-20,-21,-7,-11,24
1570179729814164,-6,-2,-7,2,11,2,30,33
1570179729822140,-13,4,-2,-8,-19,-12,-8,25
1570179729822140,-14,-15,-7,0,-3,-9,-26,-2
1570179729836165,-8,-2,4,6,19,9,15,0
1570179729836165,-9,-9,-11,-8,3,3,-10,39
1570179729844143,18,20,5,-3,-18,-1,59,41
1570179729844143,-8,-5,3,5,2,-2,-32,14
1570179729852123,-14,-7,-14,-10,-15,-15,-26,-11
1570179729852123,6,-1,-22,-18,3,-4,-46,8
1570179729852123,-34,-40,-5,-4,10,5,13,6
1570179729852123,26,33,-3,7,-9,-1,-4,-11
1570179729875195,-10,-3,22,5,46,21,18,4
1570179729875195,20,24,5,9,-41,-23,1,-5
1570179729876058,4,23,18,22,13,7,-10,6
1570179729876058,-18,-46,-13,-21,-16,-1,6,3
1570179729904983,-35,-17,-25,2,2,-2,-4,-14
1570179729904983,27,12,7,14,32,10,3,-1
1570179729905982,8,4,4,4,1,-8,-17,-9
1570179729905982,-8,4,-5,-31,-2,8,10,4
1570179729911964,6,15,17,31,12,4,7,-2
1570179729911964,4,-7,-6,-13,-38,-17,-3,16
1570179729913176,-26,-27,-18,-8,-3,1,-12,-21
1570179729913176,15,8,-4,15,28,12,7,7
1570179729934979,-12,-17,-6,-23,-7,-6,-5,-12
1570179729934979,-1,5,7,5,-16,3,2,0
1570179729935979,0,5,-6,-14,-1,4,3,5
1570179729935979,31,23,4,-1,-13,-10,6,1
1570179729958917,-14,-1,20,22,1,-2,0,-1
1570179729958917,18,13,-4,-3,21,12,2,-8
1570179729960911,-16,-21,-13,-11,-1,-7,-6,-6
1570179729960911,-2,-12,-4,-3,11,10,4,-1
1570179729970892,2,-2,-27,-29,-26,-9,-2,0
1570179729970892,-26,-9,12,-2,-2,-5,5,6
1570179729979860,5,15,9,29,25,14,0,8
1570179729979860,31,8,-1,-6,-3,-6,-4,3
1570179729995037,31,15,-1,-1,-19,-11,-1,0
1570179729995037,-28,-33,-13,-5,-7,-5,-2,4
1570179729996921,-20,-8,-1,-14,-39,-20,-10,-1
1570179729996921,-5,22,4,2,9,2,5,10
1570179730017759,-22,-18,14,16,3,3,-1,-9
1570179730017759,71,52,5,15,-11,-5,-8,-16
1570179730018757,21,11,-10,-18,17,1,-2,-9
1570179730018757,-51,-27,9,7,-9,-4,10,11
1570179730030757,-34,-5,21,32,12,6,8,8
1570179730030757,30,6,-17,-20,-7,3,-3,-7
1570179730039702,48,14,-9,-19,-11,-1,-7,-31
1570179730039702,22,18,-3,-4,2,7,5,7
1570179730054660,-41,-6,8,11,-14,-13,-2,-2
1570179730054660,-10,-20,3,-3,-19,-4,-1,1
1570179730056657,24,4,19,31,47,20,8,13
1570179730056657,-16,-1,7,8,-40,-28,-3,-6
1570179730077609,59,48,-12,-22,23,11,1,-5
1570179730077609,-44,-28,-6,-5,0,-6,-6,-18
1570179730078597,-1,-5,5,1,-6,3,10,2
1570179730078597,-40,-15,0,2,2,4,-20,-9
1570179730091572,-17,-56,-17,-21,-20,-6,-1,15
1570179730091572,17,31,1,-8,25,10,9,-15
1570179730100618,1,15,15,29,5,-1,-4,-1
1570179730100618,21,6,2,-1,20,17,20,16
1570179730122575,-15,-28,-19,-6,-26,-24,-15,-21
1570179730122575,6,-7,2,14,24,9,-1,2
1570179730123836,-31,-25,-4,-4,-11,-10,-4,5
1570179730123836,33,48,7,-4,-10,-7,0,-6
1570179730137450,-13,-36,-30,-34,-3,7,-5,-12
1570179730137450,-33,-31,0,0,-4,3,9,22
1570179730139514,42,40,5,5,26,9,0,0
1570179730139514,-11,-13,-7,-6,-36,-19,4,-4
1570179730151401,6,14,9,15,4,7,2,7
1570179730151401,-10,0,6,18,5,-8,-6,-8
1570179730160379,-25,-14,-7,-11,-16,-6,-4,-15
1570179730160379,49,18,-8,-9,15,7,-1,-8
1570179730175338,7,10,6,4,-3,-10,-5,0
1570179730175338,-13,6,-4,-25,-7,2,0,-16
1570179730177333,-16,-19,-2,-8,-1,2,5,-6
1570179730177333,-15,-36,-11,11,1,-2,-5,-7
1570179730197293,19,10,-13,-22,-8,-3,-2,-21
1570179730197293,6,10,7,20,16,3,0,14
1570179730199276,-16,-17,-5,-14,-12,-3,-3,19
1570179730199276,-1,29,13,12,-1,-1,0,1
1570179730211313,-27,-20,-6,-8,8,13,2,5
1570179730211313,8,8,7,1,-4,-3,3,8
1570179730220220,50,13,-5,-12,-6,-4,0,4
1570179730220220,-53,-51,2,18,22,15,3,-11
1570179730235181,38,21,2,0,-8,-2,-3,12
1570179730235181,-54,-5,19,31,4,-2,-2,-22
1570179730236429,40,31,-13,-21,-16,-3,-4,-11
1570179730236429,7,-10,10,8,-4,-10,-2,18
1570179730257119,-7,-8,-3,-10,2,4,6,3
1570179730257119,11,-8,-5,-4,12,9,0,3
1570179730259115,-40,-30,-3,-9,-20,-10,-3,5
1570179730259115,26,19,-9,-9,-7,-4,-5,-11
1570179730271341,-23,-5,5,5,1,5,7,-3
1570179730271341,45,43,6,11,11,-2,-5,0
1570179730288038,-15,-11,0,6,5,7,17,7
1570179730288038,-16,-9,-5,-1,17,0,-9,-8
1570179730294023,10,2,11,8,-4,1,6,10
1570179730294023,18,23,-5,-14,-9,-1,-1,8
1570179730308980,2,17,-4,4,1,-2,-2,-1
1570179730308980,0,-2,-9,-26,-10,-6,-6,-9
1570179730316960,10,7,8,29,-2,1,1,9
1570179730316960,-14,-12,5,1,1,1,0,8
1570179730318954,-42,-27,-3,6,-3,-8,-3,-7
1570179730318954,-6,-1,-9,-5,-2,1,-1,4
1570179730330922,38,34,11,-10,1,-4,-6,-9
1570179730330922,-7,-32,-18,-16,-6,-1,-1,-2
1570179730339900,-3,-2,7,9,6,9,3,-5
1570179730339900,-19,-7,-6,-11,-19,-7,-2,-1
1570179730354860,-17,5,-4,-13,0,0,-1,-10
1570179730354860,2,-20,1,4,-13,-9,-2,-3
1570179730356852,0,1,-13,-17,-4,0,-5,-7
1570179730356852,9,11,23,35,21,5,-10,8
1570179730377797,20,21,-1,5,0,-2,2,6
1570179730377797,-34,-1,10,-2,-1,-1,1,-2
1570179730378795,5,4,-21,-8,-1,-1,-4,-3
1570179730378795,-32,-16,22,6,2,0,-1,-21
1570179730399737,1,9,5,-4,-5,1,0,4
1570179730399737,-6,-38,-16,5,27,9,-3,13
1570179730401732,-6,2,-5,2,8,2,2,3
1570179730401732,5,2,-6,-8,-26,-8,5,30
1570179730413835,13,7,-17,-16,-27,-15,-8,6
1570179730413835,3,4,12,-14,-27,-19,0,-10
1570179730420926,7,11,14,30,38,26,24,10
1570179730420926,5,-6,2,-2,20,7,11,-8
1570179730437639,-10,12,2,-20,-27,-14,-31,-31
1570179730437639,9,-24,-22,-4,-5,-5,11,2
1570179730438696,1,11,-13,-15,-16,-17,-49,-38
1570179730438696,10,7,13,1,12,3,17,38
1570179730450650,8,-43,-34,-4,9,7,11,20
1570179730450650,-1,9,45,30,16,-1,-6,-13
1570179730459578,6,-27,-8,-10,-6,-1,25,17
1570179730459578,-40,-1,-27,-31,-22,-19,-17,-11
1570179730474538,-10,17,10,19,52,34,23,-3
1570179730474538,23,28,-3,10,3,12,-1,7
1570179730480875,1,-2,14,13,4,-9,-5,-7
1570179730480875,21,-12,-22,-23,-50,-14,-8,11
1570179730497475,10,-13,1,-8,-20,-24,-2,-27
1570179730497475,2,-3,-17,-22,13,17,14,8
1570179730498475,-3,17,11,7,8,12,20,25
1570179730498475,16,-4,9,6,11,-1,-24,-3
1570179730519484,-3,1,-10,-5,4,3,-17,-13
1570179730519484,-9,24,2,10,2,2,-3,2
1570179730521412,3,-42,-8,-3,-8,-5,-9,1
1570179730521412,6,13,-4,4,22,15,20,7
1570179730534377,0,-8,4,-7,-21,-9,-5,10
1570179730534377,-27,-7,-4,-11,-6,-8,-9,-32
1570179730541358,-6,-1,-3,9,-5,-5,-2,18
1570179730541358,4,5,2,16,31,14,-3,-12
1570179730557347,-17,-2,13,15,-1,4,13,0
1570179730557347,17,12,-24,-27,-40,-19,-9,4
1570179730559311,-2,15,8,-8,5,2,2,-1
1570179730559311,1,-25,-5,12,10,4,2,-8
1570179730579259,-7,-9,-6,-2,-11,-9,0,-13
1570179730579259,8,2,2,-10,-11,-2,-2,15
1570179730586238,53,30,7,2,-9,-5,-1,8
1570179730586238,-29,7,0,10,21,8,0,-11
1570179730593375,-6,-9,22,30,30,10,3,-2
1570179730593375,15,7,-3,5,6,2,3,6
1570179730602407,48,19,12,1,1,0,1,21
1570179730602407,-67,-45,-30,-16,-20,-11,-4,-25
1570179730617156,9,-14,5,5,8,4,-13,-16
1570179730617156,37,10,1,1,0,-1,1,22
1570179730619150,-23,0,-2,-4,-5,-2,7,4
1570179730619150,29,5,10,10,-9,2,9,5
1570179730640095,-5,11,-2,-8,-10,-6,-12,8
1570179730640095,-27,-16,-2,3,12,4,-5,-20
1570179730641092,-7,1,-5,-8,-12,-6,4,1
1570179730641092,0,4,4,-2,-6,5,14,2
1570179730654056,2,6,8,6,14,0,-16,-3
1570179730654056,3,5,-6,0,2,-2,0,-8
1570179730661049,-48,-23,-5,-4,2,-4,-6,-12
1570179730661049,6,7,-3,-20,-47,-17,4,-36
1570179730676996,9,4,-3,0,1,0,26,-10
1570179730676996,-9,12,5,3,4,0,-11,16
1570179730679034,-10,-23,-4,5,9,2,1,2
1570179730679034,0,6,9,8,32,11,-10,-11
1570179730699934,9,0,-4,-3,-18,-7,25,8
1570179730699934,31,2,0,-1,-1,-2,6,10
1570179730700932,-30,-6,0,2,8,8,-16,2
1570179730700932,19,5,0,-2,3,-4,-19,9
1570179730713896,12,1,-9,-4,3,4,7,14
1570179730713896,8,8,7,0,-2,-2,-5,-5
1570179730728856,-15,-19,-10,2,2,-6,2,26
1570179730728856,-7,-5,-8,-10,10,3,11,-12
1570179730736835,-17,3,9,12,4,-3,-5,5
1570179730736835,-60,-23,-4,4,21,6,5,-19
1570179730738884,16,12,5,-4,-41,-12,-5,-12
1570179730738884,12,8,2,3,13,4,5,26
1570179730759774,0,-4,-5,-7,12,4,5,6
1570179730759774,-5,-3,-8,-6,-10,-11,-12,-30
1570179730762021,10,4,-3,-4,-12,-5,-7,-9
1570179730762021,19,15,7,-5,-14,-6,5,5
1570179730773737,7,2,1,-3,1,0,-2,7
1570179730773737,-70,-35,2,6,10,9,23,43
1570179730789694,1,-20,9,2,-2,-6,-5,8
1570179730789694,38,24,-21,-3,-7,-1,-7,60
1570179730797672,3,9,20,0,-1,-1,-14,28
1570179730797672,19,-11,-13,-1,0,-1,-13,41
1570179730798669,14,16,4,-4,3,-1,12,37
1570179730798669,-59,-25,-10,-14,-6,5,43,-56
1570179730819614,93,39,7,5,7,1,-36,86
1570179730819614,-69,-20,-7,-7,-16,-5,19,-86
1570179730821752,56,41,17,14,9,5,-47,82
1570179730821752,11,-18,-2,-3,-6,-2,-8,-35
1570179730833619,-22,-15,-11,-8,2,7,40,-76
1570179730833619,7,-12,-3,-11,-26,-12,-10,-56
1570179730842553,-3,7,-18,-11,-4,-2,5,-73
1570179730842553,-30,16,23,13,16,5,-3,-15
1570179730857516,25,15,-6,2,19,4,-45,24
1570179730857516,45,-22,-3,2,-20,-17,-11,7
1570179730863497,-56,-41,-27,-42,-32,-7,23,-77
1570179730863497,-65,6,22,21,8,-7,-53,-9
1570179730879455,-20,-56,-21,6,-1,-3,-12,4
1570179730879455,119,119,55,9,20,16,12,64
1570179730881448,54,-48,-12,10,23,1,12,25
1570179730881448,-66,-48,-19,-8,3,-2,1,-16
1570179730893423,-20,-12,5,16,-7,1,9,32
1570179730893423,0,8,-8,11,9,13,0,-17
1570179730903074,26,39,20,12,-20,-11,-2,1
1570179730903074,31,19,-8,-14,-4,-1,-2,-15
1570179730917479,33,-6,1,-4,-8,0,17,4
1570179730917479,-6,-21,-13,-10,-19,-15,1,-84
1570179730919348,-10,12,15,16,10,-2,-8,-66
1570179730919348,34,-23,-11,9,0,-4,6,13
1570179730939298,-2,25,0,-12,-3,0,-14,13
1570179730939298,19,11,-5,-11,15,13,15,23
1570179730941292,-24,-1,17,33,29,15,14,20
1570179730941292,83,-7,-3,-17,-5,-5,0,64
1570179730953256,-5,46,6,4,-5,-2,23,-40
1570179730953256,-123,-88,5,21,15,1,-25,-2
1570179730962588,26,26,-6,5,6,1,-2,14
1570179730962588,59,21,-5,-31,-24,-13,-2,-16
1570179730977235,-38,-4,-5,-7,4,11,2,-39
1570179730977235,50,19,-1,-2,0,-9,-27,72
1570179730979188,-42,-18,0,-10,-23,-4,-41,-4
1570179730979188,-7,-6,0,10,24,7,6,2
1570179731000132,-41,-16,-7,-8,10,-2,-8,-31
1570179731000132,81,66,-5,-27,-21,-3,8,16
1570179731001129,-45,-84,2,23,17,3,9,51
1570179731001129,-3,20,4,6,3,-2,3,-96
1570179731013141,-5,-6,-2,-20,-12,2,-18,47
1570179731013141,26,16,13,30,12,7,13,-14
1570179731022303,9,27,-3,-11,2,-3,7,-40
1570179731022303,-12,-3,1,6,13,9,-12,22
1570179731037159,35,-5,9,1,-20,-6,9,-19
1570179731037159,-108,-91,-14,4,-21,-16,-19,-5
1570179731039029,38,14,-19,-21,3,4,11,-75
1570179731039029,31,7,10,17,0,-2,-9,25
1570179731066952,27,14,-3,-4,-8,-3,1,-23
1570179731066952,-8,-6,-8,-4,8,3,3,0
1570179731068947,-41,2,-5,-9,-21,-9,1,-34
1570179731068947,31,41,7,8,11,4,-4,74
1570179731074001,10,-35,0,21,25,-2,-32,49
1570179731074001,15,-3,-11,-16,-25,-4,15,-36
1570179731082912,19,13,10,4,-4,-4,-23,-2
1570179731082912,-29,3,8,6,7,5,18,35
1570179731096873,-38,-10,-1,5,10,5,7,-13
1570179731096873,0,0,-10,-12,-16,-9,16,-7
1570179731103857,39,29,11,3,9,6,-6,24
1570179731103857,-18,-10,-13,-14,-27,-3,3,-15
1570179731119858,74,22,7,4,7,-4,12,-17
1570179731119858,-82,-54,-9,1,18,7,-19,-14
1570179731121808,18,3,-14,-21,-23,-7,14,-44
1570179731121808,-15,-8,5,1,-14,-6,-7,-34
1570179731142802,-9,-7,-19,-20,7,1,13,6
1570179731142802,68,60,10,-3,6,1,-9,14
1570179731143749,-50,-22,-3,-2,7,6,3,-2
1570179731143749,-13,-18,-9,-8,-21,-4,-6,2
1570179731164753,-39,-3,-1,-9,-28,-8,-6,-29
1570179731164753,10,1,-3,0,16,0,-2,-33
1570179731165864,-15,-8,-4,1,11,3,11,-7
1570179731165864,21,13,-1,3,3,2,9,13
1570179731180240,-24,-21,-11,-13,-15,-7,10,-63
1570179731180240,-10,-2,9,13,12,4,-3,-8
1570179731181647,20,9,-3,2,2,2,3,17
1570179731181647,-3,-10,-3,-6,1,-2,3,-12
1570179731193615,-8,3,5,13,-2,-1,8,-18
1570179731193615,20,16,1,-5,0,2,-10,11
1570179731202593,25,6,0,-3,0,0,3,10
1570179731202593,-25,-15,-9,-6,-5,-4,-7,-8
1570179731217769,-37,-12,5,4,-4,-4,-6,10
1570179731217769,15,6,4,5,12,8,14,21
1570179731219547,23,21,6,4,3,5,9,10
1570179731219547,-37,-22,-3,2,2,0,24,10
1570179731239497,11,2,0,1,2,4,-8,-1
1570179731239497,25,13,2,0,-8,-8,0,10
1570179731241559,-43,-12,-2,-3,0,-1,-18,-11
1570179731241559,17,-4,4,2,5,-3,-11,-12
1570179731254076,9,-1,-4,0,-3,-2,12,18
1570179731254076,14,9,-2,-2,-4,4,5,45
1570179731262429,17,6,1,-3,-1,-2,-5,15
1570179731262429,-53,-16,2,8,3,-3,-4,-12
1570179731276401,15,5,-1,-5,-4,0,-8,11
1570179731276401,-11,2,1,0,-2,-2,0,-10
1570179731283448,-15,-17,-4,2,1,-3,6,2
1570179731283448,14,7,1,1,-2,0,-6,2
1570179731299335,-4,6,-2,-4,-2,-6,-7,-16
1570179731299335,-14,-11,0,1,2,2,1,3
1570179731301327,-23,5,5,1,2,2,3,-2
1570179731301327,49,1,-6,-8,-9,-3,-7,0
1570179731313397,-14,-5,0,3,7,0,1,15
1570179731313397,9,9,3,2,-4,1,3,9
1570179731322279,22,4,-3,-2,-1,0,-1,24
1570179731322279,-40,-22,-2,2,2,-1,-9,-5
1570179731337231,-1,8,3,-3,-3,0,2,2
1570179731337231,7,-8,-4,-8,-3,0,-1,3
1570179731343214,2,6,-4,1,-1,-2,-2,-1
1570179731343214,17,13,12,9,7,2,1,-6
1570179731360172,12,10,7,5,2,0,1,19
1570179731360172,-17,-13,0,3,-2,2,-1,16
1570179731361166,8,-3,-6,-4,-1,-2,-2,15
1570179731361166,16,4,-6,-8,-3,-2,-4,-5
1570179731373134,-15,-5,-5,-1,-1,-1,-1,-6
1570179731373134,23,10,-3,-4,-1,-1,0,-9
1570179731382110,-2,3,5,9,6,1,2,2
1570179731382110,0,0,2,7,0,0,1,0
1570179731397271,-5,-1,-1,-2,0,-1,-3,-23
1570179731397271,-5,-10,-4,4,-1,0,1,-11
1570179731403075,3,-2,-4,-11,-4,2,1,-11
1570179731403075,-28,-6,-2,-2,-4,-1,4,-24
1570179731420010,6,5,5,6,2,1,4,-10
1570179731420010,-10,-1,2,-4,0,2,4,2
1570179731422112,-16,-12,-2,-3,2,-2,-4,-7
1570179731422112,9,8,1,1,-3,-1,0,-17
1570179731440953,40,16,-3,0,3,0,0,-8
1570179731440953,-87,-31,-7,-3,-3,-3,-4,-26
1570179731458949,10,-5,-5,-2,0,-1,0,-12
1570179731458949,9,17,5,-4,-6,-2,-1,17
1570179731459903,3,4,-8,-9,0,-2,3,16
1570179731459903,22,9,14,10,12,0,-2,10
1570179731463892,9,-22,-7,9,6,3,1,9
1570179731463892,-63,-13,0,-5,-3,2,-2,-20
1570179731480848,45,5,0,8,3,-1,-1,37
1570179731480848,-11,13,2,-1,-2,0,1,-6
1570179731481846,-37,-14,-7,-6,-10,-7,-6,-14
1570179731481846,68,36,3,2,0,4,-1,6
1570179731501789,-69,-42,-3,-2,0,3,1,-15
1570179731501789,21,5,-3,-2,-2,-2,0,11
1570179731509768,14,11,7,7,2,-2,-2,-2
1570179731509768,8,-10,-13,-9,-4,-4,3,17
1570179731517011,17,12,5,6,-2,-7,-4,-15
1570179731517011,15,-5,-9,-9,-5,9,1,2
1570179731523730,-57,-13,1,1,-2,-2,-8,-14
1570179731523730,9,7,6,9,7,3,2,-9
1570179731539688,8,-1,-8,-8,-7,-4,-3,-25
1570179731539688,-43,-19,-4,-1,6,-2,0,1
1570179731541683,64,41,11,-2,-9,-4,7,20
1570179731541683,-24,-15,-4,0,1,1,-7,20
1570179731562626,-22,-16,-5,-2,-4,-4,-1,3
1570179731562626,-50,-14,-3,-4,0,3,-3,5
1570179731563665,17,1,0,-1,-2,-3,-3,-8
1570179731563665,20,-4,-4,-3,-2,-4,-1,20
1570179731576589,-6,13,3,0,-2,-1,4,14
1570179731576589,19,-14,-8,-6,0,3,0,5
1570179731584567,33,17,4,3,-1,-4,3,13
1570179731584567,-37,-12,-4,-4,2,6,3,10
1570179731599534,-39,-25,-7,-4,1,2,-3,-7
1570179731599534,27,15,2,0,-4,-7,-2,-13
1570179731605516,-4,-5,-1,0,2,2,-11,59
1570179731605516,35,19,6,3,-1,-3,-1,14
1570179731622470,21,5,1,-2,0,1,0,32
1570179731622470,-8,11,7,5,-2,-5,-4,10
1570179731624461,-1,-1,-7,-5,-1,0,3,-10
1570179731624461,0,-12,-3,-1,-11,-5,-2,-18
1570179731635432,18,4,-1,-4,10,3,-6,-31
1570179731635432,6,9,2,3,-1,-2,-1,-32
1570179731645405,-21,-8,1,2,1,1,-5,-29
1570179731645405,2,-1,-2,-2,2,-1,-11,-12
1570179731659368,3,0,2,0,-12,-8,7,-5
1570179731659368,19,11,2,5,2,0,1,45
1570179731661400,14,-3,-4,-4,1,0,3,7
1570179731661400,-21,-10,-4,-2,-3,-9,-7,-41
1570179731682307,3,-1,3,4,1,5,6,16
1570179731682307,11,-1,-3,-4,-1,-1,2,-14
1570179731684301,-10,-6,-2,-2,-3,-1,6,-4
1570179731684301,-13,1,2,0,2,2,0,-15
1570179731696270,-36,-9,-6,-7,-5,-5,6,-85
1570179731696270,5,4,-4,0,-3,-9,-27,-3
1570179731705248,-24,-8,-3,-2,1,14,9,-12
1570179731705248,31,8,6,5,3,-9,-29,38
1570179731720252,-6,0,-1,-4,-1,-3,-11,-20
1570179731720252,-7,0,0,0,-1,5,7,-13
1570179731721291,-4,-9,-3,-4,-2,-5,-8,-34
1570179731721291,-12,-12,-4,-6,-2,2,5,-51
1570179731742147,2,-2,-2,0,-1,2,0,13
1570179731742147,15,8,4,2,2,0,3,-7
1570179731744142,-13,-8,-3,1,1,0,-11,5
1570179731744142,27,15,-1,-2,-3,0,8,12
1570179731757107,11,7,3,2,-1,0,-5,28
1570179731757107,-22,-15,-8,-5,-3,-3,4,-15
1570179731765086,-7,-3,1,-1,0,-3,4,0
1570179731765086,8,1,1,0,0,2,5,49
1570179731780045,-23,-2,0,1,0,7,6,-2
1570179731780045,13,1,-1,-1,1,-4,-7,17
1570179731781043,11,1,-1,-1,-1,-2,7,46
1570179731781043,4,2,0,-1,1,5,6,29
1570179731801986,3,3,3,1,-2,-2,-5,50
1570179731801986,5,-6,-3,-2,-2,-3,1,42
1570179731804022,-5,0,1,-1,-5,-3,-4,10
1570179731804022,1,-3,-2,-1,0,-2,0,7
1570179731815956,-4,2,0,-1,1,-1,-1,-16
1570179731815956,3,0,-2,0,-2,-1,-3,-39
1570179731824927,3,1,-1,2,0,1,-4,-10
1570179731824927,-10,-1,-1,1,0,2,7,-25
1570179731847024,-3,-2,0,-1,-2,-5,-6,-59
1570179731847024,18,-1,-1,-2,-1,1,2,0
1570179731848863,-12,1,1,0,0,-2,3,-33
1570179731848863,2,-3,0,0,-1,0,6,23
1570179731862827,0,0,-2,0,0,0,-9,7
1570179731862827,5,-2,-1,0,-2,0,5,3
1570179731864060,10,1,0,-1,0,1,-4,-14
1570179731864060,-2,-1,1,0,0,-2,-6,-14
1570179731875791,20,2,1,1,1,3,4,45
1570179731875791,6,2,-2,-1,0,1,2,9
1570179731884873,-2,-1,-2,-1,0,0,0,2
1570179731884873,8,0,-3,0,0,0,-6,12
1570179731899726,-8,-2,0,-1,2,3,5,-3
1570179731899726,5,1,0,-2,-2,0,-3,-4
1570179731901848,-5,2,-1,1,0,-1,3,7
1570179731901848,7,-1,-2,-1,0,1,4,31
1570179731922665,4,2,1,2,2,-1,0,36
1570179731922665,11,6,0,0,-1,-1,-3,-3
1570179731923663,10,0,0,-2,0,-1,2,10
1570179731923663,-8,-3,-3,-2,-1,-1,-1,-27
1570179731935630,2,-5,-6,-1,-2,0,5,1
1570179731935630,-5,0,1,4,0,-4,-14,12
1570179731952584,-7,-1,-1,1,-1,1,1,1
1570179731952584,6,-2,-5,-1,-2,-2,2,-7
1570179731959979,3,2,1,-1,-2,-1,0,-4
1570179731959979,0,-1,-1,-1,-1,2,7,-1
1570179731961694,-2,-2,-1,-2,-2,0,-2,-1
1570179731961694,-12,-5,0,-4,-2,-3,-8,-30
1570179731982564,-9,0,0,0,1,0,-2,-11
1570179731982564,0,-2,-1,-1,-1,-1,10,-1
1570179731983503,0,-3,-1,-3,-1,-3,-2,-5
1570179731983503,0,1,-1,0,-2,0,10,1
1570179731996466,7,1,0,-2,1,0,-6,5
1570179731996466,-3,0,-1,-1,0,-1,2,-8
1570179732012425,-7,-2,-2,0,-3,-1,-1,-3
1570179732012425,-17,0,-2,-1,1,0,4,-12
1570179732019438,5,1,-2,0,-1,0,1,-9
1570179732019438,11,1,1,0,1,-1,3,21
1570179732021467,-2,1,1,2,0,1,2,19
1570179732021467,-1,0,2,0,0,0,-4,-21
1570179732042459,0,1,3,1,0,-2,-18,15
1570179732042459,-6,-3,-1,0,1,0,0,-6
1570179732044338,-4,0,-1,0,0,1,-1,-12
1570179732044338,1,-1,0,0,1,-2,0,5
1570179732065288,-3,-2,-1,-2,-1,-1,5,-1
1570179732065288,3,-2,1,-1,-3,1,0,-5
1570179732066281,4,-2,-2,-1,0,0,1,17
1570179732066281,-2,0,-1,1,2,-2,-6,-17
1570179732080287,-3,0,0,-1,0,-2,5,3
1570179732080287,8,1,-1,0,-1,-1,0,17
1570179732081241,-5,-2,-1,-2,-2,-2,1,-10
1570179732081241,-7,0,-2,0,-2,-2,-2,-8
1570179732102355,3,-2,-3,0,-2,-1,0,4
1570179732102355,-11,-3,0,0,1,2,2,-21
1570179732104180,2,0,0,-1,0,-2,-1,1
1570179732104180,4,-2,-1,1,1,-1,-1,11
1570179732116147,-4,-1,-1,0,-1,-2,-5,-5
1570179732116147,-12,-2,-1,-1,0,2,-1,-11
1570179732125229,4,1,-1,0,-3,-3,-3,-1
1570179732125229,-3,-1,0,-1,-2,-1,7,-18
1570179732139087,-2,-4,-4,-2,-3,-1,3,0
1570179732139087,-2,1,-3,-2,-1,-1,0,0
1570179732147067,1,2,-1,-1,0,0,1,2
1570179732147067,21,4,1,2,-1,1,1,-3
1570179732162176,-23,-5,-1,-1,-2,-1,-1,-8
1570179732162176,3,1,0,-1,1,0,0,-10
1570179732164020,0,-2,1,0,-1,0,-1,-5
1570179732164020,-12,-4,-3,-3,-1,1,0,4
1570179732176050,5,2,-1,1,0,-1,0,-4
1570179732176050,-2,-2,-2,-1,0,-1,-3,6
1570179732184965,-6,0,-1,1,1,-2,-2,-12
1570179732184965,4,-1,-1,-1,-1,0,-2,14
1570179732199923,8,0,-2,-1,0,2,2,9
1570179732199923,-8,-2,-2,-3,-6,-4,-6,-19
1570179732200921,-5,0,1,-2,1,-1,-3,-21
1570179732200921,5,1,-1,-1,-1,1,2,14
1570179732221865,-8,1,0,0,0,-1,-2,-10
1570179732221865,7,-2,0,-1,0,0,3,18
1570179732223859,7,-1,-1,-3,-1,-1,1,7
1570179732223859,0,-1,2,-1,-1,-2,-5,11
1570179732243838,-2,-2,-1,0,-1,-2,-4,3
1570179732243838,7,1,0,1,0,-1,0,10
1570179732261762,-10,-1,-2,0,0,-1,-2,13
1570179732261762,8,0,-1,0,0,0,2,4
1570179732262758,6,1,0,-1,1,2,4,2
1570179732262758,-7,0,-1,-1,0,0,-5,-9
1570179732265750,-7,-2,-3,0,0,-2,0,-6
1570179732265750,-5,-4,-2,-2,-1,0,-1,-2
1570179732281706,-2,-2,-1,-2,-1,0,1,-5
1570179732281706,-4,1,1,0,0,-1,-1,-7
1570179732289683,7,2,1,0,-1,1,1,7
1570179732289683,-7,-2,-4,-2,-2,-1,-1,-8
1570179732295669,1,0,-1,1,-1,0,-2,3
1570179732295669,4,-2,-3,-3,-1,-1,-3,-6
1570179732304682,-2,0,0,2,-1,1,3,9
1570179732304682,5,1,-1,0,2,1,-1,7
1570179732319672,1,-1,0,-1,0,-3,1,-1
1570179732319672,-4,1,-1,0,2,-1,-1,-1
1570179732321642,-4,-2,-2,-2,-1,2,3,-2
1570179732321642,-11,-1,0,0,-1,-1,0,-4
1570179732342571,2,3,-1,-1,0,0,5,-7
1570179732342571,5,1,-2,1,0,-2,-4,12
1570179732343540,2,0,-1,-3,-2,-1,-2,0
1570179732343540,3,2,2,1,-1,-2,-8,6
1570179732364483,-3,-1,-3,-1,-2,0,0,-2
1570179732364483,-8,-2,0,0,-1,0,4,-11
1570179732366638,9,2,0,2,1,0,-1,8
1570179732366638,4,0,0,0,-1,-3,-2,-5
1570179732378683,-8,-1,0,-1,-1,-1,-3,-10
1570179732378683,2,-1,-2,-3,-1,-1,-2,-5
1570179732395403,3,-2,-2,-1,-2,-1,-2,6
1570179732395403,-7,-3,-2,-2,-2,0,10,-31
1570179732404571,-2,-2,1,0,0,-2,-8,-8
1570179732404571,-11,-3,-1,-1,-1,-2,-5,-8
1570179732404571,-1,-1,3,-1,0,-2,1,0
1570179732404571,-2,-2,-2,-2,-2,0,3,-5
1570179732425322,5,-2,-1,0,0,-2,0,9
1570179732425322,4,0,0,0,-2,0,-4,8
1570179732426320,-2,-2,-3,-2,-1,-1,-3,0
1570179732426320,0,-1,-1,-1,-3,-4,-8,-9
1570179732440453,3,2,0,-2,-1,1,0,10
1570179732440453,9,0,2,1,1,-1,-11,4
1570179732441279,5,0,-1,-2,-1,0,-1,-2
1570179732441279,-2,-2,0,-1,1,-1,2,10
1570179732462223,7,0,1,-1,-1,0,5,14
1570179732462223,-7,0,2,0,0,0,4,-15
1570179732464218,-9,-3,-3,-2,-1,2,12,-17
1570179732464218,1,0,0,1,1,-1,-4,12
1570179732485162,-9,-2,-1,-1,0,0,-2,-21
1570179732485162,-3,-2,-2,-2,-1,-1,4,6
1570179732486209,-9,-1,0,1,-1,0,-3,-2
1570179732486209,-8,-1,-1,0,0,-1,-2,1
1570179732500121,11,0,-2,1,0,-1,-2,-3
1570179732500121,-1,-1,-1,1,-1,2,10,5
1570179732501193,4,0,0,0,-1,-3,-7,0
1570179732501193,-4,-2,0,-1,-1,0,5,0
1570179732530043,-7,-1,0,0,-1,0,-3,-5
1570179732530043,-1,1,1,0,-1,1,4,8
1570179732531037,-4,0,-1,-1,0,-2,-4,-13
1570179732531037,14,2,0,0,1,0,3,24
1570179732545000,-10,-3,-2,-2,-1,-2,-1,-25
1570179732545000,7,2,0,0,0,-2,-3,12
1570179732546003,-3,0,0,1,1,-1,-2,-6
1570179732546003,-9,0,-1,-1,-2,0,4,-5
1570179732566941,13,-1,-2,0,0,-2,-11,37
1570179732566941,-14,-5,-4,-2,-1,-3,-7,-24
1570179732568961,1,0,-2,0,-1,-2,-5,0
1570179732568961,3,0,-2,-1,-3,0,-3,4
1570179732581902,-2,1,0,1,0,2,6,4
1570179732581902,-7,-2,-2,-4,-1,-2,-3,-9
1570179732583896,4,0,-3,1,-1,-2,-2,7
1570179732583896,-4,-1,0,-1,0,-2,-4,-15
1570179732605001,-15,-1,0,0,-2,-1,0,-17
1570179732605001,10,2,1,2,0,0,2,13
1570179732606836,-2,-2,-1,-2,-2,0,1,-8
1570179732606836,10,-2,0,-3,0,0,-3,16
1570179732618913,-6,-1,-1,0,-2,-3,-1,-8
1570179732618913,1,0,-2,-1,-1,2,1,-3
1570179732625786,2,-1,1,-3,0,-2,-2,4
1570179732625786,-5,-1,-1,0,-2,2,-2,-7
1570179732642742,-1,-1,-3,0,-1,0,2,0
1570179732642742,-1,-2,-1,-1,-1,-1,0,1
1570179732643739,3,1,-1,-1,-2,-2,-1,0
1570179732643739,-6,-3,-2,-1,0,0,-2,-5
1570179732673014,1,0,-1,0,0,0,4,-3
1570179732673014,-12,0,-1,-1,-1,-2,-8,-16
1570179732674655,9,2,0,1,-2,0,0,13
1570179732674655,15,0,-1,-1,-1,-1,2,14
1570179732679642,3,0,-1,0,-1,0,3,-2
1570179732679642,-10,0,-1,2,-1,2,2,-13
1570179732686105,2,0,0,-2,0,0,1,11
1570179732686105,-3,2,1,1,0,0,-5,-11
1570179732702647,1,-1,-1,-2,-1,1,2,2
1570179732702647,6,0,0,0,-1,-1,-2,8
1570179732703579,-8,-1,0,0,-1,-1,-1,-14
1570179732703579,-9,0,-1,-1,-1,0,0,-7
1570179732724521,6,-2,0,-3,-1,-2,-1,15
1570179732724521,1,-2,-1,-1,0,-1,1,1
1570179732726518,-5,-1,0,-1,0,0,-3,-16
1570179732726518,-3,0,-2,1,1,-3,-1,0
1570179732739481,0,-1,0,0,-1,-1,2,0
1570179732739481,-16,-2,0,-2,-1,0,-3,-18
1570179732746464,9,0,0,1,-1,5,7,17
1570179732746464,-4,0,0,1,0,0,0,-14
1570179732762533,-1,-1,-1,-2,0,0,-3,2
1570179732762533,-1,-1,-1,-1,1,-1,1,2
1570179732764414,-16,-5,-3,-2,-2,-1,9,-18
1570179732764414,-6,-2,0,-2,-1,-1,-3,-8
1570179732785359,-2,-2,-1,0,-1,-1,-2,-8
1570179732785359,-4,-1,-1,-2,1,-1,1,-6
1570179732787353,0,-1,-1,-2,-2,-2,-2,-10
1570179732787353,3,1,0,-1,0,-1,-2,6
1570179732807298,4,0,-2,-1,-2,-1,-2,5
1570179732807298,-3,-1,-1,0,-1,-1,-1,-4
1570179732809293,1,-1,0,0,1,-2,-2,12
1570179732809293,1,-1,1,1,-1,-1,0,-5
1570179732822356,-2,0,0,-1,1,-2,-2,2
1570179732822356,3,-2,-2,-1,-1,-1,1,4
1570179732824256,6,1,1,0,0,0,-2,12
1570179732824256,-22,-3,0,0,-1,0,-2,-29
1570179732845200,18,-1,-2,-3,-1,1,3,22
1570179732845200,6,-1,-1,-1,-2,2,4,3
1570179732846195,-5,0,0,-2,-2,-1,6,-13
1570179732846195,1,1,-1,-2,-1,-1,-2,7
1570179732858165,-9,-1,0,-2,-1,1,1,-13
1570179732858165,0,-1,-3,-2,-2,0,0,3
1570179732867436,-2,-2,-2,1,0,-1,-4,-3
1570179732867436,7,0,0,0,0,-1,2,8
1570179732882101,-9,-1,1,2,-1,-3,-6,-16
1570179732882101,7,1,-1,1,-2,1,2,10
1570179732884096,-6,0,-1,0,-2,-2,-10,-8
1570179732884096,3,-1,-2,-2,1,-1,0,6
1570179732905042,-4,-1,-1,-1,0,0,-2,-7
1570179732905042,-2,-2,0,0,1,-1,-2,-1
1570179732906036,-3,-1,-1,-2,0,0,-2,-9
1570179732906036,-5,1,0,-2,-1,-1,0,-7
1570179732919006,-3,-5,-1,-2,0,-1,-1,-3
1570179732919006,10,0,-1,-1,0,-3,-4,1
1570179732927978,1,0,-2,1,0,1,2,15
1570179732927978,-3,-1,-1,-1,-1,-1,-2,2
1570179732949920,5,2,1,2,0,1,1,1
1570179732949920,-3,1,0,-1,-2,0,-2,0
1570179732951914,-4,-1,2,0,0,1,-1,3
1570179732951914,3,0,0,-1,-1,-2,-1,5
1570179732964881,2,0,-1,0,-2,2,6,22
1570179732964881,-10,-3,1,0,-1,-2,-1,-3
1570179732966876,9,2,1,0,1,-3,-16,23
1570179732966876,1,-1,-1,1,-1,0,-4,2
1570179732978843,-6,-1,-1,-1,-1,1,4,-12
1570179732978843,6,1,0,0,-1,0,3,8
1570179732987887,-4,-1,-1,-2,-2,-1,1,-10
1570179732987887,3,0,0,0,-1,-2,-1,4
1570179733009761,-7,-1,-2,-1,-2,-4,-9,-16
1570179733009761,0,-1,-1,1,-1,0,2,2
1570179733011754,-1,-1,-1,-3,0,-1,-1,-3
1570179733011754,7,-1,-2,-1,-1,0,-1,10
1570179733024718,1,0,0,1,1,1,1,6
1570179733024718,-4,-2,-3,-2,0,-1,-2,-5
1570179733026715,6,1,-1,1,1,-1,-2,3
1570179733026715,-4,-1,-2,1,-3,1,-1,-5
1570179733038753,4,0,0,0,-2,1,-1,4
1570179733038753,0,-1,-1,-2,1,-1,-1,4
1570179733047976,-9,-1,-2,1,1,0,2,6
1570179733047976,-5,-2,-1,0,1,0,3,-12
1570179733062620,-1,0,2,2,1,-2,-4,-2
1570179733062620,-1,-3,-1,-1,-1,2,4,2
1570179733064612,-3,0,-1,-1,-2,0,1,-15
1570179733064612,1,0,-1,-1,-1,2,1,6
1570179733085564,-1,2,0,-2,-1,-2,-4,4
1570179733085564,3,1,0,0,-1,-2,-1,-1
1570179733087591,-2,-1,0,0,0,-1,-1,-4
1570179733087591,2,0,-2,-1,0,0,0,2
1570179733098522,-2,-2,0,-1,-2,-1,0,-4
1570179733098522,-1,1,0,-1,1,-3,-4,-2
1570179733113482,2,-3,-2,-2,-3,-1,1,0
1570179733113482,-1,0,0,1,-1,-1,-1,2
1570179733122464,1,0,-2,-1,0,0,2,-3
1570179733122464,-11,0,2,0,-1,0,-5,-15
1570179733124453,13,-1,-1,-3,-1,-2,-1,14
1570179733124453,5,0,-1,-1,1,-1,1,5
1570179733145396,-8,-2,-2,-1,0,-1,-2,-7
1570179733145396,5,1,1,3,0,-1,-1,5
1570179733146486,-4,-1,-2,-1,-1,0,6,-8
1570179733146486,7,3,2,1,-1,-2,-3,5
1570179733167377,7,0,0,1,0,0,-2,3
1570179733167377,3,-2,0,-1,-1,-1,2,5
1570179733169333,-3,-1,-1,1,0,0,2,-8
1570179733169333,-1,-3,-2,-1,-2,-1,1,4
1570179733182348,-2,-1,-1,-1,-1,0,-3,4
1570179733182348,1,0,1,0,0,0,-3,-3
1570179733184440,0,0,1,-1,-1,-2,1,23
1570179733184440,-4,-1,-2,-1,0,2,2,-2
1570179733205240,2,-1,0,2,-2,-3,-6,-4
1570179733205240,-12,-6,-5,-3,-1,-2,7,-13
1570179733206238,-9,-1,0,2,0,-2,-12,-15
1570179733206238,4,0,-1,-1,0,2,3,10
1570179733218252,-12,-4,-2,-2,-2,1,9,-17
1570179733218252,-9,0,0,-2,-1,-1,-2,-12
1570179733227178,-11,-2,1,-1,-2,-4,-7,-37
1570179733227178,-1,-2,0,-1,-1,-1,0,-4
1570179733242583,3,-1,-1,-1,-1,-2,-3,-5
1570179733242583,4,-2,-1,-1,-1,-1,-4,3
1570179733244132,5,-1,-2,-1,0,3,3,4
1570179733244132,0,-2,-2,0,0,-1,-1,0
1570179733265075,-4,0,1,0,-1,-1,0,-2
1570179733265075,-4,-2,1,-2,-1,-2,-6,-10
1570179733266074,13,1,-2,0,-2,-1,3,18
1570179733266074,-8,-3,0,0,0,0,1,-5
1570179733287017,8,1,0,1,2,1,-7,11
1570179733287017,6,2,1,2,0,0,0,14
1570179733289012,16,2,-1,-2,0,0,3,25
1570179733289012,-8,-1,0,-1,-2,-3,-3,-12
1570179733301978,1,0,0,-1,-1,0,2,6
1570179733301978,3,1,-1,-1,-1,-1,1,3
1570179733303974,3,1,0,-2,0,0,5,15
1570179733303974,5,-1,-3,0,-1,-2,-4,2
1570179733324923,-4,-1,-1,-2,-1,-4,-3,-3
1570179733324923,2,-1,-3,0,-3,-1,-1,8
1570179733326911,-4,-1,0,0,0,0,2,0
1570179733326911,-1,0,0,-2,-2,1,-1,2
1570179733346865,-8,0,-1,-1,0,0,2,-5
1570179733346865,7,1,1,-1,1,0,-1,9
1570179733348893,-8,-4,-2,-1,-1,-3,-4,-14
1570179733348893,6,0,0,0,0,1,3,9
1570179733362894,-7,1,0,0,-1,-1,0,-27
1570179733362894,8,1,-2,-1,-1,-1,-7,17
1570179733364230,-7,0,-1,-2,-1,0,9,-15
1570179733364230,-5,-1,0,0,0,-1,-5,-11
1570179733384756,12,-1,-2,-1,0,0,5,25
1570179733384756,2,-1,0,0,0,0,3,0
1570179733386750,-9,-2,1,-1,-1,1,-2,-11
1570179733386750,-6,-1,-1,0,-1,0,-2,-10
1570179733416037,-6,-2,-3,-2,-2,-2,2,-2
1570179733416037,-5,0,-1,0,2,0,2,-2
1570179733416832,24,1,2,0,-1,-2,-4,17
1570179733416832,-1,0,-2,-2,-1,-2,0,11
1570179733422823,1,-1,0,-1,0,0,-4,5
1570179733422823,-4,0,-2,-1,-1,0,1,-4
1570179733423919,-1,0,0,0,0,0,2,12
1570179733423919,-4,-1,-2,0,1,-2,2,-2
1570179733453014,8,-1,-2,-2,0,1,0,5
1570179733453014,17,1,-1,-1,0,0,1,18
1570179733453668,-10,-3,-1,-1,-2,-1,-5,-13
1570179733453668,2,-1,-1,-1,-1,0,-1,0
1570179733467570,-4,0,1,1,1,-1,0,1
1570179733467570,-2,-1,1,0,0,-2,0,-12
1570179733468564,0,-2,-2,-1,-1,0,2,13
1570179733468564,2,-1,0,-1,-2,-2,-2,2
1570179733481530,-9,0,-2,0,-2,0,0,-3
1570179733481530,-4,1,1,1,-1,0,0,-8
1570179733488749,-1,-1,-2,0,-2,0,-2,-13
1570179733488749,-4,-1,0,-1,0,0,-3,-4
1570179733504726,3,1,-3,-2,-2,1,-1,0
1570179733504726,1,-1,-3,-2,-1,0,-1,-2
1570179733506541,-14,-1,-1,0,0,-2,-10,-18
1570179733506541,2,-1,1,-2,-1,-1,-1,-4
1570179733527797,-4,-2,0,-2,0,-2,-5,-12
1570179733527797,-2,-3,-3,-1,-2,-1,0,6
1570179733528792,-1,1,1,1,0,-1,-14,10
1570179733528792,5,-1,-1,0,-1,-2,0,11
1570179733541761,3,-2,-2,-2,-1,-3,2,7
1570179733541761,-9,-2,-2,0,-2,-3,-4,-20
1570179733548752,-3,0,-1,0,0,0,4,-3
1570179733548752,0,2,0,0,-1,0,0,-8
1570179733564785,-1,-1,0,0,0,2,-1,10
1570179733564785,-3,0,-1,-1,-2,-2,1,-3
1570179733566695,5,-1,-3,-2,-2,0,0,-1
1570179733566695,-10,-1,0,-1,0,-2,-1,-14
1570179733587473,-2,0,0,0,-1,1,3,-6
1570179733587473,-3,0,0,0,-2,-1,1,-1
1570179733589040,15,3,0,-1,0,1,3,2
1570179733589040,3,1,-1,-2,-3,-3,-2,6
1570179733602043,2,0,-2,-3,-1,0,3,8
1570179733602043,-13,1,1,1,1,-1,-2,-11
1570179733608623,-2,0,0,0,0,-2,-8,12
1570179733608623,0,-2,-2,0,-1,-1,0,-2
1570179733625207,-16,-2,0,1,-1,-2,-4,-17
1570179733625207,25,2,2,-1,1,-1,-8,36
1570179733626915,-5,-3,-2,-3,0,2,2,-8
1570179733626915,-3,-1,0,1,0,0,0,-14
1570179733647834,6,0,1,2,1,0,-3,9
1570179733647834,-10,-2,-2,-2,-1,1,4,-16
1570179733648972,-9,-1,-3,0,-1,-1,-1,-16
1570179733648972,0,2,2,0,0,0,0,0
1570179733661792,3,-1,0,0,-2,-2,-2,-2
1570179733661792,7,-4,-3,-4,0,-2,-3,-5
1570179733668778,4,0,1,-1,-1,1,5,13
1570179733668778,-7,1,-1,0,1,1,-2,-5
1570179733684885,2,1,-1,-1,0,-1,-1,1
1570179733684885,-3,-1,-2,0,0,0,2,0
1570179733686871,-9,-1,1,1,1,-2,-1,-9
1570179733686871,-1,0,-1,-1,-1,0,0,4
1570179733707809,2,1,2,0,0,0,2,3
1570179733707809,-2,-3,-3,0,0,1,-2,-2
1570179733708806,1,-1,-3,-1,-1,0,4,7
1570179733708806,-3,-2,-1,0,-1,2,1,-2
1570179733729749,-4,-1,-1,-1,-1,-2,-3,-7
1570179733729749,-1,2,0,-1,-2,0,2,-2
1570179733731744,1,-2,0,-1,-1,-1,1,5
1570179733731744,4,-3,-2,-2,0,1,3,15
1570179733744816,5,-1,-4,-2,-1,-2,1,15
1570179733744816,-1,-2,-1,0,0,1,6,3
1570179733746708,-1,-1,-1,-1,-1,0,1,-2
1570179733746708,3,0,-2,-1,0,-1,-2,3
1570179733767649,-5,-3,0,-1,-1,-1,-1,-13
1570179733767649,-5,0,0,0,-1,0,-2,-2
1570179733768645,1,1,-2,0,0,0,0,-4
1570179733768645,-1,-3,-2,0,-3,-1,1,-7
1570179733780619,3,1,-2,1,0,0,-2,5
1570179733780619,-2,0,0,0,-1,-1,-2,-5
1570179733789590,-2,0,-1,1,0,-1,-4,-3
1570179733789590,-1,0,0,1,0,-3,-3,-2
1570179733804555,-3,-2,-1,-2,-1,0,1,1
1570179733804555,0,-1,-2,0,-1,0,-2,0
1570179733806543,6,-1,-2,-2,0,0,4,-8
1570179733806543,7,0,-1,-2,0,0,0,5
1570179733827489,-4,-1,-1,0,1,0,-2,-6
1570179733827489,0,-2,-2,-1,-1,0,3,11
1570179733829482,-10,-3,-2,-2,-2,0,8,-14
1570179733829482,-1,-2,-2,-2,0,-2,-3,4
1570179733841449,5,-1,1,-1,-1,-2,-2,6
1570179733841449,6,1,2,0,0,-2,-2,7
1570179733857406,-3,0,2,1,-1,-2,-4,-4
1570179733857406,0,-1,-1,0,0,-1,3,5
1570179733864387,2,2,0,-1,-1,0,-1,7
1570179733864387,-7,-1,-1,-1,-1,-1,1,-30
1570179733866383,11,1,-1,-2,0,0,1,11
1570179733866383,11,4,3,1,2,1,-8,10
1570179733886329,-1,-1,-2,-2,0,-1,-2,-5
1570179733886329,1,-1,-1,-1,-1,0,1,2
1570179733895305,-4,-1,0,2,-1,-1,-2,-1
1570179733895305,-3,-2,0,-2,-3,-2,-1,-2
1570179733901289,-1,0,0,0,-1,0,-3,-5
1570179733901289,2,2,-1,-1,0,-1,0,11
1570179733916472,-4,0,0,0,-1,-2,-2,-5
1570179733916472,-1,0,1,0,-2,-1,3,2
1570179733925225,5,-2,0,0,-1,-1,-4,11
1570179733925225,-10,-2,-3,-1,-1,-1,-4,-27
1570179733926222,5,-2,-2,-2,-1,-2,-1,7
1570179733926222,3,0,0,0,0,2,1,0
1570179733948166,-6,0,0,0,0,0,2,-10
1570179733948166,-1,0,1,0,-1,0,-2,-1
1570179733949215,-2,1,-2,0,-1,-1,-2,0
1570179733949215,-3,-1,-1,-2,-1,-2,3,-3
1570179733961142,-9,-3,-2,-2,-1,0,0,-16
1570179733961142,2,-2,0,-2,-1,1,2,19
1570179733970106,0,1,0,-1,-1,-1,-8,-3
1570179733970106,-4,-3,-2,-2,-3,-2,-1,-5
1570179733985242,-4,2,0,-1,-2,-1,-1,-4
1570179733985242,-6,-1,0,-1,1,-1,7,-8
1570179733986108,14,1,-2,-1,-1,-1,-1,16
1570179733986108,-3,-1,-1,0,0,0,-3,-5
1570179734007008,-1,-1,0,-1,-1,-1,-2,-3
1570179734007008,3,0,-3,-1,-1,0,1,2
1570179734009067,-16,-4,-1,-2,-2,0,0,-18
1570179734009067,-15,-1,1,1,1,-1,-2,-17
1570179734020972,7,2,1,0,-1,0,3,4
1570179734020972,2,1,-1,0,-2,-1,-5,5
1570179734029947,-6,-2,-1,0,-1,2,2,-6
1570179734029947,0,-2,-2,0,0,-1,-2,5
1570179734044907,-5,-2,-2,-1,0,-1,-2,-4
1570179734044907,-11,-1,1,-1,2,-1,-5,-19
1570179734046902,10,-1,0,-1,1,0,2,19
1570179734046902,10,1,-2,-1,-1,1,4,22
1570179734067850,10,1,-2,-1,0,0,0,6
1570179734067850,3,0,-1,1,-2,0,-2,9
1570179734069911,-1,-2,0,0,1,0,1,-4
1570179734069911,2,-1,0,-1,0,0,0,4
1570179734080904,-3,-2,-2,-1,0,1,0,0
1570179734080904,0,-1,0,0,-1,-1,-2,6
1570179734089787,-14,-4,-4,-3,-3,-2,-4,-8
1570179734089787,-3,1,-1,0,0,2,0,-26
1570179734104991,11,2,1,3,0,-6,-18,20
1570179734104991,0,-1,0,-1,1,-1,1,-6
1570179734106775,-8,-2,-3,-1,-1,0,6,-6
1570179734106775,-7,-2,-2,-3,0,0,-1,-14
1570179734127688,-4,-1,-1,-2,-2,0,7,-3
1570179734127688,-8,-3,0,-1,0,-1,-5,-4
1570179734128682,5,0,1,0,-1,1,-3,-2
1570179734128682,2,2,-1,-1,-1,-1,2,9
1570179734140651,-9,1,0,0,-2,-1,-4,-31
1570179734140651,12,0,-2,0,2,0,8,29
1570179734149627,-1,0,1,0,0,-2,-1,7
1570179734149627,7,-1,-1,-2,1,0,1,7
1570179734172565,-6,-1,-1,-2,-1,1,1,1
1570179734172565,-3,1,0,-1,0,0,-4,-10
1570179734173564,2,1,-1,1,2,-1,0,-4
1570179734173564,-1,-1,0,-1,-1,0,0,2
1570179734187524,11,-2,-3,-2,-2,-2,4,19
1570179734187524,-6,-3,-2,0,-2,0,-3,-13
1570179734193508,12,0,-1,1,0,0,-1,12
1570179734193508,2,0,-1,-1,-3,0,9,-3
1570179734200489,-7,-2,1,1,0,0,-5,-5
1570179734200489,3,2,-1,-2,-3,0,0,-1
1570179734209468,2,0,-1,-1,-1,2,1,11
1570179734209468,-3,-3,0,0,-1,0,0,-10
1570179734223564,0,-2,-2,-1,0,-1,2,7
1570179734223564,-4,-2,-1,-3,0,0,1,1
1570179734232569,-1,1,3,2,1,-3,-1,-7
1570179734232569,-1,-1,-1,0,-1,-1,-5,1
1570179734247365,-7,-1,-2,-2,0,-3,-2,-13
1570179734247365,-4,-1,0,-1,-1,-2,-2,-2
1570179734253417,-1,-1,-3,-3,-1,1,2,-10
1570179734253417,-8,0,-2,1,0,0,-3,-5
1570179734270303,4,-1,0,1,0,1,1,5
1570179734270303,-2,-2,-1,-2,-1,-1,2,-3
1570179734271301,-3,0,0,1,-1,-2,-4,-3
1570179734271301,-5,-2,-2,0,1,-2,-4,-6
1570179734285265,-10,-3,-3,-4,-1,0,10,-17
1570179734285265,2,1,0,1,0,-1,-1,0
1570179734286261,-3,-1,0,0,-2,0,0,-1
1570179734286261,-1,0,-1,-1,-2,-2,-5,4
1570179734307204,-3,-1,-2,-1,0,0,2,1
1570179734307204,13,-1,0,-1,-1,-1,-2,4
1570179734309422,-3,-1,1,-1,0,-1,0,2
1570179734309422,-6,-1,0,0,-1,1,2,-10
1570179734329145,0,-1,1,0,1,1,1,-2
1570179734329145,-4,1,0,-1,-1,-2,-2,-16
1570179734337124,2,-2,-2,-1,-1,-1,2,9
1570179734337124,4,-1,-2,-2,0,0,3,20
1570179734345103,-10,0,1,0,0,0,-5,-26
1570179734345103,-9,-3,0,-1,-2,-2,-4,-4
1570179734346352,0,0,-2,-1,-1,-1,0,-4
1570179734346352,3,0,0,0,0,0,0,4
1570179734367278,5,0,-1,2,0,-2,0,9
1570179734367278,-9,-1,-1,0,-1,-1,1,-4
1570179734369044,-2,0,-1,-3,-2,-1,-1,-2
1570179734369044,6,0,1,2,1,-2,-3,4
1570179734390122,0,0,-1,-1,0,0,-1,2
1570179734390122,0,1,-1,0,1,0,-5,-2
1570179734391902,9,-2,-3,-1,0,0,0,30
1570179734391902,1,0,-1,-2,-1,-3,-2,-4
1570179734403950,-4,-1,-2,-2,-1,0,0,-3
1570179734403950,6,-2,-2,-1,1,2,6,10
1570179734410928,-5,-2,1,-2,-1,-1,-4,-15
1570179734410928,-9,-2,0,0,-1,-4,-5,-12
1570179734426999,3,0,1,2,-1,-1,-4,-4
1570179734426999,0,0,1,1,-1,-3,-3,4
1570179734428881,-4,0,0,-1,0,-1,-4,-9
1570179734428881,0,0,0,0,-1,-1,-4,-1
1570179734448879,-4,-2,-2,0,-1,-1,-2,-1
1570179734448879,1,-1,-2,-4,-1,0,6,4
1570179734457803,6,0,1,1,-2,-2,-5,3
1570179734457803,-3,-1,0,-2,0,-1,0,-4
1570179734472770,5,1,-1,-2,-2,-1,1,10
1570179734472770,-1,-1,-1,-2,1,0,1,-1
1570179734474757,-4,0,0,0,0,-1,1,-5
1570179734474757,0,-2,-2,-2,0,2,0,-2
1570179734487722,0,-1,0,-1,-1,-1,-1,-6
1570179734487722,0,-1,-2,0,-1,-2,-3,1
1570179734488721,-4,0,1,0,0,0,-1,-7
1570179734488721,8,-3,-3,-3,-3,-3,-2,7
1570179734509879,2,-2,0,0,-1,1,1,6
1570179734509879,0,1,1,2,0,-1,2,13
1570179734511659,-5,-1,-1,-1,1,1,1,-5
1570179734511659,3,2,2,0,-3,-1,2,5
1570179734524623,-9,-2,0,-1,-1,-1,-2,-3
1570179734524623,-4,-7,0,0,-2,1,0,-12
1570179734532687,5,7,0,1,1,-2,-11,4
1570179734532687,-3,2,0,-2,-1,0,-2,1
1570179734547568,3,0,-3,-2,-2,-1,0,3
1570179734547568,1,-2,-2,-1,-2,-1,-1,-2
1570179734548762,-1,-3,0,-1,0,0,-6,-1
1570179734548762,1,-2,-1,0,-1,1,0,1
1570179734569562,5,0,1,0,-2,0,-4,-3
1570179734569562,-1,-1,0,-1,-1,-1,-2,-4
1570179734571574,-7,-5,-3,-2,-1,1,9,0
1570179734571574,11,3,0,1,1,0,1,13
1570179734584508,7,0,-1,-1,3,2,3,6
1570179734584508,-27,-14,1,0,0,1,0,0
1570179734591450,9,13,2,-1,-2,-1,0,-27
1570179734591450,-6,-8,-4,-3,-1,-4,-3,-5
1570179734606405,6,5,-2,-2,-1,-2,-14,21
1570179734606405,-2,-6,-1,-1,0,-2,-8,-12
1570179734621365,-4,-11,-2,-1,-1,1,4,13
1570179734621365,-2,19,-1,-2,-3,-2,-4,-23
1570179734637325,6,-15,-5,-3,-2,-2,0,5
1570179734637325,-1,-1,-2,0,-3,-1,0,2
1570179734639412,-16,-7,0,0,-1,2,-1,-2
1570179734639412,-8,-8,4,3,3,2,8,2
1570179734644303,3,15,1,-1,-1,-2,-3,-11
1570179734644303,8,12,2,1,0,-2,0,3
1570179734651526,-3,-13,0,-1,0,0,2,0
1570179734651526,-7,-4,-3,-2,-1,-1,-1,4
1570179734675225,-3,-2,3,1,0,0,6,0
1570179734675225,20,14,-2,-3,-3,0,-1,13
1570179734676221,6,0,-3,-2,-2,1,6,10
1570179734676221,-7,3,2,3,1,-1,-3,-4
1570179734690181,3,-1,-3,-2,-1,-3,-4,-5
1570179734690181,-11,-8,-5,-3,-3,0,9,-31
1570179734691178,-1,-4,2,2,0,0,1,12
1570179734691178,-9,-11,-1,0,-1,2,2,6
1570179734704145,21,15,5,3,0,2,4,0
1570179734704145,17,18,1,-3,-2,-1,1,8
1570179734711133,-26,-13,-3,-1,0,-1,-4,-1
1570179734711133,20,1,-1,-1,-1,1,1,1
1570179734727235,-28,-16,-3,0,-1,-2,-7,-12
1570179734727235,-7,-5,1,2,2,2,1,-2
1570179734729078,14,11,-2,-3,0,-3,-2,5
1570179734729078,-13,-13,0,0,0,-2,-1,4
1570179734757283,3,6,1,1,0,-2,2,1
1570179734757283,12,2,0,0,1,1,0,12
1570179734759072,9,1,-1,0,-2,-3,-3,4
1570179734759072,-1,4,-1,-1,1,1,1,-6
1570179734762985,11,7,-1,0,1,0,4,15
1570179734762985,-3,-16,-2,2,1,-1,-5,1
1570179734778943,7,7,3,2,0,0,-1,-7
1570179734778943,14,13,-1,-3,-1,-1,-2,-1
1570179734786920,-23,-11,-4,-1,0,1,2,-5
1570179734786920,13,7,3,2,0,-1,-4,5
1570179734788916,4,4,-4,-3,0,0,1,0
1570179734788916,-5,-9,-2,-2,0,-1,-4,-11
1570179734809866,-17,-5,-2,-1,1,-3,1,-1
1570179734809866,23,9,0,-2,-1,0,1,9
1570179734811854,-15,-4,-1,1,0,-1,-1,-14
1570179734811854,7,-2,-2,-1,0,0,-1,2
1570179734823823,8,-1,0,-2,0,-1,2,11
1570179734823823,-10,0,-2,-3,-4,-3,-3,-3
1570179734839856,18,7,1,1,1,0,-2,-6
1570179734839856,-8,-4,-2,1,-1,0,-1,6
1570179734847867,0,-11,-4,0,-2,0,-1,-11
1570179734847867,9,10,-2,-1,-2,-4,-1,6
1570179734848759,-31,-5,-1,-1,0,-1,-1,-35
1570179734848759,32,16,9,6,5,5,-5,31
1570179734869704,-33,-28,-15,-8,-5,-7,-11,-22
1570179734869704,10,4,-1,-1,1,-1,-2,0
1570179734871696,9,-5,0,0,0,1,2,16
1570179734871696,10,13,5,0,-1,1,2,-9
1570179734899623,-3,-9,-5,-3,-3,-2,-5,-22
1570179734899623,-9,-2,3,3,0,0,-2,13
1570179734901615,22,-1,-2,-2,-1,-2,1,6
1570179734901615,-27,1,3,1,0,-1,2,-3
1570179734907600,35,7,0,-1,0,0,4,20
1570179734907600,-20,-16,-6,-3,-2,-2,-6,-26
1570179734908598,18,11,1,-1,-1,1,3,20
1570179734908598,-10,-7,-3,-3,-1,-2,-6,-35
1570179734929540,3,8,3,1,0,1,5,16
1570179734929540,-14,-8,1,-1,1,-1,1,2
1570179734931648,2,0,1,1,0,1,0,1
1570179734931648,7,0,-4,-4,-1,-1,1,9
1570179734952534,-17,-2,2,2,1,0,-2,0
1570179734952534,9,3,0,0,0,2,0,-10
1570179734954474,-7,4,-1,-2,-2,0,-2,-6
1570179734954474,-14,-15,-8,-3,-3,-4,0,3
1570179734967440,3,7,5,1,0,2,3,0
1570179734967440,-7,-6,0,0,0,1,2,4
1570179734969435,-2,0,-3,0,-2,-1,3,-4
1570179734969435,3,-1,-1,-1,1,-1,-6,-1
1570179734989381,2,6,3,1,2,2,7,2
1570179734989381,-2,-3,-3,-2,-1,0,7,1
1570179734991376,-12,-2,2,0,-1,-3,-5,-3
1570179734991376,0,-2,-3,-2,-2,0,7,-3
1570179735004428,1,4,2,-2,0,-1,-3,2
1570179735004428,-8,-2,-1,-1,-2,-6,-35,-13
1570179735012436,1,-3,-2,2,1,0,13,6
1570179735012436,-3,-3,-2,-1,-1,-2,9,2
1570179735027788,2,2,-2,-3,-1,1,-5,-4
1570179735027788,-4,0,-1,-2,-1,3,22,-4
1570179735029275,0,-1,-1,-1,-1,-2,-12,3
1570179735029275,2,-1,1,0,0,1,-3,1
1570179735056204,-1,-1,-1,0,6,4,8,2
1570179735056204,-1,-1,0,2,1,3,3,0
1570179735065943,-5,-3,-2,-5,-10,-6,-5,1
1570179735065943,-2,-2,-2,-3,-6,-3,1,-8
1570179735066327,1,1,0,1,1,0,-4,-1
1570179735066327,-1,0,1,0,5,3,-2,12
1570179735073110,-6,-3,-2,-2,-3,-3,-7,7
1570179735073110,4,-1,-2,-2,0,0,-5,12
1570179735087241,1,1,0,0,-2,-1,11,6
1570179735087241,-3,0,0,-1,-1,-4,-10,-8
1570179735089113,8,2,0,-2,-3,-3,33,18
1570179735089113,-3,-1,-2,-2,2,2,-29,11
1570179735109060,-1,0,-2,0,-1,-3,-8,-4
1570179735109060,-2,-1,0,0,-1,0,-7,-4
1570179735118037,-4,0,-1,-2,0,0,3,-15
1570179735118037,-2,-1,2,2,2,1,15,-13
1570179735123119,0,1,-1,0,1,1,-4,-14
1570179735123119,0,-1,-2,-1,-3,-1,8,0
1570179735132997,-5,-3,-4,0,1,-1,-9,-12
1570179735132997,1,-1,2,1,-2,-4,-11,-7
1570179735146964,-5,0,1,-1,-2,-3,-5,-2
1570179735146964,-1,-1,0,0,-2,-2,5,-5
1570179735148953,13,-1,-3,-1,2,3,-1,16
1570179735148953,2,2,-1,1,-1,0,5,8
1570179735176880,1,1,0,0,-3,-1,4,2
1570179735176880,-7,0,-2,-2,-2,-3,-2,-3
1570179735178875,2,5,2,1,2,2,-2,49
1570179735178875,9,1,0,0,1,2,9,20
1570179735192838,6,0,1,-2,-1,-1,-10,21
1570179735192838,-3,-1,-1,-1,2,1,3,-9
1570179735194085,-7,-2,0,1,0,2,-4,-24
1570179735194085,-5,0,-2,-2,-5,-4,-2,-6
1570179735206798,3,0,0,-1,-2,-3,-7,13
1570179735206798,3,-2,-1,-1,2,0,5,11
1570179735213861,-2,-1,0,1,3,0,-12,-17
1570179735213861,-1,-1,1,-2,-4,0,9,-11
1570179735229737,-1,0,0,3,0,4,4,-15
1570179735229737,-3,-2,0,0,-2,1,-22,-7
1570179735231841,-6,-2,-3,-4,-3,-9,-16,-10
1570179735231841,-9,-3,-4,-2,0,1,2,-11
1570179735252684,-11,0,0,0,-1,0,4,-22
1570179735252684,3,-3,-3,-2,-4,1,14,11
1570179735253675,0,2,0,0,-2,2,3,-6
1570179735253675,-1,-1,-2,-1,1,-1,-4,3
1570179735266643,0,-2,-2,-1,3,-1,8,3
1570179735266643,-2,1,-1,1,1,1,1,-3
1570179735267638,-2,-2,-1,-1,-1,0,2,-10
1570179735267638,-3,-1,-4,-2,-3,-3,-17,-12
1570179735289655,2,-2,-2,0,-1,-2,-2,-1
1570179735289655,0,-2,-2,-2,-5,-5,-2,-4
1570179735289655,-1,-2,2,0,3,5,0,-3
1570179735289655,1,2,1,0,1,1,3,-3
1570179735311523,0,-2,-1,-2,-1,0,-1,5
1570179735311523,9,1,0,0,-2,-3,0,10
1570179735312841,4,1,-1,-1,4,3,8,3
1570179735312841,-4,-2,2,1,9,4,10,-4
1570179735326653,-2,-2,-3,-6,-14,-12,-24,0
1570179735326653,-3,-3,-2,-6,-7,-5,-7,-12
1570179735334461,-3,1,-1,-2,-5,0,8,22
1570179735334461,1,0,-1,1,1,1,-2,12
1570179735349465,8,1,-2,0,4,2,2,22
1570179735349465,-9,1,3,1,1,0,0,-8
1570179735349465,10,-2,1,2,-1,0,-4,-3
1570179735349465,-3,-1,0,0,0,1,6,-14
1570179735371426,0,0,0,0,1,1,5,-16
1570179735371426,-5,1,-2,-1,1,0,-5,-8
1570179735372543,-2,-1,-1,-2,-2,-2,2,-11
1570179735372543,-1,-1,-3,-1,-2,-1,-1,-1
1570179735386320,0,-1,1,-1,-2,-1,3,-9
1570179735386320,4,-1,-3,-2,0,-1,-1,7
1570179735394303,-6,1,0,-1,0,-2,-6,-19
1570179735394303,7,-2,0,-2,-3,-4,-1,9
1570179735409263,-3,-1,0,0,1,1,4,5
1570179735409263,7,0,-1,-1,2,2,5,2
1570179735410257,-7,-2,-1,1,-1,-2,-6,-12
1570179735410257,3,2,0,-1,-1,-2,-2,-11
1570179735431277,2,0,1,-1,1,0,0,8
1570179735431277,-7,0,0,-1,0,-5,-5,-4
1570179735432808,-5,0,0,-1,-1,-1,-5,-16
1570179735432808,-1,1,0,-2,-1,0,1,19
1570179735456195,0,-1,0,0,2,1,2,-1
1570179735456195,2,0,-1,1,-1,0,8,5
1570179735457131,0,-1,-1,-1,0,-2,-7,10
1570179735457131,-16,-9,-1,1,0,-1,1,-20
1570179735469097,8,2,-3,-2,-1,1,2,-3
1570179735469097,-5,-3,0,-1,-7,-6,-2,8
1570179735470294,3,-1,0,1,5,5,6,2
1570179735470294,5,1,-1,-1,1,4,18,11
1570179735492037,13,3,-2,-4,-7,-9,-26,4
1570179735492037,-37,-14,-2,0,1,1,0,-16
1570179735492037,2,3,2,1,0,0,-1,-3
1570179735492037,-12,-11,-3,-1,-2,-3,-3,0
1570179735506996,-6,4,1,1,3,1,2,-13
1570179735506996,4,2,0,1,3,1,-3,-1
1570179735506996,6,0,-1,-2,-3,-2,4,13
1570179735506996,-14,-1,-2,-1,-3,-2,9,-16
1570179735528938,-15,-10,-1,0,-1,-2,4,-9
1570179735528938,5,1,5,3,4,5,4,13
1570179735529936,1,5,-3,-3,0,3,19,-13
1570179735529936,35,18,1,-2,-8,-16,-68,-6
1570179735559855,-20,-2,5,4,6,10,38,-1
1570179735559855,3,-12,-4,-1,-3,0,18,11
1570179735560853,-6,-12,-4,-2,-4,-12,-31,-8
1570179735560853,-20,0,-1,-2,-2,-4,-47,-23
1570179735566877,5,2,0,-2,-3,-5,-6,3
1570179735566877,23,19,3,0,0,4,39,15
1570179735567917,-25,-16,-2,0,1,4,23,4
1570179735567917,24,12,3,1,2,2,4,3
1570179735588783,14,7,1,0,0,7,0,-3
1570179735588783,-13,-7,-2,0,0,3,2,0
1570179735589775,-18,-11,-3,0,-3,-6,-22,-5
1570179735589775,7,-2,-2,-2,0,-3,3,13
1570179735619723,-25,-8,-1,0,-3,-21,-8,-23
1570179735619723,22,8,-1,-1,-5,7,3,2
1570179735620698,7,5,0,0,-1,-1,-15,-6
1570179735620698,-19,-5,-2,-2,-3,4,24,3
1570179735626837,5,-4,0,-1,-12,-3,5,15
1570179735626837,11,2,3,-1,8,-4,-23,2
1570179735634715,11,16,2,-1,12,-2,1,9
1570179735634715,-6,-3,2,5,1,0,12,6
1570179735649615,21,1,-3,-5,2,4,4,25
1570179735649615,-6,-11,-2,-4,-11,-6,-14,10
1570179735650211,8,4,3,2,-2,6,0,4
1570179735650211,22,8,-1,-1,9,0,11,29
1570179735671695,-35,-18,-2,1,5,3,-17,-24
1570179735671695,-3,2,-3,-4,-5,-3,-3,-6
1570179735672553,12,4,1,-1,-2,-5,3,1
1570179735672553,4,1,-1,0,-4,4,6,0
1570179735686579,-9,-1,-1,1,-3,2,-1,1
1570179735686579,4,4,0,3,5,-1,-9,-6
1570179735687963,-6,-5,-2,-2,-6,0,2,-2
1570179735687963,-4,-4,1,-1,-4,-3,-4,6
1570179735709456,3,4,-3,-2,3,3,2,-2
1570179735709456,9,4,1,2,2,-4,-12,12
1570179735709456,-5,-1,0,0,-2,1,6,9
1570179735709456,4,-4,0,-3,1,0,5,3
1570179735731467,-3,-2,-3,-3,-1,2,9,-10
1570179735731467,7,8,2,2,2,-5,6,-6
1570179735732542,-12,-8,-2,-1,-4,-4,-25,-10
1570179735732542,3,1,1,0,1,1,6,0
1570179735746874,12,6,-1,0,-3,0,2,11
1570179735746874,-6,1,-2,-1,-2,1,0,0
1570179735747360,-13,-11,-3,-1,1,0,-1,-12
1570179735747360,25,14,3,1,0,0,7,-6
1570179735769302,0,-2,-2,-2,-2,-2,-9,0
1570179735769302,-9,-5,-2,-2,1,-1,-1,-12
1570179735770293,8,2,1,-1,0,-1,6,4
1570179735770293,-6,-4,-1,-3,-2,-1,-2,-8
1570179735791809,-2,-1,2,2,2,0,1,0
1570179735791809,1,-1,-2,-2,1,-1,-5,3
1570179735792257,4,2,1,0,-1,-1,1,-1
1570179735792257,-28,-10,-3,-1,-1,-3,0,-21
1570179735807195,-2,1,-1,-2,1,-2,-5,-3
1570179735807195,-4,-3,-2,-1,-1,-1,-4,6
1570179735807195,10,2,-3,-2,-3,0,6,8
1570179735807195,-9,-6,-2,-2,-1,1,1,-5
1570179735829137,6,2,1,1,3,0,-11,7
1570179735829137,-3,-1,-2,-2,0,0,-6,-9
1570179735836116,-1,0,0,-2,-3,-2,12,-1
1570179735836116,1,-3,-1,-1,2,0,-1,17
1570179735851078,3,1,0,1,-2,-3,0,-3
1570179735851078,-6,-5,-1,1,-2,-4,-3,-6
1570179735859054,-1,3,0,1,1,0,-1,3
1570179735859054,-4,-4,-1,-1,1,0,6,5
1570179735866038,3,1,0,1,0,-1,5,-7
1570179735866038,-8,-2,-1,-2,-1,0,-4,-12
1570179735874069,-6,-1,0,-2,-1,-2,-2,-7
1570179735874069,5,1,-3,0,0,0,0,3
1570179735888978,0,-2,-2,0,0,1,-1,7
1570179735888978,6,1,-1,0,-1,0,0,-1
1570179735897068,0,-1,0,1,1,0,-1,0
1570179735897068,-5,-2,-1,-2,-2,0,-1,1
1570179735912019,15,3,2,1,-1,-2,-6,-12
1570179735912019,-11,-6,-2,-2,1,0,1,-5
1570179735912019,6,-1,-1,-1,-1,1,4,13
1570179735912019,-6,0,-2,1,-1,-1,-1,-14
1570179735925875,0,0,-3,-2,-4,-5,-11,6
1570179735925875,1,0,1,1,-1,0,0,3
1570179735933856,6,1,1,0,-1,1,-2,7
1570179735933856,-5,-1,1,1,0,-2,-2,-4
1570179735949811,-2,0,-2,-2,1,2,4,0
1570179735949811,0,1,-1,-3,0,-1,-2,1
1570179735949811,-1,-1,-2,0,0,-1,-6,-5
1570179735949811,-8,-4,-2,-1,-2,-1,1,-1
1570179735971835,-7,1,1,1,0,1,3,11
1570179735971835,-2,-1,-2,-1,-2,0,0,-5
1570179735972753,2,0,0,-1,-1,-1,2,-2
1570179735972753,3,-1,1,0,0,0,-2,0
1570179735985799,-1,-2,-2,-3,-1,-2,4,-2
1570179735985799,-6,-4,1,0,-1,1,-2,-5
1570179735994699,-5,-2,-2,0,-2,-1,-1,-5
1570179735994699,5,0,-1,-1,0,1,-4,4
1570179736009653,-9,-1,-1,-1,1,1,2,-4
1570179736009653,10,0,-1,-1,-1,-2,4,10
1570179736009653,4,-2,-1,-1,0,-1,-5,6
1570179736009653,2,-2,-2,-3,-2,0,0,-1
1570179736032591,-2,-2,-2,-1,-1,-1,1,-6
1570179736032591,-4,-1,1,2,-3,-3,-14,-6
1570179736032591,-5,0,0,-1,0,0,0,-7
1570179736032591,0,1,1,1,-1,-1,0,3
1570179736046554,-2,-2,0,-1,0,1,8,-11
1570179736046554,8,2,-1,-2,0,-3,-4,6
1570179736061515,19,0,-1,-2,-1,-1,2,13
1570179736061515,0,-1,-1,-1,0,0,-2,-3
1570179736069495,-2,-1,1,1,-2,-1,-2,2
1570179736069495,-2,-1,0,0,-1,1,4,-9
1570179736069495,-5,0,2,0,0,-2,-12,-3
1570179736069495,-1,-1,-1,1,-1,2,8,-1
1570179736091452,10,1,-2,1,-2,-3,-6,7
1570179736091452,-6,-1,-1,-1,-1,0,6,-1
1570179736092431,-10,-2,-1,-1,-1,-1,2,-13
1570179736092431,-5,-3,0,0,0,-1,-2,-8
1570179736106405,-3,0,0,1,-2,-2,-3,-4
1570179736106405,-1,0,-2,-1,0,0,-2,-3
1570179736114568,-3,1,-1,0,1,-1,2,-6
1570179736114568,7,2,-3,0,-1,-2,-14,6
1570179736129337,-3,-3,-1,-1,-1,1,2,7
1570179736129337,3,0,0,0,-1,1,1,3
1570179736136363,-5,0,-2,1,0,1,-1,-9
1570179736136363,3,1,2,-1,0,2,8,9
1570179736151292,-1,0,-1,-3,-2,-2,-4,-3
1570179736151292,-5,-1,-1,0,-2,0,-2,-3
1570179736152947,-4,1,-1,0,0,0,2,3
1570179736152947,-3,-2,-2,0,-2,-1,-3,-2
1570179736175349,4,0,-1,1,0,1,-3,-1
1570179736175349,1,-1,0,-3,0,0,1,1
1570179736175349,-1,0,0,-1,0,0,1,-1
1570179736175349,-6,-3,-1,-3,-3,-2,-4,-18
1570179736189178,13,1,0,-1,0,-2,3,18
1570179736189178,0,-1,-2,-1,-3,0,-3,-12
1570179736190172,3,0,0,0,0,0,8,2
1570179736190172,-5,-2,1,-1,-1,-1,-3,-6
1570179736212217,-8,-3,-2,-3,-3,-1,4,-12
1570179736212217,4,0,-1,-1,0,-1,0,10
1570179736212217,-2,-2,0,1,-1,0,-2,-2
1570179736212217,6,0,-2,1,1,-1,1,14
1570179736235050,-3,-1,-2,-2,-2,1,-2,-8
1570179736235050,1,1,-1,2,0,0,-6,11
1570179736236122,0,-1,0,-2,-4,-1,-2,-5
1570179736236122,-2,0,1,-1,0,-2,6,3
1570179736250013,2,1,0,-1,0,1,-2,8
1570179736250013,-4,-2,-1,-2,2,-2,1,-5
1570179736250013,-2,-2,-2,-2,-1,1,0,5
1570179736250013,-1,0,-1,0,0,0,-3,-2
1570179736271059,0,0,1,0,-1,-1,2,0
1570179736271059,-2,-1,0,-2,-1,-1,0,-3
1570179736286944,3,-1,0,1,0,-1,0,7
1570179736286944,-10,-2,-1,0,-2,-1,-1,-12
1570179736294890,1,0,0,1,-2,0,2,15
1570179736294890,-3,-1,-1,0,-2,-1,1,-10
1570179736296008,2,-1,-1,-1,-1,-1,-4,0
1570179736296008,1,-2,1,-1,0,-2,1,-3
1570179736308855,-4,0,0,-1,2,-2,-2,-9
1570179736308855,-10,-1,0,-1,1,-1,1,-5
1570179736309851,-4,2,-1,-1,1,1,2,-11
1570179736309851,5,-1,-1,2,0,-1,1,9
1570179736331791,-2,-2,-1,-1,-1,-2,-2,-2
1570179736331791,-1,-1,-1,-1,-3,1,0,-5
1570179736338928,-2,-1,1,0,0,-1,-1,2
1570179736338928,-4,0,-1,-2,0,0,1,-7
1570179736354764,5,-2,0,0,1,-1,-3,5
1570179736354764,3,-1,-2,0,-1,0,2,4
1570179736355727,-2,-3,-2,-1,0,-1,-1,-2
1570179736355727,0,0,-1,-1,-2,0,-3,4
1570179736368709,-3,0,0,0,0,0,-1,-5
1570179736368709,6,2,-1,0,-1,0,-1,2
1570179736369691,-2,0,0,-1,-1,-1,-2,-4
1570179736369691,-4,-2,-1,2,2,-1,-1,-16
1570179736391669,1,-1,-2,1,-2,-2,-2,-13
1570179736391669,3,-1,-1,-1,1,-1,1,7
1570179736392629,4,-1,-1,0,0,-1,1,-1
1570179736392629,-1,-1,-1,-1,-1,1,-1,-1
1570179736415568,-1,-1,-1,-2,-2,-1,-1,15
1570179736415568,-3,0,1,0,1,-1,-1,0
1570179736416566,4,-1,-1,0,-3,-1,-1,9
1570179736416566,1,-1,0,0,0,0,-1,-5
1570179736429535,-7,-1,1,1,1,3,-2,16
1570179736429535,6,2,1,0,-1,-1,-4,-6
1570179736429535,4,1,0,-1,-1,1,-2,8
1570179736429535,3,1,0,-2,-3,-1,-4,6
1570179736451476,-2,0,-3,-2,0,0,1,-22
1570179736451476,-3,-3,-1,-2,-2,-2,0,-41
1570179736452559,-1,3,0,-1,0,0,1,-38
1570179736452559,-5,-2,-2,0,0,-2,3,-26
1570179736474729,-5,-1,-1,-1,-2,-3,-5,-21
1570179736474729,4,-1,-2,0,-1,1,0,22
1570179736476406,-2,-2,-2,0,-1,-1,-1,16
1570179736476406,2,0,-1,-2,-2,-1,1,25
1570179736489381,-2,-3,0,2,-2,0,1,18
1570179736489381,-1,-3,1,0,1,-2,-1,22
1570179736490367,1,-1,-1,-2,-1,-1,2,-1
1570179736490367,6,4,1,1,0,-2,-21,23
1570179736511312,6,-1,-1,0,-1,1,3,20
1570179736511312,-4,-1,-2,0,0,-1,1,0
1570179736512474,-2,-1,0,1,0,-1,-3,7
1570179736512474,-3,-2,1,-2,0,-1,5,-9
1570179736535256,1,-1,-1,-1,-1,-1,-1,-6
1570179736535256,1,0,1,-2,0,-1,-1,8
1570179736535256,-8,-2,-2,-1,-1,0,1,-5
1570179736535256,9,1,-5,-2,-3,0,3,8
1570179736557188,4,-1,-1,0,1,0,-4,-2
1570179736557188,-6,-3,-1,0,0,0,2,-8
1570179736558186,1,-1,-1,-1,-1,-1,0,1
1570179736558186,0,-1,-1,-1,0,-1,3,4
1570179736571154,-1,0,-1,0,-3,-1,-1,-11
1570179736571154,0,0,0,-1,-2,0,-1,1
1570179736572173,-1,-1,-2,-2,-1,-1,-1,1
1570179736572173,-3,-1,-1,1,0,0,-1,-5
1570179736595087,-1,-1,0,-1,0,-2,2,-2
1570179736595087,-2,-2,-2,-1,0,1,1,10
1570179736596086,0,-1,0,0,-1,-2,-2,5
1570179736596086,-7,-4,0,-2,-1,1,13,-14
1570179736609093,-1,-1,-1,-1,0,0,-1,0
1570179736609093,-3,-1,-1,0,-1,0,0,-9
1570179736610049,1,0,-2,0,1,0,0,1
1570179736610049,0,0,-1,-1,-1,0,0,4
1570179736631991,-3,0,-2,-1,-1,-1,-2,-3
1570179736631991,-1,0,-2,0,-1,2,1,-7
1570179736631991,0,0,1,0,-1,-1,0,10
1570179736631991,-2,-1,1,1,-1,-1,-3,-1
1570179736654970,-9,-2,-1,-3,-3,0,3,-20
1570179736654970,7,1,0,-1,-1,-2,-2,13
1570179736655923,3,0,-2,0,0,-1,0,4
1570179736655923,-5,-1,-3,0,-1,-1,-2,-3
1570179736668888,2,0,-1,-1,-1,3,4,7
1570179736668888,-3,0,1,0,0,-2,-1,-8
1570179736669885,-4,-1,0,-1,-2,-1,-3,-14
1570179736669885,2,1,0,-2,1,-1,-1,1
1570179736691827,1,-1,-1,1,1,1,4,9
1570179736691827,-7,-1,-1,-1,1,1,-2,-13
1570179736692824,-5,-2,-1,-1,-2,-1,-4,-16
1570179736692824,1,-1,0,-2,-2,-1,2,3
1570179736730722,1,0,2,-1,0,-3,-4,-3
1570179736730722,1,0,-1,0,1,-1,-1,1
1570179736731720,3,2,1,1,-1,0,-5,19
1570179736731720,-6,-1,0,-1,-2,-1,-6,-7
1570179736733716,-5,-1,0,0,-1,-2,-2,-10
1570179736733716,-4,1,1,-1,1,-2,-5,2
1570179736736706,4,-3,-4,-3,-1,1,6,10
1570179736736706,0,1,0,-1,-1,-1,-3,-1
1570179736751667,6,1,-1,-1,-2,-1,-2,11
1570179736751667,2,1,-1,-2,-3,0,-2,1
1570179736752663,-5,0,0,0,0,1,0,-7
1570179736752663,3,-2,-3,0,1,0,1,7
1570179736782584,3,0,0,0,-1,1,0,1
1570179736782584,1,-1,1,0,-2,-1,1,0
1570179736782584,-1,0,0,-1,0,0,-1,-4
1570179736782584,1,0,-1,1,0,0,-2,-10
1570179736788568,1,0,-1,-1,2,1,0,18
1570179736788568,-2,0,0,-2,-2,-2,1,-6
1570179736796796,-3,-2,-2,0,0,0,2,-3
1570179736796796,-1,-2,-1,0,-1,0,1,2
1570179736811513,0,-1,1,1,-1,-1,-1,-11
1570179736811513,-9,-1,-1,0,-1,-1,-2,-15
1570179736812504,6,0,-1,-1,0,-1,3,8
1570179736812504,-2,-1,0,-3,-2,-1,0,-2
1570179736834712,-2,-2,-1,-1,1,-2,-2,-7
1570179736834712,-5,-4,-2,-3,-1,1,9,-5
1570179736835443,-9,-1,2,1,-2,-4,-16,-12
1570179736835443,1,0,0,1,-2,0,-1,-4
1570179736848409,-5,-1,-2,-1,-1,0,0,0
1570179736848409,3,-1,-2,0,1,-1,2,6
1570179736856389,-1,-1,-2,-3,-2,-1,-1,-9
1570179736856389,1,-1,-1,-1,-1,-1,-1,0
1570179736871528,-3,1,0,-1,-1,-2,-3,-3
1570179736871528,3,-1,-2,-1,-1,-1,-2,2
1570179736872351,8,1,-1,0,-1,0,3,5
1570179736872351,-8,-1,-2,-3,-2,-3,-6,-18
1570179736895310,-2,-1,-1,-1,-2,-2,0,-10
1570179736895310,7,-1,-1,-1,-1,0,0,11
1570179736895310,2,0,0,-1,0,0,2,5
1570179736895310,-2,-1,2,0,0,0,1,-2
1570179736908249,4,1,1,0,0,-1,0,4
1570179736908249,0,1,0,1,-2,0,-3,4
1570179736917225,-5,-1,0,0,-1,-1,2,-2
1570179736917225,-1,1,0,-1,0,1,0,0
1570179736932286,-2,1,0,0,-2,-1,-1,-3
1570179736932286,-2,3,1,0,1,0,-3,-1
1570179736932286,0,1,0,-1,2,0,0,-7
1570179736932286,5,0,-2,0,-1,-1,-1,9
1570179736955125,-1,-1,-1,-2,-1,1,1,1
1570179736955125,-2,0,0,0,0,-3,-3,0
1570179736955125,-4,-2,1,1,0,-1,1,-11
1570179736955125,0,-1,-2,-1,1,0,-1,5
1570179736969093,4,0,-1,-2,1,-3,-6,-9
1570179736969093,9,1,0,1,1,2,4,19
1570179736977106,-6,-2,-1,-2,-3,-1,6,-8
1570179736977106,-1,0,0,0,0,-2,0,-4
1570179737006986,-1,-1,0,-1,-1,0,-2,-6
1570179737006986,-1,0,1,0,1,-1,-4,-7
1570179737007983,-1,-1,0,0,1,1,-2,-1
1570179737007983,4,0,0,-1,1,-1,3,14
1570179737015026,-5,-1,0,-1,-2,-1,2,1
1570179737015026,-1,-1,-1,0,-2,-1,-1,-1
1570179737015964,2,-1,-2,-2,-1,-2,-2,-2
1570179737015964,1,-1,-2,0,-1,-1,-2,2
1570179737028927,0,1,0,2,0,-1,-2,2
1570179737028927,-5,-1,0,-1,-2,0,1,-5
1570179737036909,0,0,-2,-1,-1,0,2,-5
1570179737036909,-2,0,0,0,0,1,0,0
1570179737051867,-5,-3,-1,0,0,0,0,-1
1570179737051867,5,1,-2,-3,-1,0,-1,8
1570179737058928,-5,0,-1,-2,1,-1,-3,-10
1570179737058928,-3,0,-2,-1,1,0,2,1
1570179737074806,4,2,2,2,-1,0,-2,9
1570179737074806,-9,-1,-1,1,-1,-2,0,-24
1570179737075889,8,-2,-1,-2,-3,-1,1,33
1570179737075889,0,0,-1,0,0,-1,-3,-10
1570179737097784,6,-1,-1,-1,-1,-2,0,5
1570179737097784,-1,-3,-3,-1,1,0,0,-3
1570179737097784,2,2,2,1,0,0,-2,7
1570179737097784,-4,-2,-1,-1,-2,-2,-2,-6
1570179737111707,1,-1,-2,0,2,-1,1,6
1570179737111707,-7,-5,-3,-3,-1,-3,-5,-10
1570179737119685,-5,0,-2,1,1,0,-1,-8
1570179737119685,1,0,-1,0,0,0,1,5
1570179737134649,-9,-4,-2,-3,-1,-1,5,-29
1570179737134649,-4,0,1,0,-2,-1,1,17
1570179737135640,6,0,0,0,1,0,2,11
1570179737135640,-1,0,0,1,0,0,-1,1
1570179737156585,0,-1,-2,-2,-1,0,-1,-3
1570179737156585,4,3,1,0,1,0,3,5
1570179737163570,0,0,-1,0,-2,-2,-1,-2
1570179737163570,-3,-4,-1,-2,-2,0,-3,-6
1570179737173540,-9,-1,0,0,-1,0,0,-3
1570179737173540,-1,-2,-2,-1,-1,0,-2,-8
1570179737173540,7,2,1,0,-1,-3,-3,6
1570179737173540,-3,-3,-1,-1,1,-1,-1,-10
1570179737194484,-4,-1,-3,-1,-1,-2,-5,-3
1570179737194484,1,-2,-1,-2,-1,0,-1,-3
1570179737195482,0,-1,-1,-2,-1,0,-2,-3
1570179737195482,-3,-1,0,0,0,-1,-1,5
1570179737218425,4,0,2,0,-1,-1,0,8
1570179737218425,-4,-1,-2,0,-3,-2,0,-23
1570179737218655,-9,-1,-1,0,0,-3,-13,-9
1570179737218655,4,1,1,-1,1,0,2,8
1570179737231386,-2,0,0,-3,1,0,-1,3
1570179737231386,5,0,0,0,-1,0,1,6
1570179737232384,-10,-2,0,-1,0,-1,4,-11
1570179737232384,-4,0,1,0,0,-1,-3,-4
1570179737255322,-6,-2,-1,0,0,-2,0,-2
1570179737255322,1,0,1,-1,1,-1,-1,-3
1570179737256322,0,0,-1,1,-1,-1,-1,-3
1570179737256322,4,0,-1,0,-1,0,-1,9
1570179737277319,-1,1,0,-1,0,0,-1,-5
1570179737277319,1,3,1,1,2,2,4,10
1570179737278261,6,0,0,0,0,0,-1,-3
1570179737278261,-1,0,-1,-1,-2,-1,1,-6
1570179737291228,-1,-2,-1,0,0,-1,-3,2
1570179737291228,-1,-2,-2,-2,-2,0,-3,0
1570179737292343,2,0,0,-2,-2,-1,-1,6
1570179737292343,-3,2,1,-1,-2,-3,2,-5
1570179737315219,5,-1,-1,0,0,1,-1,14
1570179737315219,1,-1,0,-1,0,-2,-1,5
1570179737315219,-8,-2,-3,0,0,1,4,-4
1570179737315219,-3,-4,-2,-1,-2,0,1,-6
1570179737337510,-9,-4,-4,-2,1,0,2,-7
1570179737337510,-4,-3,-2,-3,-2,-4,-2,0
1570179737338100,-4,-3,1,0,-1,0,-5,-7
1570179737338100,-4,-1,-2,0,0,-1,1,-8
1570179737360041,0,1,-1,1,0,-1,0,-6
1570179737360041,8,0,-1,-1,-2,0,1,14
1570179737361138,2,-1,-1,-2,-1,1,4,3
1570179737361138,2,-2,-3,-2,-2,-2,-2,9
1570179737375153,2,1,0,-1,-1,0,-1,-1
1570179737375153,-6,0,0,-1,-1,1,0,-7
1570179737375999,7,-2,-2,-1,2,-1,3,21
1570179737375999,5,-1,-1,0,-1,-1,-2,9
1570179737396943,7,1,-2,-1,-1,-1,2,12
1570179737396943,-7,-3,-2,-1,1,1,2,-6
1570179737397940,2,1,0,-2,0,-4,2,0
1570179737397940,3,1,1,0,2,-1,-3,0
1570179737411903,-6,-2,0,0,-1,0,2,0
1570179737411903,3,0,-1,-2,-1,-4,-13,-17
1570179737412902,-7,0,0,2,-1,2,1,-10
1570179737412902,-11,1,-1,0,0,0,-1,-15
1570179737434990,13,-2,-1,-1,-3,0,6,5
1570179737434990,-4,-1,0,0,0,1,-2,-2
1570179737435941,-1,-1,-1,0,-1,0,-1,0
1570179737435941,-1,1,1,-2,-3,-1,-2,-4
1570179737457504,-3,-1,1,-1,-1,-1,0,-4
1570179737457504,2,1,-2,1,0,-1,0,-1
1570179737458581,6,0,-2,-3,-1,1,2,1
1570179737458581,-1,-2,-1,1,-1,-1,4,1
1570179737471466,-2,-2,0,-1,0,1,-2,-2
1570179737471466,5,0,1,-1,0,0,0,9
1570179737472461,-4,0,0,0,1,0,-3,-2
1570179737472461,2,1,0,0,0,0,0,1
1570179737494505,1,-1,-4,0,-3,0,-4,-5
1570179737494505,0,-2,-1,-1,1,-1,3,9
1570179737495669,-6,-1,-1,-2,-1,-1,-1,-15
1570179737495669,10,-1,-1,-1,-1,1,5,16
1570179737517806,-3,1,1,0,-1,0,-4,-2
1570179737517806,-6,-1,1,0,-1,0,4,-11
1570179737518543,9,0,-2,-1,-2,-2,-1,13
1570179737518543,-5,1,-1,1,1,-1,-11,-2
1570179737531857,7,1,1,-1,-1,-3,-7,12
1570179737531857,-1,0,-1,0,-1,0,-3,2
1570179737532807,-3,-2,0,-1,-2,-1,-2,-1
1570179737532807,1,-3,-2,-2,-1,-2,-2,2
1570179737554185,-2,-1,-2,-2,-2,-1,3,2
1570179737554185,-1,-1,0,0,0,1,-3,-3
1570179737561589,-2,0,-1,0,0,0,1,-2
1570179737561589,0,-2,0,-1,-1,0,4,-3
1570179737577803,-2,-1,-1,-1,1,0,-3,-13
1570179737577803,3,-2,-1,1,-1,0,0,4
1570179737578611,1,1,0,1,-1,0,0,-1
1570179737578611,-5,-1,-1,-3,-2,0,1,-6
1570179737591897,-6,0,0,1,-1,0,0,-3
1570179737591897,1,-1,-3,-2,-1,-2,-3,3
1570179737592896,-5,0,0,0,1,-3,-3,-9
1570179737592896,-5,-2,-2,-1,-1,0,-1,-4
1570179737613603,4,-1,1,0,-1,-2,-2,9
1570179737613603,-1,1,-2,-2,-1,-1,3,-4
1570179737621913,-13,-3,-1,-2,-3,-1,0,-28
1570179737621913,10,2,0,0,-1,-1,-3,18
1570179737637211,-2,-2,-4,-2,-2,0,8,-12
1570179737637211,5,0,-2,0,0,-1,0,7
1570179737637980,0,0,0,-1,0,1,4,12
1570179737637980,-16,-1,0,-3,-1,0,0,-22
1570179737652017,-1,1,1,1,0,0,-1,-2
1570179737652017,3,1,0,2,0,-1,-1,2
1570179737652695,4,-1,-3,1,1,1,-2,8
1570179737652695,-1,-1,-2,-1,-1,-1,0,-2
1570179737674992,-15,0,0,-1,0,-3,-6,-9
1570179737674992,-2,1,0,-1,-1,-1,-2,-13
1570179737675846,5,0,0,-1,0,1,1,13
1570179737675846,4,-1,0,-1,-1,0,1,-6
1570179737697023,8,-1,-3,1,-2,0,4,13
1570179737697023,4,0,0,-1,-1,-1,-2,10
1570179737698072,-1,-1,-1,-1,-1,-1,-3,-8
1570179737698072,6,-1,-1,-1,-1,-2,-2,16
1570179737712030,1,0,-1,-1,-2,-1,1,-1
1570179737712030,-6,0,-1,-1,-1,0,0,-6
1570179737712979,11,-2,1,1,3,-1,-6,11
1570179737712979,-1,-3,-2,-1,0,-1,-3,-8
1570179737734919,-2,-3,0,-1,10,6,7,-6
1570179737734919,-12,-2,-2,2,20,16,-10,-7
1570179737736030,-1,3,3,2,2,-2,1,-10
1570179737736030,5,2,-1,-7,-40,-16,4,16
1570179737757857,5,-2,-3,-4,-4,-9,4,-10
1570179737757857,29,2,0,4,20,10,0,45
1570179737757857,-30,-12,-10,-6,1,-11,-14,-62
1570179737757857,23,1,-1,-8,-37,-26,5,55
1570179737770827,-30,6,6,1,-20,-4,-13,-35
1570179737770827,58,4,3,-3,-9,-6,20,60
1570179737780660,-2,-4,4,4,23,20,-9,-3
1570179737780660,1,-5,-14,-8,23,26,7,3
1570179737802740,6,4,4,13,13,0,5,8
1570179737802740,-17,-4,3,4,-7,-1,32,-2
1570179737803737,4,0,-1,-2,-7,0,-8,18
1570179737803737,-7,5,-1,5,13,5,-10,-28
1570179737816764,4,3,19,4,-11,-5,8,-2
1570179737816764,-21,-1,1,6,7,-2,-22,-54
1570179737823731,5,3,2,3,-2,-3,19,19
1570179737823731,16,13,9,-2,-7,-2,-6,-7
1570179737831662,-13,-23,-14,-9,-2,-4,-16,-6
1570179737831662,2,1,-10,-14,-15,-12,5,20
1570179737839639,-14,-11,-19,-12,-5,-2,-1,-5
1570179737839639,37,19,-3,4,20,26,5,19
1570179737853602,-30,-15,-16,-21,-19,-9,-2,-4
1570179737853602,-62,-27,4,19,20,4,-7,-14
1570179737862581,92,43,10,7,6,1,5,23
1570179737862581,-13,-1,10,7,-10,-7,1,8
1570179737877614,19,13,14,5,6,5,11,14
1570179737877614,-9,-3,1,-8,33,14,-8,-27
1570179737878536,-28,-7,6,14,-19,-5,-13,-3
1570179737878536,-17,-20,-11,-7,-24,-25,3,-13
1570179737890519,12,-9,-15,-12,6,3,-3,8
1570179737890519,13,17,-18,3,-13,-12,-5,0
1570179737899479,-7,18,21,12,35,20,20,15
1570179737899479,5,35,50,-1,12,-1,-14,-19
1570179737913441,-35,-50,3,21,12,5,-18,-26
1570179737913441,2,8,-8,-3,-25,-6,9,4
1570179737922187,13,-1,-12,-16,-10,-4,15,25
1570179737922187,-18,-29,-19,3,20,14,-6,-4
1570179737937151,16,18,-9,0,19,5,12,15
1570179737937151,-2,-16,2,-2,-33,-12,-16,-16
1570179737939146,-9,-15,-23,-28,-43,-25,6,7
1570179737939146,-5,11,4,6,19,-1,-3,-2
1570179737951122,14,29,19,26,30,16,3,-2
1570179737951122,2,-8,0,-2,-4,0,7,3
1570179737966252,-11,0,14,3,-19,-2,-7,-12
1570179737966252,-6,-22,-12,-5,-8,-4,5,1
1570179737974058,14,10,-2,1,-11,-7,-4,8
1570179737974058,2,16,4,-2,0,-6,5,-6
1570179737981168,-7,12,11,-6,6,2,-7,-7
1570179737981168,-12,-16,14,20,11,3,5,1
1570179738004978,-4,-18,-27,-16,-11,-2,-12,3
1570179738004978,-2,3,8,-7,20,15,-1,-14
1570179738006100,-16,-19,-4,2,-15,-10,5,-9
1570179738006100,-21,-8,-11,2,-18,-17,-12,-20
1570179738010960,46,31,-6,-19,-29,-10,3,18
1570179738010960,15,19,6,13,13,6,-4,8
1570179738020001,5,0,11,11,11,9,1,10
1570179738020001,22,5,6,21,11,4,7,-6
1570179738033964,2,-5,-4,-22,-14,-7,-4,-11
1570179738033964,-31,-25,0,-6,2,1,-3,-7
1570179738043149,-56,-26,-11,-1,15,11,2,2
1570179738043149,28,31,9,5,-31,-16,-2,6
1570179738056966,36,25,7,22,11,2,-5,2
1570179738056966,-12,-15,-14,-28,-38,-13,0,-4
1570179738059895,1,8,-4,-7,14,1,-12,-2
1570179738059895,-38,-42,-14,-13,34,18,6,1
1570179738079841,-37,-17,10,10,-6,3,12,5
1570179738079841,38,38,-4,8,-1,3,-11,2
1570179738081922,19,-6,-4,-1,-35,-18,-9,-9
1570179738081922,-39,-11,-5,-16,20,8,0,1
1570179738093804,49,30,20,41,16,1,5,6
1570179738093804,-86,-57,-9,4,-2,-2,4,-4
1570179738108764,93,29,-25,-16,22,8,-8,-16
1570179738108764,-22,-13,-14,-25,-18,0,-1,-3
1570179738117741,30,18,-2,4,14,-9,-8,-2
1570179738117741,-5,-14,16,-2,3,2,3,12
1570179738118738,-48,-31,-13,2,-14,-2,-3,-15
1570179738118738,-3,1,10,9,-1,-4,3,10
1570179738139683,-3,4,-14,-24,-17,-5,-11,-17
1570179738139683,11,5,7,12,-10,-6,8,-12
1570179738141826,5,7,-1,-8,1,-3,-7,6
1570179738141826,21,24,12,20,17,7,3,-6
1570179738154640,-48,-21,-4,-15,-17,-4,-3,-6
1570179738154640,29,3,-4,-9,0,2,2,-10
1570179738160702,-5,11,19,12,4,-2,10,28
1570179738160702,-12,-20,-23,1,11,3,-9,-29
1570179738177579,-25,-30,-5,-26,6,18,13,-25
1570179738177579,3,26,4,2,-24,-20,-22,14
1570179738179574,-5,-6,13,5,6,-1,3,-13
1570179738179574,-38,-47,1,-11,-11,-1,-7,-17
1570179738199556,101,86,-3,-6,-2,0,2,3
1570179738199556,-33,-42,-17,-21,-13,6,1,2
1570179738201516,13,16,-8,-4,24,-2,2,-1
1570179738201516,-21,-10,-6,-10,-6,-3,4,17
1570179738214013,-15,-23,10,34,15,3,-9,-12
1570179738214013,-1,5,0,-8,-15,-3,0,-6
1570179738222460,-2,-7,4,9,2,-2,-1,6
1570179738222460,1,6,-7,-6,13,5,9,13
1570179738237420,-14,-10,-4,-7,0,-1,-1,20
1570179738237420,6,13,3,6,3,1,3,4
1570179738238518,39,-10,3,18,0,2,2,8
1570179738238518,-2,11,-3,5,-13,-7,-5,9
1570179738259364,-10,1,3,-6,18,4,2,3
1570179738259364,1,-10,-11,-22,-6,-4,-3,0
1570179738261355,-36,-16,-6,-4,-8,4,4,4
1570179738261355,68,71,30,25,5,-4,-8,-12
1570179738273420,-50,-73,-20,-11,-21,-2,0,-5
1570179738273420,43,15,-8,-18,-3,-1,0,4
1570179738290312,-64,-21,-3,1,-5,-4,-5,-22
1570179738290312,13,2,-12,-9,-7,-5,-1,-5
1570179738297263,-26,-4,15,7,-2,1,-10,6
1570179738297263,31,6,-1,8,13,-3,-2,-13
1570179738299261,-19,-24,-9,-24,-14,3,-1,-12
1570179738299261,23,17,9,26,9,0,-1,0
1570179738320205,-21,-3,6,3,2,1,7,11
1570179738320205,8,3,2,7,10,0,-1,7
1570179738321565,13,32,8,6,2,-4,-6,-11
1570179738321565,-8,-17,4,14,13,6,4,-4
1570179738333786,-15,-13,-3,-10,-11,0,10,17
1570179738333786,14,39,7,26,29,4,-2,3
1570179738342140,-7,-14,7,4,-18,3,1,7
1570179738342140,11,0,-4,-9,66,20,6,5
1570179738357102,-14,-4,-3,-5,-50,-28,-5,7
1570179738357102,-7,7,-1,-10,-14,-9,2,26
1570179738359094,2,16,2,2,0,-2,0,-7
1570179738359094,8,9,-8,-10,-5,1,-6,-30
1570179738380242,-1,5,0,-6,6,7,2,-51
1570179738380242,-30,-42,-2,-7,7,8,7,-18
1570179738382037,43,66,31,44,20,0,-20,-3
1570179738382037,-6,-19,-23,-23,-38,-11,5,17
1570179738393005,16,12,0,-10,17,4,0,24
1570179738393005,-6,4,12,28,30,18,10,19
1570179738403031,-6,-3,-11,3,-12,-3,22,32
1570179738403031,-17,2,38,15,-8,-4,-26,-16
1570179738417378,3,4,-7,-6,8,-7,-15,-34
1570179738417378,-6,-10,-9,1,-11,-3,2,-2
1570179738418934,-4,-13,-9,-18,-2,7,2,7
1570179738418934,9,14,-2,6,3,-1,6,15
1570179738439878,0,-7,0,13,21,7,8,-3
1570179738439878,-2,-7,1,-10,-18,-2,-10,-33
1570179738441878,-3,-16,3,-12,-5,-7,19,-19
1570179738441878,5,0,-35,-5,-12,-9,-20,4
1570179738453948,9,64,30,6,68,33,-17,28
1570179738453948,-24,-70,-37,0,-72,-37,4,-29
1570179738462818,27,-10,-3,-35,-25,-9,8,-17
1570179738462818,-3,-1,10,7,-3,2,21,-28
1570179738477778,-65,-26,-24,-18,-6,-2,12,-27
1570179738477778,45,53,33,28,8,-4,1,33
1570179738478775,29,11,-3,-6,-14,-5,-22,37
1570179738478775,23,26,14,19,26,2,4,7
1570179738499722,-91,-89,-35,-22,-15,2,15,10
1570179738499722,16,13,-4,2,64,27,-4,-8
1570179738501713,-1,-3,5,-9,-17,-6,19,-51
1570179738501713,58,-6,3,-31,-73,-19,-29,14
1570179738513682,-2,16,4,0,-38,-30,-15,0
1570179738513682,20,11,-3,13,74,33,14,37
1570179738522658,-19,17,32,42,11,11,1,27
1570179738522658,-39,-46,-28,-46,-58,-16,-3,-22
1570179738537617,44,7,6,14,-21,-12,4,19
1570179738537617,2,5,7,-19,-22,-6,-12,26
1570179738538614,-41,4,-20,4,62,20,-1,-4
1570179738538614,55,37,-2,-6,0,4,20,40
1570179738559583,-65,-58,-3,18,-7,-4,-13,-4
1570179738559583,66,17,8,-4,2,-4,-5,3
1570179738561553,-17,15,-6,-1,22,1,-11,11
1570179738561553,-23,-30,10,4,-10,-8,9,8
1570179738573560,74,54,21,24,33,17,-3,45
1570179738573560,-13,4,1,2,2,7,9,-3
1570179738582499,-2,-13,-12,-4,-9,-12,-6,1
1570179738582499,-38,-10,6,19,39,17,-2,-2
1570179738597458,37,9,-4,-7,-37,-13,1,7
1570179738597458,-21,-2,13,13,-14,-14,-3,-6
1570179738599456,60,32,-3,-12,-29,-9,-9,8
1570179738599456,-8,-16,9,34,47,17,8,23
1570179738619509,-39,75,46,21,23,3,5,-45
1570179738619509,-73,-80,-35,-38,-20,-7,-8,1
1570179738621393,37,6,-9,1,-20,-2,0,-3
1570179738621393,47,38,-3,-10,-25,-5,10,18
1570179738633656,-79,-73,-17,-25,-6,-14,-6,-33
1570179738633656,84,47,18,14,2,9,-11,19
1570179738642338,-12,-28,-8,-4,26,6,-11,-28
1570179738642338,-24,11,-6,-10,2,3,4,-11
1570179738659293,44,15,-1,1,-8,8,9,20
1570179738659293,-44,11,-10,-26,-15,-10,-8,-8
1570179738661287,-29,-65,-5,8,5,2,8,-12
1570179738661287,1,4,-7,-14,-9,0,-6,-6
1570179738680237,35,11,0,-8,-10,-3,-3,32
1570179738680237,-16,-5,5,10,11,-5,-6,-16
1570179738681234,8,28,9,-9,-22,2,-13,16
1570179738681234,-3,-24,-18,-13,9,-4,-9,-6
1570179738693200,2,-20,-12,4,14,14,7,5
1570179738693200,26,27,16,5,-19,-3,7,2
1570179738702177,-37,-19,7,-1,-35,-19,-15,-40
1570179738702177,-15,-16,-11,-13,1,-1,1,-15
1570179738717140,34,12,-6,-7,-2,-5,1,5
1570179738717140,-21,7,4,4,7,-1,32,-43
1570179738719132,20,-7,-7,4,27,9,-24,25
1570179738719132,-7,-3,-7,-4,-17,-9,2,-15
