timestamp,emg1,emg2,emg3,emg4,emg5,emg6,emg7,emg8
1569406552481999.0,3.5461253238542216,1.3302137405247902,1.6540086611700147,1.1230084469114545,2.6017038119692653,2.4636678913592793,3.299180516639561,8.218502451203886
1569406552481999.0,1.9027697226002762,1.0531916246772697,1.599494588924329,1.1592589925788739,2.4078500109888763,2.2851824749444205,2.7471982959821672,6.311535543471303
1569406552482995.0,1.8807137988885703,1.08351212976254,1.6063626182387112,1.1652327515203584,2.3379393701019944,2.2809171443561937,2.78661151296685,6.3349837465755545
1569406552482995.0,1.3727560934853882,1.0376116200578256,1.5852229257161365,1.2081579630801054,2.3340824141106506,2.22810340226265,2.6596318174189526,5.807421874955442
1569406552483993.0,1.3946587800874595,1.064484272277819,1.5840832960858326,1.2109231654549029,2.278084466246966,2.2265289136293456,2.687525370639783,5.893397568233545
1569406552483993.0,1.1662709983557982,1.0547451376029433,1.5638665329445476,1.2419351700727719,2.2833807099349586,2.199889236561954,2.6384721648981295,5.679723651302051
1569406552483993.0,1.234295094977172,1.0837419565003357,1.5571344818202537,1.247051524079271,2.2348247789230173,2.1996934422289867,2.6758987734670927,5.821334578080439
1569406552483993.0,1.1513000856187412,1.0894875282906022,1.5410760758960134,1.275515766973765,2.2432790618900906,2.1805036320649416,2.6583039400624693,5.768025561647414
1569406552494965.0,1.2283054138158829,1.1130459621974966,1.5394799533842691,1.2831439936560554,2.2069639319906487,2.171662534864299,2.6950353981897712,5.947962244285037
1569406552494965.0,1.2058769968922036,1.1180838993725788,1.528556567788889,1.3071388054980653,2.2187827496503743,2.1442006355835956,2.694458560619177,5.959114955000771
1569406552504939.0,1.2815695361185628,1.1366217514261272,1.5201712847161848,1.3087732604043618,2.1860587721640323,2.133103373734023,2.7369506105233627,6.120326124738689
1569406552504939.0,1.2875341077950697,1.1426394994713405,1.5011896976527275,1.3246187936180327,2.1938557230057576,2.119445573064659,2.753695290642868,6.1221902288029995
1569406552510206.0,1.3476907216247895,1.1599779094943272,1.4907651465296163,1.3269246125235534,2.1598703610652747,2.1210125111827454,2.7956169513356177,6.226755317968512
1569406552510206.0,1.3605513341000761,1.1658897874152605,1.475981542327049,1.3460788309953184,2.1609403962444245,2.1170348567331736,2.816535082425035,6.207709135727723
1569406552527000.0,1.4169016116570203,1.1786251223634325,1.4694771003249691,1.354904823267343,2.1263249654540197,2.124800565253366,2.8719144480488246,6.292208869642049
1569406552527000.0,1.4372976274099674,1.1803241960290967,1.4572362542705626,1.3760091200834879,2.125867789294467,2.129043795911835,2.913449828307172,6.27087801460317
1569406552533252.0,1.4817628051540976,1.1847302097399397,1.4480232962882489,1.3827021032973625,2.0896121637162604,2.1442004283330673,2.965925764005013,6.332291622627274
1569406552533252.0,1.499893165948377,1.1807800560018313,1.4340438098759147,1.400488309634461,2.0845357805485207,2.1559410125341008,2.996985245510721,6.3030506258819825
1569406552548231.0,1.5386545510548921,1.1845275289122938,1.4258073818604493,1.4047603491305216,2.049253643829834,2.1757601049216326,3.035896956223161,6.353802599738536
1569406552548231.0,1.5547957255415623,1.182241505199887,1.411747495359664,1.4145092941235373,2.043235236614141,2.1884227176158215,3.034981729937597,6.316220167325873
1569406552559205.0,1.5830224948792257,1.1829151224179824,1.4004986401353579,1.4114935280660341,2.0094226341355235,2.204259996123272,3.03476185568706,6.346938343466888
1569406552559205.0,1.599554359390851,1.1763922208426838,1.3838890249799287,1.418303631906389,2.0024543295559014,2.214878355501747,3.0223408213887644,6.305333664470114
1569406552572453.0,1.6336363270524477,1.176099194922528,1.3687253141819173,1.4133827085111235,1.9705554640451908,2.2287628736243614,3.0239252776157777,6.3276283543004554
1569406552572453.0,1.6619863738065874,1.1762099309895577,1.3494691670304348,1.4150888310442034,1.9641129976738045,2.2260366718304496,3.006690587471479,6.279518783251763
1569406552612107.0,1.6977394223588687,1.1830999034927383,1.3353681990726494,1.405916564079427,1.9335182470940335,2.2135732035011437,2.9999878828671696,6.288423638457234
1569406552612107.0,1.72347541318877,1.1877144199672152,1.3177195041517042,1.405576083980983,1.9267122689582894,2.1971659771988645,2.9837128253465295,6.235763803175864
1569406552612107.0,1.751463368447239,1.1979793737852864,1.3026326926881284,1.3965124170688665,1.898525493985039,2.191336435408314,2.9825498946111866,6.240310694663343
1569406552612107.0,1.7765241014365412,1.2090413122117307,1.2829309313484698,1.3963841319564996,1.893168966956837,2.1888327534005243,2.9752348476467017,6.190571366750657
1569406552615102.0,1.8090061340942492,1.222575009742488,1.2656162607182981,1.3877623349986945,1.870694287334667,2.1979245144884176,2.986025457141957,6.195739711451198
1569406552615102.0,1.8463980939956088,1.2351755253919432,1.2474979226784575,1.3854190924624583,1.8706913025915093,2.21071907434193,2.9946778328351127,6.158556905387639
1569406552616053.0,1.8905305487372257,1.2517265633614192,1.2349108020543114,1.3742294924603335,1.8518680906023115,2.232402250544675,3.016192953334156,6.1819152432074755
1569406552616053.0,1.9374983835953412,1.2671186425918195,1.221569384678527,1.3724959296469137,1.8518851085528991,2.2546845037258216,3.033958276254272,6.159509687968649
1569406552623080.0,1.9867801189294678,1.2831851991016148,1.2129300054659071,1.3645963396093823,1.8377962266901036,2.2794722490182644,3.067743437067757,6.176723089647172
1569406552623080.0,2.0378737051265206,1.2962593502467517,1.20354716629941,1.3626605252591504,1.844307695280388,2.2956487446384513,3.095591105572478,6.136305202230209
1569406552630062.0,2.081862233660228,1.3095816661361315,1.1968029183744149,1.3522110826817957,1.8369958631220231,2.310031997123691,3.129600823059228,6.122346692989108
1569406552630062.0,2.1194094348346852,1.3230673934685655,1.1883845751456272,1.348928544521753,1.8459142999090061,2.321601029816094,3.15742582151544,6.056031217460389
1569406552638037.0,2.151375510660817,1.3388465630283937,1.1833713600934472,1.3402593237104699,1.8406977609733262,2.3385615875820243,3.187558265108693,6.029966247947059
1569406552638037.0,2.18122820104344,1.3552534738825055,1.1761348953899369,1.3382959427055305,1.8527808116531508,2.358211802219076,3.203521643166345,5.965495436537421
1569406552651957.0,2.2097415153962494,1.3720657225060884,1.1718799964262703,1.3311566944166715,1.8554511020441664,2.3856671386064923,3.2212609384947872,5.938521096968838
1569406552651957.0,2.2435738350228327,1.386716974748719,1.1691615909653355,1.3311033291594874,1.8738238647308447,2.4155773915422696,3.2204245427362417,5.873182876831524
1569406552660111.0,2.281823010441563,1.4007150151772942,1.17017499014774,1.3242718976677104,1.880667736243955,2.4512194977245456,3.2183335021314923,5.850064666934658
1569406552660111.0,2.3265883837255235,1.4116596052270758,1.1683558352552108,1.324850483296849,1.902476515129742,2.4765705953408292,3.2055565881710786,5.799021096010188
1569406552684165.0,2.3665905359621653,1.4208776527714209,1.1671252089426642,1.3228800504126013,1.9116582824064527,2.486352187604377,3.195752674816742,5.7919846666227865
1569406552684165.0,2.4017940216707605,1.427933263150758,1.163139033982485,1.3246417604727208,1.9311722792859318,2.4859583399451686,3.1767759050228626,5.765495110970485
1569406552685120.0,2.434143941372772,1.437125061323965,1.158592869621812,1.316879835447313,1.938036450713457,2.4908839175114625,3.1645665401813154,5.7827075945162125
1569406552685120.0,2.4698765675918652,1.4474648842303321,1.1524130785632207,1.3118453403400687,1.9555000167233862,2.4971382567681477,3.1524164923141416,5.764431076325209
1569406552698128.0,2.5068685746268957,1.4590361394349958,1.1505345793900434,1.301046756283304,1.9604656697597058,2.5049234026711726,3.149945795564732,5.7728698751185386
1569406552698128.0,2.548376018365367,1.4739037092660074,1.1511090841723872,1.2967002804610346,1.976067217975211,2.513435988478354,3.1324128028249234,5.751510740457532
1569406552698832.0,2.591374504912893,1.4940964318603565,1.1577118658342023,1.2910679478748779,1.9805690139082979,2.5259163233551236,3.114757095963713,5.745019765229116
1569406552698832.0,2.641064179727462,1.5180353754631544,1.167791858402905,1.294869896052814,1.9963305630671502,2.5384098677310214,3.094456749434144,5.685609487098827
1569406552720817.0,2.695387370935275,1.546436763923485,1.1824499294879924,1.2976392020384966,2.003584971529477,2.547165536824621,3.085496687725883,5.643866597189657
1569406552720817.0,2.748262190210972,1.5749966775965802,1.1974419915820123,1.3040631752971255,2.0197133270535725,2.5435088580299987,3.075148472459585,5.575216225282466
1569406552720817.0,2.7844876242870407,1.6004099116895094,1.212676345515744,1.3071138561407651,2.022870583448288,2.5367134292763023,3.0743218651913216,5.540294279416952
1569406552720817.0,2.81105714364822,1.621189243847704,1.224794997069866,1.3181876245968753,2.035699556439857,2.5361367577444094,3.0759075045846194,5.48587812223674
1569406552744010.0,2.8418380693962995,1.6371042791819903,1.237606305138347,1.3286856318941422,2.0368011194140974,2.543136415701386,3.0910566696907793,5.460826573555666
1569406552744010.0,2.8742402845404498,1.648243560646144,1.2496635545841794,1.3445867187430127,2.0476613270436896,2.5501282702335337,3.1000429751195098,5.415365335219761
1569406552744709.0,2.893238691441032,1.6554869329620168,1.262271637358276,1.3562322073132693,2.0529939537229875,2.558922698881464,3.103447539865241,5.399389817091204
1569406552744709.0,2.896524972648901,1.6604178038474082,1.2725046046317032,1.3699254198548536,2.0726322761408906,2.568998508981592,3.0953043406459266,5.355422428542561
1569406552758672.0,2.9001355594081577,1.6692312307513417,1.2810183362929795,1.3792989446225068,2.0861643970626345,2.577674659263098,3.0932553969480208,5.3311245846954565
1569406552758672.0,2.9070471136435962,1.681110035319952,1.285307243568625,1.3911654043863158,2.111959348272433,2.583241158211613,3.090978406938266,5.289250599289173
1569406552758672.0,2.914877440846669,1.694458255647312,1.2866410768990855,1.400202265217045,2.126562827886451,2.5778895731220954,3.0954288944740087,5.279753645164026
1569406552758672.0,2.9217252899589705,1.7069034235069074,1.2839063857978101,1.4154938400530024,2.146326765524039,2.553992296001024,3.0955550185022003,5.26100263069926
1569406552780911.0,2.934431225829911,1.7236305441371789,1.281989472959872,1.4297639331253764,2.1586185193373084,2.5235142317875523,3.100443271723262,5.27249517242977
1569406552780911.0,2.952245328855132,1.7449379179064466,1.2810944504516781,1.4470573639168776,2.1790880303742024,2.4926027794884265,3.1029522428811904,5.269808686736521
1569406552781838.0,2.979527610694854,1.7676365341919922,1.2824230209618401,1.453846947482264,2.1771853378440142,2.4569779373452523,3.11301759703756,5.295769270980817
1569406552781838.0,3.006845411325713,1.785524950254411,1.2808032520466381,1.4545320437426617,2.174345605150791,2.418328895453337,3.1183132051080475,5.315330337264924
1569406552803551.0,3.0303177511939565,1.7977506393344795,1.2773811155567307,1.4480034193854703,2.159886339534231,2.382005887491852,3.118198074039018,5.360224741376546
1569406552803551.0,3.0512390254357897,1.8052074150218829,1.2729628670089908,1.4433003487743228,2.1542252444888956,2.3521120235549997,3.1112880181100757,5.390863009570764
1569406552804549.0,3.07586405163436,1.8136208698652814,1.2708330465454785,1.4334712747809897,2.1378891240987383,2.328362739917977,3.112774839202656,5.446408636586239
1569406552804549.0,3.0946728477381265,1.820573462961284,1.2705393825981923,1.4262036596417853,2.1290418604564207,2.309079733445514,3.11372489226031,5.492639543024363
1569406552818678.0,3.108012693437407,1.8266638099664916,1.2756956032744116,1.415715147997003,2.107898231652423,2.2880204399197384,3.1210018605622043,5.5524620125472115
1569406552818678.0,3.1116851738935916,1.8337651200150182,1.2852461724602071,1.4105226805420872,2.09298445252629,2.261240661146541,3.1309111266252616,5.5922926810099325
1569406552818678.0,3.1110445036368244,1.8448656985957663,1.2979703538450074,1.403332109098693,2.064723117644537,2.2340924130305746,3.1447088811571526,5.64602866739227
1569406552818678.0,3.096611214606476,1.8531902416186088,1.3085927586585087,1.3981520487506875,2.0431811125372694,2.211837186010623,3.141793339114482,5.678559035703265
1569406552840497.0,3.079969250947305,1.8596690050157352,1.318113125617718,1.3883865685584673,2.011026393962262,2.194264532684992,3.130023338810863,5.720478229657308
1569406552840497.0,3.065756050730433,1.8608466326214625,1.3227229317965161,1.3812247703348604,1.9890929120886878,2.1825547995173595,3.1133463884882557,5.743000088319314
1569406552841450.0,3.061101033882192,1.8593776426813953,1.3227938353028055,1.3709450196499753,1.9600010313186984,2.1775779667215684,3.103197311592648,5.782630441820227
1569406552841450.0,3.052602098656686,1.856724238125526,1.3212165834655325,1.3658670563236277,1.9418614808976111,2.177378624187395,3.0968644155743674,5.812437427476696
1569406552863435.0,3.0443964534227397,1.8543484375555055,1.3211790177995273,1.3622244166636082,1.911548283475885,2.1809030574114745,3.097878278694356,5.852801670228878
1569406552863435.0,3.0319353152077304,1.8470047322026306,1.319318798744886,1.3661894509044732,1.8869834334148916,2.1870770438330194,3.0956814870721225,5.867832230013148
1569406552864390.0,3.0253310110617613,1.8380835925477979,1.3167930578988771,1.3676930865167176,1.8528321510288253,2.1920018831707897,3.098609783930498,5.886078199204782
1569406552864390.0,3.01783804150898,1.8250822929311392,1.3117847991358245,1.3683558288799083,1.8284589320142732,2.194672773573308,3.107135552256863,5.887727593526389
1569406552878399.0,3.0175318828785014,1.8138589491443897,1.306502946029375,1.3633867994667006,1.796614999129189,2.1932027335224804,3.1277000607930763,5.909464226150545
1569406552878399.0,3.01805826798182,1.8021910619138712,1.2999004861106893,1.3613415344138726,1.7744922414996547,2.184642204992064,3.154370391319254,5.9175807333828425
1569406552878399.0,3.0237793383118396,1.7904997046219218,1.2923999100880403,1.3588086031853852,1.7416889554734802,2.1718601009668856,3.1890980679117087,5.924131885633347
1569406552878399.0,3.0250170490413724,1.7738509291781024,1.2820477250855182,1.3605810396351434,1.7165987494845443,2.1597666221944625,3.2253434789173667,5.900448863184249
1569406552902296.0,3.0234669513323693,1.7556478463557095,1.2696849187191117,1.3586456835659784,1.6849928429093286,2.1492573279517964,3.2689549087961485,5.8824901108772485
1569406552902296.0,3.0126817615836226,1.7350183042546778,1.2546636401798579,1.35901238868826,1.665021344013473,2.137426451097062,3.3203562607265984,5.850811788766754
1569406552902296.0,3.003984207779678,1.7170623990277385,1.2416493590890332,1.3594505133077819,1.6388167007888699,2.121151969282082,3.373675515760804,5.839122847210291
1569406552902296.0,2.9879748132207067,1.696612255003892,1.230651219509132,1.363729009128651,1.6212044707698776,2.1004068831167713,3.409665446850729,5.820092389351032
1569406552923233.0,2.9741245205132376,1.676355520105386,1.2216333044495495,1.3635862724370773,1.5955483207592682,2.0789306579413545,3.442716774125218,5.819332634929987
1569406552923233.0,2.96045127695063,1.6546845893222997,1.2124774175724196,1.365138556027852,1.5798733134786638,2.0617572814125875,3.4839115259499898,5.814987692250297
1569406552924229.0,2.9525819875264245,1.6347340045359497,1.206657770079185,1.3636902217531133,1.5595784436445082,2.049852541589898,3.5362103413521204,5.833076234094897
1569406552924229.0,2.937691548177719,1.610305493455785,1.2031564157670742,1.3645537693233198,1.5479608987765983,2.040209188718,3.5835188536123597,5.84334440946106
1569406552938204.0,2.9240404192772047,1.5864980916703624,1.2009598107491068,1.364723230393041,1.529746314495778,2.0318634942315654,3.618418155442224,5.867194513931323
1569406552938204.0,2.9082496971182934,1.5633436838447539,1.2001199656118249,1.3675732079336806,1.521168044282486,2.0256789243208675,3.6453593051651874,5.882908920843654
1569406552939192.0,2.8980646027871106,1.544761700646235,1.2042279301891,1.3676142338915682,1.5080911691865435,2.020790120518803,3.67831867575397,5.904476657948615
1569406552939192.0,2.8862129678777366,1.5288496911884928,1.209512950151611,1.3704657810049206,1.50276775440673,2.01702730198746,3.7076906001927834,5.896095142808043
1569406552960134.0,2.8810061548400143,1.5189203331185641,1.212217343679133,1.3718231468364481,1.4898254159603503,2.0166200801095884,3.7292174446407675,5.886906382936482
1569406552960134.0,2.8747052477048953,1.5089954571801674,1.2101132791041054,1.3763678697061592,1.483674823733906,2.0181496698261183,3.736236756796302,5.863398740258772
1569406552961132.0,2.8751452174096537,1.5016531718632062,1.2076215386129185,1.3799663065037107,1.4734399157238292,2.020091315890145,3.73036437873702,5.8535041446297775
1569406552961132.0,2.8754377454340827,1.4931940376852644,1.2056212470394017,1.3866979654688762,1.4740044927067877,2.0241399417163337,3.7124143580803888,5.837869428159646
1569406552984069.0,2.8773377978694685,1.4849079567119272,1.2044724597859298,1.3901616876176794,1.4711398270725922,2.0327170058253436,3.699224179648982,5.83977775620956
1569406552984069.0,2.8716602336597665,1.4747555529142358,1.2031957012300052,1.3936736841079964,1.4747685843250153,2.0461847631426746,3.684399453736796,5.83809154832459
1569406552984069.0,2.864112842689651,1.4642945733597628,1.201789571473633,1.3935952658748865,1.474078790840001,2.065894271270376,3.669772122143222,5.851761591999303
1569406552984069.0,2.8513439117990966,1.451914175505407,1.1995115492640536,1.394020552071713,1.4828136301370625,2.08976729996507,3.656095293205254,5.859426928591423
1569406552998073.0,2.844094042439789,1.4437011962314674,1.1997071323251556,1.3911580913337174,1.4893699985273643,2.1122728017598384,3.641500281967169,5.883482104509664
1569406552998073.0,2.837412673833931,1.4368254673622196,1.201223890198155,1.3903980885199123,1.5015736314886605,2.1274346546011325,3.6080650913651096,5.894297500141611
1569406552999029.0,2.839385490913183,1.4337702886144976,1.203915031466989,1.3878317766228443,1.5079246858655906,2.13949156809312,3.571781533512943,5.912614770519137
1569406552999029.0,2.8389180556620204,1.4317746452676363,1.206886803609718,1.3877099472809227,1.5206730222246905,2.1504677830109626,3.541602869276444,5.925342399347164
1569406553020972.0,2.8350430968309603,1.4297673302900562,1.2100482209052943,1.3859915358053723,1.527829473581767,2.154005703024549,3.5196699947352954,5.948925567967387
1569406553020972.0,2.82535020568481,1.4265146663290802,1.211835240555657,1.3867832336078565,1.5384635853169024,2.147494821662256,3.493629441272648,5.962059096553916
1569406553020972.0,2.819548778948986,1.4284718894516184,1.215754020314291,1.3859629955010555,1.54404159469376,2.141639690186469,3.4699140022176977,5.994266000922027
1569406553020972.0,2.807762474253889,1.433718635535569,1.2230508277406504,1.388219403512624,1.555928221337589,2.1402331085948085,3.4463455908429568,6.017421061923593
1569406553043910.0,2.795736364761164,1.4412214096714462,1.2329764687620355,1.391413423772725,1.562137188329996,2.1395980011974762,3.4312050697322043,6.0308931075431405
1569406553043910.0,2.7831512243724394,1.4487422428605774,1.2445996895390812,1.3984335142683462,1.5691244275667173,2.138501200179754,3.4232939993404843,6.021118625540353
1569406553044945.0,2.7814347791849703,1.4590818209293068,1.2590775157044758,1.4037190064106373,1.5667405743805438,2.141491107232691,3.4254032117562154,6.021675741166592
1569406553044945.0,2.786354851341539,1.4707420103659514,1.2737932056413321,1.4126776876747147,1.567999846184432,2.1485849428530543,3.428771657110186,6.011749570589486
1569406553056907.0,2.8009025117287476,1.4855753944420873,1.2898583431500432,1.422795957747298,1.5657649067002917,2.1563651758206723,3.4366333193506806,6.003840260663508
1569406553056907.0,2.818441994056968,1.5013084414559572,1.3092112467491557,1.4363704414919072,1.569294417777634,2.1655053426153614,3.4442722245993895,5.9858749582612685
1569406553065849.0,2.8396482770897435,1.518655773659869,1.3315847979619055,1.4485872385379057,1.5694867501850098,2.177347686580296,3.456416562404234,5.987776009260153
1569406553065849.0,2.8544185054292677,1.5355008087298447,1.3529300226597818,1.462915056124006,1.575482893140833,2.1884490221691015,3.4694230880521117,5.989357120962136
1569406553080812.0,2.8647615233287866,1.5499347295252863,1.3686508080343818,1.4763109193178845,1.5761151439374141,2.2027178987132827,3.483689891447008,6.008236091690888
1569406553080812.0,2.8599721991598868,1.555853130550818,1.3750678644999803,1.4906172061962575,1.579020199650223,2.2220413114700865,3.483101477876846,6.023676977435122
1569406553081809.0,2.843448647832178,1.5547809681927887,1.3782040385939662,1.4968410673276047,1.5772903744581206,2.2438031652739934,3.4720766393315823,6.043713901248342
1569406553081809.0,2.815754721587148,1.5473970642106027,1.3825891587288346,1.4991295027668246,1.5822168117084767,2.2664672638180345,3.4564811458182323,6.045476661531348
1569406553103749.0,2.790514720579158,1.5364197802127362,1.3869987174332736,1.4995687042389643,1.5848946731894693,2.2883851985582413,3.4435461575712676,6.047922571498375
1569406553103749.0,2.764838964192868,1.5194693796203165,1.3881552549335,1.5010192819234316,1.5944359637491383,2.2993758520348533,3.4279374787022183,6.040358378139929
1569406553104749.0,2.7437410973066876,1.4995130538682562,1.3878737965283352,1.4964504685465143,1.5984577385986618,2.292293955679338,3.414662697163825,6.0492001054895095
1569406553104749.0,2.723346684068943,1.4781915344028185,1.3877714423632959,1.4900739541992873,1.5997669229431486,2.272507711982056,3.402617519936452,6.052036809641019
1569406553125695.0,2.711968510177122,1.4600449672356457,1.3878340756718852,1.4794324748170131,1.5909570367969323,2.2528931812735804,3.3955817134024064,6.059568237578316
1569406553125695.0,2.7028923147293447,1.4435892660155545,1.3877521169135727,1.470228816933908,1.5860035031974848,2.2354519227616034,3.3872594086896712,6.059031463126204
1569406553126688.0,2.6996018211117496,1.430965820985589,1.3915003921609956,1.4601503397645161,1.5785223332695966,2.218489185336952,3.386243709570421,6.073256279577867
1569406553126688.0,2.6958940884158333,1.421430094697743,1.399729457257203,1.4545713766480224,1.5755077341649784,2.206650634248479,3.3881132900507334,6.085853642727361
1569406553140653.0,2.6971238704793037,1.4186631638196885,1.411172196517323,1.4515463924852259,1.565346901897165,2.2018712724667973,3.393384342083099,6.1139949356733645
1569406553140653.0,2.6949955316014083,1.4179569709347393,1.4211438101749183,1.4529934433856018,1.5569631134521438,2.19964841443304,3.395047585096226,6.139020648620616
1569406553141651.0,2.687701654108682,1.416323067952624,1.4291507875539302,1.4500935803638861,1.5435554788352446,2.1985610282069836,3.399411727511631,6.1718111522613235
1569406553141651.0,2.672768674467826,1.4134244296040688,1.4367540453633334,1.4458025865481117,1.5314671626893384,2.200392365577691,3.403178747560306,6.184937407710313
1569406553163591.0,2.6576674530476114,1.4102969051092547,1.4422354075859167,1.4392138799104885,1.5119442056727226,2.2094637536802355,3.402581646793147,6.178549976534899
1569406553163591.0,2.634786924983908,1.4035527676443003,1.4425885434478996,1.435038008121552,1.4971625027691062,2.2258238030073114,3.3951402612631676,6.139169221059288
1569406553164587.0,2.6123302761383425,1.3975037989518393,1.4406133267864802,1.4291469546761717,1.4817084334571657,2.2466158030808825,3.3943327029638097,6.104631055015582
1569406553164587.0,2.5896934246051764,1.3909387727586566,1.43752821526655,1.423913556633327,1.4735219843290466,2.2673345072722997,3.3989264461629567,6.061067371113726
1569406553177554.0,2.570900867244723,1.385323628483583,1.4365439156788458,1.4162626699907255,1.4624285677315756,2.286755778144513,3.4108973603115036,6.02067202225887
1569406553177554.0,2.545810741941338,1.3792986036341357,1.43630638314841,1.4089017894795173,1.4568050073971994,2.3024652091524165,3.428409861185538,5.96848692372684
1569406553185569.0,2.5179292727821223,1.3732052259650118,1.4339683087624993,1.3946534174382073,1.4489999863364944,2.3114735099462838,3.4443978341240573,5.923359146312032
1569406553185569.0,2.487713735904147,1.366186386177034,1.4297457252689336,1.3798407598930653,1.4438601059175067,2.315902052938385,3.433924868609682,5.867141886074605
1569406553200495.0,2.464563082780562,1.3615973807401023,1.425776116378603,1.3652765192651657,1.4343066199710928,2.32102230849951,3.4056781414733406,5.818715396341862
1569406553200495.0,2.443793372204568,1.360422966472871,1.4201693992015831,1.3552688491811624,1.4308245689145402,2.3241768295416314,3.3688600504843857,5.75820624913423
1569406553201490.0,2.427846856103135,1.364727365294697,1.4148941168960925,1.3431445752773128,1.4280106465150115,2.325213949577346,3.3332839330127815,5.703679970424977
1569406553201490.0,2.4114905886473297,1.3708130112725254,1.4119985287255925,1.3318319733843835,1.4314202058094252,2.328761010292796,3.299349727932578,5.64412638326959
1569406553223474.0,2.400356007634431,1.3757586179826893,1.4113490455212676,1.3199161434191689,1.4339245896196495,2.3378201489774115,3.2709703559110226,5.604629074993214
1569406553223474.0,2.391432394294846,1.3765816979295173,1.409799178560036,1.3112971902983808,1.4435729184069521,2.348639385780739,3.247184359576382,5.563999525024843
1569406553224426.0,2.3848444410697445,1.3769364085750022,1.409471595878341,1.3014866182477112,1.4533766102372134,2.3579963731050837,3.2349893055485475,5.519203018137146
1569406553224426.0,2.3792791678133036,1.3779230968254812,1.4109425598615,1.293268212796286,1.466225147988105,2.367882351760995,3.228664185414733,5.456454773640924
1569406553237392.0,2.379697336162133,1.3808977795562265,1.4113451379152513,1.2813041590809489,1.4749970565928299,2.383645268638549,3.2326250734700914,5.408499336207308
1569406553237392.0,2.3828351856721692,1.3849537788359172,1.4076145591596272,1.2687362897683103,1.4861504892381425,2.406414239811257,3.240004457172668,5.362770491250836
1569406553245371.0,2.3937266011134404,1.3904123422541395,1.4013958794012242,1.2533703550472866,1.494873036830848,2.4362095688357774,3.2472396218484842,5.333064755087215
1569406553245371.0,2.4130334356268923,1.3942061973404558,1.3937385024599456,1.2403914339966167,1.5076484077968964,2.4671193612190048,3.2502512352550443,5.299500892613295
1569406553260332.0,2.4403807402407063,1.3969751629157237,1.3866237372528565,1.2259921267548004,1.5161915139348718,2.4892487848773794,3.252432194009418,5.277977791704175
1569406553260332.0,2.469647023997002,1.3996272171484452,1.3796183269825337,1.2128151185011193,1.5242688384561196,2.5005140160250923,3.2550831982026858,5.251352916033523
1569406553261328.0,2.4976167037031916,1.4035459196857936,1.3735152635281436,1.1991796509882557,1.5296908377004768,2.5096645381641207,3.270453589151241,5.228752393797354
1569406553261328.0,2.522446855010649,1.405785427919023,1.3675798169005082,1.1898827012259507,1.5409167485401527,2.522924169374046,3.293886207328229,5.197558740877482
1569406553283269.0,2.543804616080515,1.4070344792162712,1.3634556263112605,1.1801682052617717,1.553096752352458,2.5421247765816393,3.319826388927838,5.170961626955535
1569406553283269.0,2.5640295643379885,1.4072455595241045,1.361262964939023,1.1722210436352918,1.5692619266063317,2.5607311498349508,3.342071704463345,5.132756628494172
1569406553284268.0,2.5857955447460084,1.4074127017363989,1.3599608592711883,1.1644311055174468,1.5806120650103472,2.566742339288218,3.361582552846122,5.103508108206649
1569406553284268.0,2.6086898240356766,1.4074308299713847,1.3582699561907952,1.162075776806873,1.592398094020867,2.5597599898096477,3.371782855038163,5.072581588031825
1569406553297259.0,2.6342508433047187,1.4095411942192064,1.3579699101064426,1.1616328643767502,1.6038527267295066,2.55271195880576,3.379136577264027,5.0539569433687355
1569406553297259.0,2.6631844772609345,1.4121204722467722,1.35791465166063,1.1634529659393,1.6214655710248989,2.5529286796250865,3.3850191502957667,5.038235385525108
1569406553305237.0,2.695093196127488,1.4142714589061318,1.3573995929423612,1.165603021649458,1.6395517687418455,2.5583256252454794,3.394570403474215,5.04469708375181
1569406553305237.0,2.7238668517470312,1.4138401046544413,1.356395799825549,1.1732487213453227,1.6599885001448353,2.5638930102699717,3.4032164322784,5.062912205562697
1569406553320171.0,2.7451668152702893,1.410752337284484,1.3559429192669974,1.1819013041374344,1.6721024316496553,2.5688324203292536,3.4088772656327513,5.103284515938437
1569406553320171.0,2.7593142681141174,1.4023867706885411,1.3542301104189118,1.1913876625830748,1.6788143438393406,2.576068816836918,3.4065188969390494,5.145895684435571
1569406553321170.0,2.773928562046007,1.3918854452910492,1.3523489840007017,1.199053939291649,1.6795708504787097,2.588608072316779,3.396001915383049,5.198987833602426
1569406553321170.0,2.7896541486918887,1.3831343059908172,1.350893648504515,1.2085263956253625,1.6841332205233062,2.6064959404647126,3.376045469472721,5.251704045045276
1569406553344106.0,2.7969119150319273,1.379990469845224,1.3508063680444176,1.2175195302665274,1.689210967575071,2.625055718402629,3.3589602162118246,5.2979376602042425
1569406553344106.0,2.792993083687509,1.381286507411112,1.3519655495744938,1.228817752356105,1.6987964292619002,2.635856052550151,3.343655870114128,5.308614961389995
1569406553344106.0,2.7849671203793376,1.3846450455115817,1.3537318456644485,1.2394211545319571,1.706513183166619,2.6340200580519793,3.3316333680605594,5.299557635212908
1569406553344106.0,2.7711522595587175,1.3857351750250138,1.3530628956752508,1.250449629095981,1.7142543429916688,2.6232615919930304,3.320516381133235,5.266199728202428
1569406553357108.0,2.7578322711026644,1.3854297370541806,1.349974461447314,1.2600500031894382,1.715347891016909,2.611996079158206,3.3160539158828684,5.231641649441787
1569406553357108.0,2.7458979267986963,1.3807640321640342,1.3431556337384596,1.2715304807490095,1.717229948966704,2.601941123404533,3.3162727733458217,5.193527803058952
1569406553366048.0,2.7267304583779897,1.3700989408934108,1.334588340319614,1.2799954011910875,1.71557013389466,2.5831906966307177,3.316805110144445,5.1620816949865045
1569406553366048.0,2.6927512555394446,1.3539529764145133,1.3242329333943,1.2852768212876613,1.7143429388455764,2.551168702216935,3.3058499052055623,5.130061070442471
1569406553380012.0,2.6567366307580276,1.33935662153064,1.3110568339804411,1.2865331001787406,1.707850648274786,2.511104989694392,3.288148881125287,5.11458070795063
1569406553380012.0,2.6239618482255267,1.3263950965804585,1.2956008680239237,1.2888964162009173,1.701423295174441,2.4708888056870046,3.266517730968805,5.103885998887332
1569406553381008.0,2.5959985920551585,1.312377902098188,1.2794448658960618,1.2889256634909096,1.6915262729022427,2.4331743851275505,3.2505295220563295,5.109981232682641
1569406553381008.0,2.5717317046127963,1.2954045053670142,1.263707732981549,1.2866410597064122,1.6847354581945477,2.39846876918072,3.241265583352371,5.120219145395497
1569406553403949.0,2.554485436393098,1.2773046245550748,1.2513168252482272,1.2821791572934529,1.676122126883942,2.3681739752208375,3.241230379250462,5.137814837742207
1569406553403949.0,2.5416216428454685,1.2585925975147478,1.239742696550889,1.2815101012192505,1.671845950203981,2.3451464331187295,3.247924770738583,5.141259926072198
1569406553404944.0,2.5320789505849617,1.2418545612780019,1.2266967073091957,1.2815186341907319,1.6677038237820478,2.3263613693873593,3.258291994739154,5.133803972877393
1569406553404944.0,2.5219038012576314,1.2249159914216652,1.2122105380968973,1.2835716191708229,1.6678732304633934,2.309045527115151,3.2590625522048593,5.110307849832345
1569406553416950.0,2.514500739008559,1.2106801366249367,1.2002113480007863,1.285400581816906,1.6684657288466664,2.2935045112465264,3.25784472218431,5.0941236909465815
1569406553416950.0,2.50955831542853,1.1998424665793384,1.190618056538678,1.2890192382166825,1.674675753121989,2.281101789027248,3.259375416760574,5.077678017707202
1569406553425924.0,2.50555042724848,1.1899675664708496,1.1809096516619368,1.2901054193591137,1.6787867344866092,2.273442414899208,3.25753379880731,5.0670235385182325
1569406553425924.0,2.499906332595625,1.177259787284429,1.170194925667828,1.2889279976773547,1.684430118556622,2.272187795218197,3.240315587776239,5.058722372703971
1569406553440849.0,2.4976757766820903,1.1642386182071653,1.161970221627809,1.2833561189301805,1.6884388284640197,2.2751699945222845,3.218766730358375,5.068241408133778
1569406553440849.0,2.501023945537348,1.1509590435031278,1.1577908578039633,1.2787210851134831,1.6974119995749308,2.281761206840143,3.2008018746479006,5.0786033045574035
1569406553440849.0,2.507268242421009,1.1393253310867824,1.1572743355043582,1.2737435776147077,1.7059766950010036,2.2897519289619708,3.19076224497305,5.088985774562796
1569406553440849.0,2.5093899729398803,1.1296602451673454,1.1566410141880588,1.2701157743660951,1.7158878745533461,2.298520536405454,3.1832801808913858,5.09195767666887
1569406553463787.0,2.5089510124230268,1.1230497636302255,1.1562215885960911,1.2651299536942076,1.720654840192392,2.3030990200279136,3.17564222130068,5.101385481821256
1569406553463787.0,2.5101223553275243,1.117935446859824,1.1586003784176369,1.262086011303045,1.7241678341342386,2.2972664172683372,3.165128205250037,5.1148635262565945
1569406553464798.0,2.510062145940081,1.113010240529343,1.166201864539127,1.2596981917749082,1.7218435928947011,2.2877993889349,3.1606302156489314,5.135877970063402
1569406553464798.0,2.5007337595357564,1.1063105693287179,1.1776745297538873,1.2581409312437366,1.7191777682243148,2.2814743888019144,3.1606091670465983,5.141011830227577
1569406553485766.0,2.488412768527287,1.0992229316340025,1.1896651757460914,1.2523796593246328,1.7109129478439322,2.273375508350325,3.162998090575055,5.1425231793068535
1569406553485766.0,2.480390170481576,1.0922015149930346,1.1981882181814545,1.2465295549739166,1.7025319075575032,2.2604411000779745,3.163156045991543,5.1396543117510864
1569406553486725.0,2.475728040999958,1.0857825118429072,1.2014692133907365,1.2403309113433194,1.6931196381695317,2.244736088066087,3.1660943115381723,5.14398883973103
1569406553486725.0,2.4696759491545976,1.0804628118205486,1.2008046529477152,1.2347169515885874,1.690522751781224,2.231504423993907,3.170157086190452,5.148073179356692
1569406553500729.0,2.465713620919446,1.078757487684401,1.2014932146114912,1.226352525186605,1.6887479732998758,2.2237088427486413,3.176367865635837,5.157178611380434
1569406553500729.0,2.466372728361925,1.081546490355404,1.2060986404308107,1.2183601509697466,1.6895906873295572,2.221303597710861,3.1854125900020676,5.16256263602543
1569406553501686.0,2.469325524578396,1.0881792058157909,1.2157950811853395,1.208269344470611,1.6863942123667777,2.2172522196778646,3.199884275180428,5.173311869955546
1569406553501686.0,2.46916128574289,1.0954201562092314,1.228973783567483,1.1989099644045278,1.683775938374905,2.2072699440847874,3.2134781151866134,5.1857245218129115
1569406553523667.0,2.4613127038274993,1.1012818634028125,1.2428720616369127,1.189210338574894,1.6788062884785178,2.1954003392783665,3.229724060659405,5.213053668406281
1569406553523667.0,2.4460445483102577,1.1056351306700043,1.2566391992195451,1.1817212837019058,1.676990073327464,2.185199837327784,3.24661680062274,5.248675296229551
1569406553524624.0,2.4257244475453628,1.1095233435387861,1.2725332816344563,1.1750840141487122,1.6726083767980666,2.1753142843962103,3.260545236955542,5.290986963442682
1569406553524624.0,2.401604310633272,1.1149728283628262,1.2907485586262715,1.1735404585235154,1.6709895057034516,2.1689684344983413,3.2726381665369892,5.326990059606511
1569406553546565.0,2.3800947278014895,1.1229421370181227,1.3106183413600048,1.1745369773174212,1.6683114700059611,2.1672510968467664,3.291893000448715,5.363063140321506
1569406553546565.0,2.362894335652669,1.1324856095826055,1.3330760113838747,1.1771624164970025,1.6676430241449776,2.167685186804474,3.3169090568763884,5.395130525740493
1569406553546565.0,2.35136980129574,1.1424978419111629,1.3570830283312354,1.1779615933265002,1.6625980692973024,2.1690008959939835,3.347653111184353,5.4365471034121216
1569406553546565.0,2.3473872410941445,1.154125117870211,1.3793233286958375,1.1804348860128127,1.6578577324683743,2.168679218958858,3.379509513190882,5.476538645127572
1569406553560557.0,2.3499233734415683,1.1670804831847328,1.4001388224516997,1.1843913090661395,1.649566925198381,2.16416726576904,3.4142765555064143,5.512837618042077
1569406553560557.0,2.356962268138377,1.177562415969388,1.4155709397244993,1.1908284271551015,1.6428864480880219,2.156688123127438,3.4427181902429407,5.540995751471722
1569406553561556.0,2.3611900896882263,1.1826516778541902,1.423417751672577,1.1960809484050894,1.6355424785958772,2.1449398106737836,3.454649960177396,5.575303889627218
1569406553561556.0,2.3570757509578093,1.1846611571466843,1.4295160900789492,1.203015163698519,1.6325221671723569,2.1271804059984722,3.4511272637590116,5.617139333164216
1569406553582469.0,2.348365940362608,1.1853599839971205,1.4372134138271413,1.209078989406037,1.6273104224106998,2.100481309435508,3.441122841896147,5.669324842604187
1569406553582469.0,2.338356382287458,1.1828948264335992,1.4446497505314586,1.2156445278161907,1.6237447422447029,2.0671648758211605,3.4218000870780374,5.713994539122
1569406553591445.0,2.325646691061959,1.1762502019382615,1.451312393864009,1.2219794096935352,1.6177669466476448,2.0343151064173517,3.399857125196089,5.756001280203305
1569406553591445.0,2.3128304806132327,1.1695693404948426,1.4546263656161729,1.2296942155047632,1.6160694338964632,2.008034290841224,3.3788712366138216,5.785108743655659
1569406553606406.0,2.304314006406488,1.1656008512451563,1.455947659462448,1.2358785574845974,1.6150244997079324,1.9847857058629104,3.3620973841745796,5.802714465093898
1569406553606406.0,2.3025370842971906,1.164416687941171,1.4583412462822998,1.2416574594356269,1.6154712203241726,1.958578908854521,3.347838094683845,5.806838642515547
1569406553607402.0,2.302405203925688,1.1647385248516737,1.4609874018630133,1.242582984091396,1.6102054102244763,1.9313165979385083,3.337795191312021,5.806392833384238
1569406553607402.0,2.299997613137876,1.163775427358364,1.4610651046733656,1.2395223601612526,1.6049518831319423,1.9075180983022229,3.3297446867899647,5.799561249224219
1569406553627389.0,2.294703313395524,1.1605425959847049,1.460065755032562,1.2334520762968,1.598537021840897,1.8871212294605983,3.3261954089844004,5.803985881652071
1569406553627389.0,2.2938864795202463,1.1594070759555584,1.460847787571817,1.2292005513312994,1.5975648687241017,1.8704778649927194,3.325799411480057,5.8207755036945485
1569406553636325.0,2.29982601339252,1.1629127631096827,1.4649746308474412,1.2259867467499557,1.5975342725091128,1.8584089270875337,3.3352760561182144,5.857998788775596
1569406553636325.0,2.312373739690005,1.1710846292940247,1.4691143712258556,1.2251645664192006,1.5989737790389484,1.852254196382557,3.3454671592099783,5.898490602339992
1569406553642311.0,2.324599194354827,1.1813205536373168,1.4687860607910472,1.2216263055885308,1.5947167866975815,1.8509237019554734,3.3444458025130905,5.929303961635265
1569406553642311.0,2.334594426279714,1.1909598644109851,1.4647659070154604,1.2157885522701666,1.5912647890895353,1.8544643429819836,3.336733842431152,5.937376566375497
1569406553651285.0,2.3418921895723526,1.1978010919600524,1.4619084010072154,1.2065753552680216,1.5886658477446762,1.8627516085858904,3.3351713241553385,5.946331026988977
1569406553651285.0,2.348302283667395,1.2013681567411238,1.4589795738551146,1.1979833022563058,1.5912934483162648,1.8726856030041301,3.3371489783218022,5.953612245123043
1569406553666253.0,2.351149424738176,1.1994741575946195,1.4540930699617844,1.1890742990828478,1.5907272096954994,1.8781965183915255,3.3468835089619966,5.951474914672802
1569406553666253.0,2.35374482367331,1.191840484005442,1.4463355587716755,1.1801887269714613,1.586728781497827,1.8743364312855029,3.35639400227692,5.9311537351199775
1569406553668259.0,2.357945873366764,1.1822421883154475,1.435647619949634,1.1680885551814042,1.5768184807611998,1.8662400101385068,3.3595244336232293,5.912902138998388
1569406553668259.0,2.364024316051965,1.1727604026291756,1.4216916467098675,1.1560978222019256,1.569052040980342,1.860807196317157,3.3578244728825637,5.900471035626311
1569406553688186.0,2.364242333859506,1.1630310308697305,1.4073948674854317,1.14358665608475,1.5625546648570203,1.8560862459898297,3.352513147908606,5.895924386365444
1569406553688186.0,2.362794901568454,1.1533422498117427,1.394256321068286,1.1329336692113456,1.5627636101134876,1.8511360753200723,3.34187856573761,5.877588109956761
1569406553695170.0,2.3625621003611723,1.143513429853543,1.381001652741627,1.1221845916145825,1.5609865778440026,1.8491796225324653,3.3329266024295228,5.8484019306119395
1569406553695170.0,2.3683801285061845,1.1369643839829258,1.3672996493272915,1.1142950552986721,1.5565877559964973,1.8500552545507298,3.3251149113980296,5.805009688048887
1569406553702152.0,2.3772531326294493,1.1340050870728504,1.356091412329589,1.1083959409579704,1.54806507321254,1.8551776356250387,3.3226010752042816,5.759269326971733
1569406553702152.0,2.3902489022906774,1.1339770000393432,1.3458656600026933,1.1048120294991703,1.5407757822586428,1.8671909585057216,3.3262570650062098,5.705837308433855
1569406553711125.0,2.400423127727657,1.1363180962854336,1.3351791571427962,1.1007638475140844,1.5313826651987612,1.8859723688810948,3.3384464917974532,5.652390533718254
1569406553711125.0,2.4076465798520386,1.141337190546207,1.3261836543924532,1.099935701949992,1.5261529775401557,1.9088770675763447,3.354672334608139,5.59594559798297
1569406553726086.0,2.4149049000998017,1.1461847025037353,1.3207103968503533,1.1016030682918283,1.522363259097544,1.9350014899603156,3.378261283245049,5.55202744503203
1569406553726086.0,2.42608664917929,1.1489243784144765,1.3156478857442568,1.1069512881391088,1.5238243190226448,1.9595985514908612,3.403396623958925,5.510114019839622
1569406553728080.0,2.435624174473702,1.1516305894783736,1.3106353757071014,1.1136535356850616,1.524568718290841,1.9789505508040297,3.4213241883635095,5.4708366890087
1569406553728080.0,2.450071958442535,1.158700029944007,1.3062253913810897,1.1220470591139111,1.5253273796023934,1.996616087776083,3.434354633067317,5.4287979146187215
1569406553749039.0,2.468468271220588,1.1687238419286023,1.3031626676140444,1.1313665802562778,1.522284715267314,2.0178912186300013,3.4511031514383337,5.388629857778046
1569406553749039.0,2.4912128423385442,1.180281285859215,1.3003762396555585,1.14305710166931,1.520738853206646,2.0426987636774303,3.4637635963416877,5.342742615701644
1569406553750021.0,2.512415767767132,1.1918280403159176,1.2970796748986966,1.153386099464977,1.5178133809707557,2.0692254282759515,3.471400708556131,5.306033192230511
1569406553750021.0,2.5370790931632095,1.2053163183892415,1.2927071301770368,1.1632194478244764,1.515818294142302,2.0953402228766858,3.4751843231524355,5.272224664273655
1569406553761990.0,2.564321512053765,1.220420338573325,1.2866062441801795,1.1715872166943666,1.5117523967025854,2.123710116432465,3.4811305141984654,5.250417859383514
1569406553761990.0,2.5966923559836803,1.2356174953853973,1.2775178067471282,1.1814875787463446,1.5101941827859784,2.1522189183125997,3.4889081591637816,5.237844148612633
1569406553770985.0,2.6285903750504898,1.2483028306046304,1.2674362105171324,1.1901352838106796,1.5080864954318929,2.1780323018682726,3.4955747152738708,5.243099967733346
1569406553770985.0,2.6529034924560295,1.257666875784948,1.2564081231751802,1.1972918652143392,1.5088279574090044,2.2034880909287593,3.4995329225690965,5.248489066131624
1569406553785928.0,2.660502611362108,1.262916500478534,1.2434105686840171,1.2020102276847888,1.5092895215260216,2.232672583883834,3.5080787908738307,5.241686190272896
1569406553785928.0,2.669510616674614,1.269174155060083,1.229031736679441,1.2056758706553774,1.5126004281477645,2.2623416566623797,3.5199033676537206,5.221648684922706
1569406553787920.0,2.6849263379288066,1.27587999058311,1.2170622706729983,1.2072574053329448,1.5164084141318945,2.2907589137677045,3.5349353351307804,5.207833856872579
1569406553787920.0,2.705243934880249,1.2830962165269342,1.2073962415615291,1.2094907773477825,1.5262661349888915,2.320587469385412,3.556279649022024,5.197987984885426
1569406553808864.0,2.723321674757985,1.291822515646066,1.1982517539490736,1.211099318706687,1.5395959230149434,2.3506760678809617,3.580601449924522,5.203055756076537
1569406553808864.0,2.7423346917023497,1.3013392625200444,1.189708326203799,1.213823364164012,1.5574650279270976,2.377219164269101,3.586193499494415,5.219301474032545
1569406553809861.0,2.7627953910889413,1.3092644613500843,1.1832332727881385,1.2162504312525104,1.5782768707438373,2.404288901534854,3.5805577040645824,5.249875726412442
1569406553809861.0,2.7855155658188564,1.3187556070841775,1.179620555240965,1.2204550184118124,1.6049626480327828,2.431493589239227,3.5727070304443,5.2786507600709935
1569406553821867.0,2.8025458626563267,1.3300984336116923,1.1808163141522474,1.2236482439665324,1.6260953072043685,2.4525021253613386,3.5533264041720387,5.301566652809421
1569406553821867.0,2.814372657044005,1.3395232346114287,1.186354821682769,1.224615793260075,1.6347559382376933,2.465643464901657,3.5191916950067976,5.305539096538907
1569406553830806.0,2.813067339440044,1.343277810791968,1.1947131085033642,1.22224643134537,1.6325026333044532,2.4798914840424415,3.4836179780222736,5.285875712305523
1569406553830806.0,2.802699175117183,1.3436920255537013,1.2055597526991668,1.2206925086136373,1.6317560832011477,2.4975502158478706,3.4489898804154615,5.2437051806405846
1569406553845811.0,2.787157966208343,1.3391341917491564,1.217917271158931,1.2174657904462767,1.6317657725444374,2.514666202014484,3.418931827454035,5.199558138176368
1569406553845811.0,2.7748352346322496,1.3310801716060496,1.2270657147044512,1.211281818478435,1.634188668756654,2.5283320795708875,3.390475898558028,5.155387041393307
1569406553847762.0,2.767478889579596,1.322811228076151,1.233137380603023,1.20055272782965,1.6349748049993187,2.540357503456963,3.3681720526237293,5.123524841695326
1569406553847762.0,2.7608613794291688,1.3153878142501865,1.2376844061347358,1.18944725988039,1.637690352350479,2.551070453775716,3.3507046277442663,5.0983097474113235
1569406553868704.0,2.744780542649286,1.3071541832707134,1.2422731898976749,1.1789611137196492,1.6411904562027093,2.5568816635329896,3.3362476713355482,5.084212375155739
1569406553868704.0,2.7261586775374944,1.2999129778197231,1.2453211616575797,1.17187576627293,1.6465648792111773,2.5552584301317767,3.318314305964591,5.073288783262171
1569406553870702.0,2.704359096403962,1.294715478840486,1.2432281894761619,1.163022852168235,1.646848886335619,2.5512090499951703,3.2990509286979774,5.0576150861001885
1569406553870702.0,2.6854665737555656,1.2915133790629718,1.2382790711535636,1.1519718588840584,1.646353206827367,2.5519380829259894,3.2817786764184635,5.030322720493638
1569406553882699.0,2.6700798832186257,1.285515736538474,1.2344970471904197,1.1392637659805043,1.6447770019056043,2.5567514795451967,3.2725852362735988,5.010655064206338
1569406553882699.0,2.6598235873525535,1.276333996250792,1.2299914469884385,1.127458984873936,1.644276593882181,2.559496669784809,3.2641481579985863,5.001905976796834
1569406553891643.0,2.655901423609671,1.2667076620934465,1.2254155355109182,1.1144534980371021,1.6426536519474584,2.562072137299314,3.2531587697212787,5.012040675599983
1569406553891643.0,2.660721126340118,1.2590359957485204,1.2227664754301697,1.1032503889925769,1.643381411291473,2.5669576362471376,3.2372033015158825,5.027653076555353
1569406553906603.0,2.6680904638726983,1.253463766717722,1.2227153127544295,1.0917485193515986,1.6424498105687069,2.573394479453432,3.2166491093644125,5.038898621683008
1569406553906603.0,2.680740038669078,1.2512591183367356,1.2263043704161067,1.0811126144200462,1.6431903715198284,2.5822643419771847,3.190242444016643,5.048273460201596
1569406553907600.0,2.6913750190402355,1.2502934368472205,1.2339168075082607,1.0710195308151442,1.6449027077167968,2.595724994131686,3.1632759316785544,5.069360985876864
1569406553907600.0,2.703938497537464,1.2502688182932398,1.2406214353081777,1.062153647872601,1.651754375010811,2.613286688656563,3.133838202487071,5.098919580218866
1569406553928544.0,2.720967119414127,1.2493673141136463,1.244653944794024,1.0506167535505435,1.6586853058877942,2.6352229656559496,3.1088554344357173,5.141400389729497
1569406553928544.0,2.74425462700079,1.247627553498728,1.2467023095102006,1.0391270742958902,1.6668742947001194,2.6611588889162467,3.09016482194059,5.1905674667444845
1569406553930538.0,2.7677622096976977,1.2444593603036367,1.2447227452452145,1.027370686115121,1.6746172740490115,2.6923627545860476,3.079912336838339,5.243906468514371
1569406553930538.0,2.7971686929879622,1.2409012687380692,1.239241027643467,1.0174115944426003,1.683684975262809,2.728988168796927,3.0734288708268793,5.303455851263717
1569406553942507.0,2.828103834275086,1.2372293412633757,1.2344671145548085,1.0079514503819333,1.6878347286346251,2.765752751005446,3.0667029357916906,5.376944862510398
1569406553942507.0,2.8633616314233947,1.2340684308710312,1.231964599438556,1.0002015555015729,1.6883326845844178,2.791258075288099,3.054001489322966,5.455277603674335
1569406553957513.0,2.900834923822244,1.2300140328526408,1.2306332425921471,0.9909415836104563,1.6839575819088708,2.8059315246919083,3.0414383653061967,5.543690299457357
1569406553957513.0,2.9413959829254166,1.2284530713763078,1.227812145321841,0.9828952927191904,1.6806627916376742,2.8218739746944963,3.034889367200265,5.640992772448108
1569406553966444.0,2.972496123757093,1.2299980617532633,1.2250771823689872,0.9768121656985592,1.6776613863395773,2.84526292979695,3.032736452430351,5.7303981711805525
1569406553966444.0,2.9954589305918318,1.2353681367619356,1.2245992157318666,0.9725490201252126,1.6763534633694188,2.871248234772627,3.0192347914899824,5.802520024214187
1569406553967442.0,3.0157632266570285,1.2444377695197089,1.2260538444429485,0.965770817605327,1.6696220273787612,2.896563898768531,3.000102844352747,5.8811972914361865
1569406553967442.0,3.042609994131796,1.2584646377261524,1.2290781995621685,0.9569506988398744,1.6613747693764742,2.923170899637139,2.9844524690617606,5.978886841279494
1569406553988387.0,3.074510765062511,1.2745561210265757,1.2351644749421853,0.9444031410395094,1.652803527329502,2.95020801100128,2.9705001570611973,6.09916436105083
1569406553988387.0,3.1087780878228366,1.2917593411075778,1.2436079934659647,0.9311202691166416,1.648887757055101,2.9757799202612496,2.948867816864222,6.231878554850729
1569406553990379.0,3.127337579052647,1.3083573837963076,1.2527508337436661,0.9167461712034238,1.644064437073829,3.000213464604716,2.9249179905312888,6.3631744757138105
1569406553990379.0,3.124120640643905,1.3258292543500636,1.2610963847949115,0.9039583108810763,1.6363190088079,3.019642542316333,2.9025237885535318,6.463734287256442
1569406554011324.0,3.1051520974853584,1.3440648349127824,1.2696184757783495,0.8921010759636717,1.6216322309075208,3.035718054756683,2.8840409684441437,6.517206052501221
1569406554011324.0,3.089861005563855,1.3644085543959985,1.2793962856938417,0.881679166650536,1.607178105762327,3.0532201117060276,2.866335238715012,6.545452607114305
1569406554012365.0,3.0795504558976794,1.3828731934462408,1.2903705059796229,0.8718882689246332,1.5928204752584347,3.074163430644184,2.853002730401857,6.580217314499679
1569406554012365.0,3.0741352896948357,1.3974358382029657,1.2978882777226741,0.8655703568596207,1.5825606441818987,3.100356873480782,2.844863298783486,6.6217156130054
1569406554026317.0,3.0643567700945757,1.4077528217808744,1.2969616887266913,0.8621318451516534,1.5738390995192697,3.129945996373593,2.8449019029703067,6.664379115694572
1569406554026317.0,3.049469428168131,1.4184960812150968,1.2894641585819016,0.8625618811773561,1.5707244178674122,3.160192229602764,2.8510706942184196,6.699492906264745
1569406554027281.0,3.033484284239446,1.4293824004050708,1.2813081528552,0.8638144511083474,1.5685427782055936,3.189542699721941,2.866455256208221,6.737702988896234
1569406554027281.0,3.017542878719379,1.4381418729866267,1.2750691374543242,0.865411919156428,1.5664091021405664,3.2135553439681632,2.882713392590415,6.763751386756713
1569406554048224.0,2.9962285525443653,1.4434726807729015,1.2705982323305143,0.8665386660049391,1.561885884931978,3.227796057689732,2.888760527342088,6.766236465216583
1569406554048224.0,2.977434866829424,1.4510953225477312,1.2667236042500094,0.8704342015352174,1.5596560263048482,3.2275431247249724,2.8861279635199177,6.755703687857893
1569406554050218.0,2.961034266983543,1.4616645490212037,1.263545405260298,0.87597354999372,1.5549133632228358,3.2159698137704034,2.882478573252428,6.743660164464457
1569406554050218.0,2.9500859387829856,1.475140056931784,1.2617598489627893,0.8817220674538774,1.550298140790054,3.203655720417653,2.880281718256157,6.715517845948514
1569406554071163.0,2.9436273075748014,1.4879296037537222,1.2630529280691818,0.8880713446200051,1.5462135163135413,3.1898776492819554,2.885207411597635,6.6822701208919035
1569406554071163.0,2.9433834297202512,1.4996275743553247,1.265899125730978,0.8984745243714063,1.5457418767917928,3.1676024401262937,2.8907633944205067,6.6498461566058955
1569406554073157.0,2.947244831058347,1.5094225075651646,1.2673489864158027,0.9117977168160318,1.5408928286652748,3.138280671654348,2.8975037564862016,6.617120655714712
1569406554073157.0,2.953013871112211,1.5172501418332118,1.2663492975520234,0.9279478791441083,1.5318922025477233,3.1095815628656287,2.9049177005301705,6.57821931082303
1569406554086125.0,2.946863300613163,1.5205935039193743,1.2657475208690483,0.9455106086271352,1.5190939037142186,3.083358461368349,2.908345146522728,6.54805410839269
1569406554086125.0,2.929167466751543,1.5204549667245886,1.267002134650485,0.9622048780068956,1.5096348419299794,3.060905589570577,2.905778257944439,6.5307232970175555
1569406554088117.0,2.9069673915958534,1.5184517495910854,1.2685933350409562,0.9764902929304183,1.5000242864368967,3.042215635218363,2.9064076773564973,6.528225703752256
1569406554088117.0,2.8886420325572604,1.5168757837354516,1.2701290500782227,0.9920892721469788,1.4914858351150497,3.0256358985692597,2.9130643567799903,6.521298871953865
1569406554108109.0,2.873964000250444,1.5135254498069306,1.2710361284926948,1.0082682620781525,1.4828293364591592,3.0115978550062352,2.92298707940422,6.509902280543493
1569406554108109.0,2.8639008693512933,1.5096084129383622,1.2695012067171085,1.0218995688831451,1.4778429704071407,3.0018019975002153,2.930557718957655,6.498038629238688
1569406554115046.0,2.8507697434756616,1.5048319844457667,1.268283278208837,1.0304428909852488,1.4729182571338855,2.9933718859078247,2.9329264300528015,6.489116338433123
1569406554115046.0,2.833730580383897,1.497761433997562,1.2687458834237062,1.036069033646322,1.470971851891192,2.98330406652214,2.918284263731274,6.4689211651695375
1569406554131041.0,2.8150551945138913,1.4864359000989733,1.270304393681125,1.038963065250805,1.4684903099149142,2.9725831928160393,2.891297069454586,6.441585086665394
1569406554131041.0,2.7964471770867543,1.4742244469165602,1.2727520987052805,1.0406045002702677,1.467748713273549,2.964512239761967,2.8622133818768694,6.402798414770706
1569406554132998.0,2.766802411530514,1.4617355839043067,1.2763983472779696,1.0422862814448743,1.467156074621261,2.9633449213114607,2.8365266804882974,6.360349529911277
1569406554132998.0,2.725363214444195,1.4484849563021678,1.2811528084321373,1.0454816286641633,1.4702293333158545,2.9681505523984173,2.811625842060056,6.310893195673889
1569406554144966.0,2.678458731044206,1.4338913800532924,1.2875149216079504,1.047696453013189,1.4726804696010078,2.961724406410633,2.7876208980486905,6.250171388560392
1569406554144966.0,2.6355757058686335,1.4185265414367159,1.2938109071047443,1.0483600224033924,1.471458978231885,2.932820546153223,2.765522940525409,6.173008094673185
1569406554151985.0,2.5977432966414478,1.4010316458099432,1.2969402097667366,1.0470989107868987,1.4619526029028422,2.889435185895681,2.750699086397046,6.09676848636456
1569406554151985.0,2.5661092959284697,1.3845332840779365,1.2968950077891013,1.0468428027338554,1.450381312869769,2.8455837246252353,2.7421774428940555,6.022120087994227
1569406554168941.0,2.5364456760107017,1.369757410537907,1.2948613907318665,1.0463954640609565,1.437786024798032,2.805204190809449,2.739005654725581,5.958848411004223
1569406554168941.0,2.5122022880374693,1.3571058971806182,1.290177801103385,1.0452711019109477,1.4270099088223498,2.768593701254785,2.737108658816084,5.899745290911212
1569406554169904.0,2.4916491753014496,1.3456427441993497,1.2856995657706622,1.0434898327645037,1.413775299432445,2.7346288121558353,2.733326728893493,5.843642584377513
1569406554169904.0,2.4771598302328686,1.336095711503339,1.282985606565073,1.0420455770957155,1.4032228247728809,2.7019896195751105,2.724910197445219,5.787958725384288
1569406554190844.0,2.466860612301383,1.328536721864733,1.2806327652209568,1.040230822516214,1.3942276783368914,2.668582916423848,2.716371656590503,5.742777552281426
1569406554190844.0,2.462909339552859,1.3237589011522395,1.2781776275963934,1.0381182723718287,1.3873394357750402,2.6352038820133292,2.7097352835444983,5.708593803571161
1569406554192852.0,2.4614177915929045,1.3160931728388867,1.276396924628302,1.0336006355630758,1.3805557291228028,2.6037951465083045,2.7086861416278465,5.693435664197937
1569406554192852.0,2.4670432843407806,1.3030597754901236,1.2713596698287812,1.0270610830984572,1.3774798052480288,2.5781621050952124,2.712943800589413,5.676874883399355
1569406554205804.0,2.4741060469843292,1.2877595331725955,1.2606936976441043,1.0180577609200607,1.3771227553953633,2.560557565921993,2.7218694041594307,5.650001286117886
1569406554205804.0,2.4821716394924405,1.276015917285759,1.2481005266152203,1.0092505861442513,1.3827380395836042,2.551696020043547,2.7343174412766023,5.615641241971847
1569406554212784.0,2.4882743176590094,1.267940090726123,1.2366844911088668,1.0012444600795503,1.3906242546582215,2.5493360024687064,2.752431243414163,5.595778423095767
1569406554212784.0,2.4935962099342994,1.263983259685802,1.224505673508353,0.9943884688108028,1.4027743049262154,2.5556536286603193,2.775642363801153,5.586008304622921
1569406554227744.0,2.493380125700022,1.2628552589682376,1.2120442196057162,0.9866149822122536,1.4170315317142435,2.566039915140208,2.8050909263471446,5.569853328649875
1569406554227744.0,2.4957590174868027,1.2654597872899294,1.2024651414712504,0.979379881425286,1.4313402707820613,2.56927947011259,2.839541746856583,5.529717786490362
1569406554236724.0,2.499731585444353,1.2712017614274667,1.1954888642596113,0.9732493658242,1.4433753751941463,2.5637952459699895,2.875089301721659,5.4787727825423325
1569406554236724.0,2.5109819109618643,1.27908079017164,1.185759700190602,0.9675036132187039,1.457785696257136,2.558646735462565,2.909277309939606,5.426275324580944
1569406554250683.0,2.52643375185541,1.285558526916673,1.1719408952895867,0.959488867559515,1.4693521505297946,2.555037641854233,2.948518462473937,5.385746207127417
1569406554250683.0,2.548577137020225,1.2930792030200235,1.1560745613187984,0.9523836932053177,1.477594712839796,2.5487537392646957,2.981930842759872,5.3578912548943025
1569406554252678.0,2.574438739427962,1.3027158214730488,1.1403076942011185,0.9479910811839303,1.483049377906268,2.5383853425282963,2.9950943830683903,5.346929516011986
1569406554252678.0,2.6083872613531796,1.3168697426274714,1.1266002742470538,0.9477105244747642,1.488008661447429,2.5247667640874667,2.999097850975675,5.341434457743452
1569406554265651.0,2.640918436729219,1.3331607095221165,1.116795761786353,0.9502850817602212,1.4911118658276477,2.502777537975609,3.009982264946818,5.341013926697162
1569406554265651.0,2.6759876806352967,1.3516902456571223,1.1112868603900283,0.9554450616023626,1.4962058721824087,2.472561800595658,3.0237717585207355,5.3427073300663785
1569406554272624.0,2.7136542207419923,1.370910624837311,1.1099355449518926,0.9626182764039607,1.4979444472032497,2.439385380891669,3.036855138048021,5.35762984570704
1569406554272624.0,2.758736408580024,1.3908172916334367,1.1098293446176055,0.971827524762789,1.4955663137330226,2.4082873850892503,3.0522002409763234,5.388320499627569
1569406554288581.0,2.8058205849975493,1.4097796614485383,1.108565315127489,0.979545850658096,1.4908131087741385,2.381389815673304,3.072777840027396,5.441418742584099
1569406554288581.0,2.8592398381111295,1.4303406090152337,1.1063380131472464,0.9846712236442515,1.4899671210551402,2.3604288217605154,3.089653537925371,5.504078510714856
1569406554290581.0,2.9111032375668167,1.4514033337856949,1.1051432133870611,0.9883055029909676,1.4895430297971373,2.343444403855064,3.0979019025329357,5.564434741894289
1569406554290581.0,2.959678168338354,1.4732466196042773,1.1072237589171254,0.9913926671557911,1.4879459112514601,2.330365481688464,3.106707272101917,5.60685750289347
1569406554311546.0,2.998084226820816,1.4916669375043707,1.1114877736306654,0.9913016930556364,1.48412936717554,2.3179716292759696,3.1209076045696573,5.626165655830563
1569406554311546.0,3.036671137641779,1.5049427253794698,1.114339725135568,0.9877917120851427,1.481625049347718,2.30492305198733,3.130131331630891,5.632027969967566
1569406554312517.0,3.0727802368039803,1.5117788586996226,1.118348520043045,0.9837611925476792,1.477509924752464,2.2927269024021406,3.1348488210545233,5.639617868057337
1569406554312517.0,3.1069519363480613,1.5147937623699466,1.1260556178647838,0.982573187158086,1.4735228404492486,2.2794545168283715,3.1366540016678073,5.6435154051657515
1569406554325524.0,3.1335921844033012,1.5145259416524355,1.1351337880389671,0.982195032712942,1.468195545869784,2.2624551165113815,3.1309331156664615,5.654742384158509
1569406554325524.0,3.1611457179136346,1.514296859069425,1.1432956736439503,0.9820097259812485,1.465981631101715,2.24367372936327,3.1198917761630414,5.678166183270238
1569406554332502.0,3.1848247829481164,1.5133433638868745,1.1497987907680811,0.982448147185634,1.4641493617285786,2.2242955319831457,3.1135233438635415,5.72380603846904
1569406554332502.0,3.191910735582593,1.5080214733357291,1.1504007388837685,0.9836118737112447,1.4612841554591582,2.2065589797864273,3.1142185289443276,5.769325687077276
1569406554348422.0,3.1737390737052134,1.496916545347942,1.1439509318422862,0.9819158111765398,1.4553601779434928,2.187075853026289,3.122685511134838,5.784096076778617
1569406554348422.0,3.1555681005639533,1.4885823092273873,1.1356193183097485,0.9763811626057022,1.4493263840175026,2.166357193645719,3.1379347542924885,5.771052540559225
1569406554350417.0,3.140825973576597,1.482469135239639,1.129036318573947,0.9657298081388961,1.441004372638146,2.146067614228588,3.1558183730891973,5.751050841180448
1569406554350417.0,3.1304797259278447,1.4789548007630955,1.1244647040872728,0.952644454534878,1.4329314633943586,2.125861938225496,3.1685635331096367,5.721934092597079
1569406554371361.0,3.1218972017426188,1.4786984482162284,1.122238521060387,0.9407140386636546,1.4251877063417249,2.1058201686836235,3.182825421040737,5.691782707901417
1569406554371361.0,3.11820390872071,1.4828801641262526,1.1224519812443525,0.9321368817206334,1.420579449300727,2.0876968024412057,3.2041072309365575,5.66048750507594
1569406554372398.0,3.1119030263157352,1.4896387352204146,1.1244909663061933,0.9268781501726748,1.4163693206328312,2.071243545205641,3.21874860768967,5.635484424938024
1569406554372398.0,3.101753182301832,1.4997972049312152,1.1262219811594236,0.9247872675414084,1.4147339556174694,2.056352151520978,3.2094901979504726,5.614347216381314
1569406554385355.0,3.0859050019869656,1.5114521599460722,1.1274690730254515,0.9245256229246361,1.4122802737304008,2.040291963955558,3.1876276105869,5.594187223861535
1569406554385355.0,3.072291862957434,1.5245066453561322,1.12916904740858,0.9246181870109088,1.4081108643108513,2.023898792193874,3.1672238371996424,5.56874916461979
1569406554392331.0,3.0578992997049177,1.5370539493033828,1.1305136150636406,0.9221937825035748,1.4012349108360387,2.007896151593934,3.147308316882716,5.548462983585092
1569406554392331.0,3.0496536987932297,1.5506327270245985,1.1312139465476099,0.9201553812060075,1.3955505936644574,1.9915366926313718,3.1219827662154715,5.536864425650079
1569406554408299.0,3.0386265017111276,1.5639056794489958,1.1323731203877287,0.9215352754494579,1.3903727023474994,1.9770155849692024,3.095996574090381,5.536066566585161
1569406554408299.0,3.022806930181456,1.578186302203944,1.1339757255407859,0.926977928095652,1.3889286907180676,1.9658849137416068,3.073403411914589,5.536686850412851
1569406554410257.0,3.007095996954122,1.592059641385315,1.1361348469153765,0.9363905963647597,1.3900647581155967,1.9536573112438078,3.0512051960352604,5.539784289110746
1569406554410257.0,3.004590482825652,1.6067711631878643,1.1387941433694113,0.9491005415044188,1.3951562790630514,1.941013041094359,3.0252018742877897,5.543721707854417
1569406554431234.0,3.0100972495729215,1.6206697840127693,1.142063812864881,0.962900539107482,1.4007390522630108,1.9287883906463528,2.998622541048775,5.559505077287694
1569406554431234.0,3.02383453921274,1.6340963485458464,1.1458977511439419,0.9768286427713433,1.407321001471861,1.915422140923466,2.9731831176661254,5.591613730591185
1569406554433195.0,3.0401337356213736,1.6464790722522884,1.1504362399651886,0.9917209732063301,1.4121309453989936,1.899843219284362,2.954209946038786,5.644673440732861
1569406554433195.0,3.061879760661054,1.6598023478513042,1.1547229649949142,1.0087593068854606,1.4163981636280243,1.8851805190156323,2.9427990415781045,5.718891842858751
1569406554445165.0,3.075430906930838,1.668092356937815,1.1567303012917693,1.0249767983392475,1.418562531083931,1.8725438370377363,2.9395506852748605,5.797556826712302
1569406554445165.0,3.0794285845754494,1.669635925644712,1.1570627471449142,1.0374370090059408,1.4188429191457774,1.8613539487325876,2.9420663230698576,5.840365188160675
1569406554452145.0,3.078815165474357,1.6677017758026158,1.1587783824361593,1.0470103745870842,1.4168975217601254,1.8522357593906933,2.949016506899658,5.84904724448262
1569406554452145.0,3.0830192982520885,1.667975407259716,1.1630528087396217,1.0557520616094593,1.416816652529386,1.8456629483394869,2.960413749857761,5.836959451193611
1569406554469099.0,3.0863313800573007,1.6688986489926683,1.1691253351652047,1.0656380750354875,1.415731438472224,1.8423170604176469,2.978164694279269,5.820277503908394
1569406554469099.0,3.0922837545095407,1.668265924573778,1.1759463776982308,1.076825893822486,1.4125198894035687,1.8437839668387712,3.0027822746162975,5.808545417136384
1569406554470097.0,3.0979056039888775,1.6615479397297828,1.183600717748646,1.0883149426335157,1.4074586157081743,1.8489551246292701,3.0362739689739735,5.802522355064689
1569406554470097.0,3.1126316492206594,1.6537712223998886,1.1910827911663764,1.1001959373468837,1.4067502425985925,1.8590623792097472,3.0795862389422846,5.7922877524706955
1569406554491041.0,3.1322612647678696,1.6491442748831808,1.198401419162775,1.1124705977396834,1.4083995995397112,1.8741490408851802,3.131308986373113,5.7828579276518335
1569406554491041.0,3.1505248346370154,1.6474545104784457,1.2055821152147739,1.125255700448222,1.4097142597457615,1.8924817832153078,3.183248909137402,5.77263881685761
1569406554493036.0,3.157526318453093,1.6462670510108777,1.211662012371616,1.136617448517278,1.4091011480103637,1.9098913585840616,3.2325763587062823,5.763231545909571
1569406554493036.0,3.1673730372990794,1.6496845313242228,1.2175686254958575,1.143657359309083,1.4109623366541306,1.9241880859733873,3.280745840686949,5.7556968666896795
1569406554513980.0,3.1821671548750095,1.657971380308826,1.2224761801674768,1.1471867980190118,1.4155524003064728,1.9391437764130615,3.330515580574262,5.757544697988913
1569406554513980.0,3.2043267726730797,1.6712042396097642,1.2251739925963108,1.151189832890815,1.4239786194394735,1.9560469073120341,3.37238734372211,5.766515186230803
1569406554514976.0,3.2233511290045636,1.6846665182193152,1.2286017777859017,1.157679838975658,1.4330941814520157,1.9738426760589691,3.3903487406478368,5.789750727933929
1569406554514976.0,3.240390292217309,1.697934832422834,1.23390608363931,1.165818357573315,1.444146331164251,1.9956557000265465,3.3849551008766268,5.815585972923008
1569406554528941.0,3.2546040552713036,1.7116716150583642,1.240291107394531,1.175570676943134,1.4558273348462956,2.0186347771100337,3.3686401901466456,5.830890947816307
1569406554528941.0,3.2762929902595888,1.7266013864613439,1.2458018631101984,1.1870606872179972,1.4618866078967039,2.03781992580556,3.3424809555039072,5.8376810775648496
1569406554529942.0,3.3032661847271783,1.738627080070103,1.2493501934151532,1.1992818841062467,1.4560358787309733,2.0571075694889442,3.3087079204847094,5.8530452455195805
1569406554529942.0,3.3377632980168452,1.7502344739785989,1.2528143317128622,1.2133049728055143,1.4466641735406867,2.0796388491170754,3.27446412716745,5.885025654316912
1569406554550880.0,3.3704868439718694,1.7623230560432601,1.2564086039124978,1.230159184550903,1.438177614405452,2.104502820541269,3.2470101007771777,5.939565572357892
1569406554550880.0,3.4029554888699067,1.7763999427289694,1.2591333376889153,1.2490148543343218,1.433694653845261,2.131826554686243,3.224708564308828,5.996215213971299
1569406554552875.0,3.4295201567727807,1.7907341785432285,1.2601183052204787,1.2669741588225534,1.4335999560832897,2.1597710633619487,3.2076470740536975,6.036180279034025
1569406554552875.0,3.456984470693666,1.806285471506111,1.2572046475795144,1.2831524196790536,1.4391614769073329,2.182621852427756,3.1965158574883685,6.043592406258306
1569406554564844.0,3.48634578548258,1.8205964603292764,1.2510889130528997,1.2995457044895056,1.4474684442164407,2.1973841381600066,3.1912248234824885,6.020182077378837
1569406554564844.0,3.5259436755663804,1.8352629528661877,1.243621259196236,1.3154850917419172,1.4589851047769309,2.2109610007656837,3.1900895847373345,5.985812921560797
1569406554573819.0,3.5693443496266144,1.8513729549017572,1.2347405510237144,1.3270380529287942,1.4708790047753175,2.223562402102304,3.1829628567342616,5.961637799295351
1569406554573819.0,3.617990999473024,1.8705362677208437,1.2271814385793933,1.334124688005238,1.4812941598169334,2.229218351483156,3.152628538482391,5.9400998308102375
1569406554588780.0,3.6635961147190836,1.8901518923846496,1.2233176424756202,1.3403776268692618,1.4873454821182834,2.234435556683163,3.1101231641491256,5.9267935616682665
1569406554588780.0,3.70584487328412,1.90959495570144,1.2222876361155466,1.349138053182043,1.4906353767255354,2.246463514727863,3.07148454099473,5.9218451687737375
1569406554589778.0,3.734245748660973,1.921500434993737,1.2242061938631579,1.3587409298227857,1.4917846641484518,2.2647274716613297,3.0403419580559135,5.925228899188348
1569406554589778.0,3.754855603743797,1.924506584747771,1.2291859417768929,1.3645835144135217,1.4913810552591322,2.28194727886482,3.0145427056598626,5.93570501874119
1569406554610721.0,3.7713055502081114,1.92182077784171,1.2345089045859319,1.3650970096090067,1.487232745124354,2.288173710765159,2.9945400692122295,5.96108256966983
1569406554610721.0,3.790832103849359,1.919540564452248,1.2359096647061876,1.3611817745020118,1.4843501073815752,2.281860614669028,2.9788347298918887,5.9910939549038975
1569406554612718.0,3.8033147798128417,1.9182744634048146,1.2360553143917685,1.354067056620688,1.4833552908622354,2.268946879875298,2.9656492806650867,6.0044704643058235
1569406554612718.0,3.8147540030410263,1.9194948031062307,1.2371202010148319,1.3468338870993561,1.4843105133770145,2.2584112103767087,2.9521595784970964,5.992013055271747
1569406554624684.0,3.8275994014990844,1.9224912808615797,1.236166862389768,1.3412239391093546,1.482942891363941,2.250735835038914,2.9429882223842925,5.980325250011323
1569406554624684.0,3.8442445857031027,1.928741177926482,1.2348465021006003,1.3389656513501584,1.478599719714923,2.242076862141284,2.9384545761067518,5.973744969694614
1569406554633659.0,3.8574720338837687,1.9368922274911444,1.2363499705339118,1.3382548701036847,1.4720476990327322,2.2339592635716836,2.934519960405871,5.968199887510102
1569406554633659.0,3.8728727650730415,1.9462099210931478,1.2398134985000977,1.3364337091958194,1.4678231770338293,2.228815425258427,2.9301166388449222,5.9686860571285685
1569406554648658.0,3.8794744938957884,1.9509076067135647,1.245286041339499,1.3328335729672145,1.4665019077196413,2.2250035560186254,2.93124702331615,5.990437682640216
1569406554648658.0,3.8726442472135534,1.9506209520203686,1.2528805895038753,1.3268964941244648,1.4674075732403977,2.2160228154112067,2.9373180159529624,6.014400803729145
1569406554650633.0,3.8563197675014265,1.9492720189476955,1.2597441209028286,1.3164295962146182,1.4656329284613108,2.1957219973115225,2.946028811862586,6.016818586442848
1569406554650633.0,3.8499009292849227,1.9540802166810363,1.2647190528008856,1.30607264894697,1.463640819267419,2.1688261743430752,2.9598666046324476,6.003887311787405
1569406554671598.0,3.8432862893070383,1.9614429474871513,1.2688409800783902,1.2991165944667944,1.462542256548755,2.1439127849100723,2.975491257565123,5.993026675518168
1569406554671598.0,3.831609901615957,1.9686218210139017,1.271116354956436,1.2946714561156223,1.4624844977586513,2.1249585543521334,2.9793412415131866,5.970475306247622
1569406554672555.0,3.8192525227877874,1.9752363991821371,1.2714844655336601,1.2903629234414118,1.4587585827427028,2.109451164730849,2.9715821322282294,5.93393673349278
1569406554672555.0,3.8178759139307297,1.9839185855531092,1.2708982255504755,1.2854409901554222,1.4526401427829523,2.0924107529121043,2.9576188492697746,5.886858026923276
1569406554684571.0,3.81978369650057,1.994348860060076,1.2684318393466265,1.2791767978375246,1.4445548287579146,2.074933918526686,2.9414051264564187,5.845214015618199
1569406554684571.0,3.829634153973282,2.0079129793022386,1.2638546239912256,1.2727730536349149,1.4365946668417922,2.0614001427899944,2.9222643854429067,5.8053579745898745
1569406554693500.0,3.8458377098318697,2.0221685608683098,1.2591361212550851,1.2669254137587382,1.4304699792301074,2.0509303391404465,2.9014213874302177,5.764382002766148
1569406554693500.0,3.8711289269085984,2.03949137856672,1.2542997961151887,1.2612535561168885,1.4287097365704913,2.043650090920015,2.882031787266432,5.723478565526233
1569406554708507.0,3.898337899715796,2.060110372040289,1.2492913794475093,1.2550312961583856,1.42730847483104,2.040527335545317,2.866450899026958,5.693739322647811
1569406554708507.0,3.927486355445289,2.0848089910256324,1.2460568865520707,1.249712311205654,1.427086974580788,2.040876668500693,2.854113944385918,5.668791633534107
1569406554710457.0,3.953914363375305,2.110574325645847,1.2448022321825758,1.2451176629447502,1.4280387080660404,2.042545363563022,2.8469683234152625,5.645405829697268
1569406554710457.0,3.987955833064687,2.1385137191234604,1.2445093010721024,1.2398914023406375,1.4300728407566972,2.0454854079988505,2.844601911439077,5.62791500093322
1569406554731399.0,4.0255946863961745,2.168476210240675,1.2451878277767623,1.2319014389044773,1.4285279308542456,2.0525747665681107,2.8487931819142744,5.622514425200374
1569406554731399.0,4.07037483993646,2.201538828522255,1.247805189524407,1.2240669715112968,1.424557601513059,2.0660970673533305,2.8603173808121225,5.604735118846847
1569406554732396.0,4.119746059689679,2.2347493649855013,1.2525302057801133,1.218348702130801,1.4195794382889533,2.0851175298199016,2.8801803569130646,5.571672915057954
1569406554732396.0,4.178035468496546,2.2690396480631736,1.2563703667197255,1.2146660475843116,1.41723499080382,2.10874110559611,2.9061919673144057,5.538034022764699
1569406554744365.0,4.2384587070557815,2.3035171712814777,1.2591759133469427,1.21145828380435,1.4172782271801814,2.135015943787223,2.9380330856621564,5.512315168968843
1569406554744365.0,4.3049795581269095,2.340375333427543,1.264881941999804,1.2100743660660913,1.4177799246549436,2.160112520915202,2.969706731833279,5.475669504368576
1569406554753341.0,4.37001797082016,2.377616876949805,1.2756908932338291,1.2103430593803755,1.412904135370438,2.181137265847843,2.9948299290521705,5.428678063757826
1569406554753341.0,4.438550760396064,2.4137596860389614,1.2897491889994903,1.212729661492372,1.4024115499431753,2.194320386137547,3.019206903410617,5.381660848355404
1569406554768300.0,4.508450744187299,2.4465820119527226,1.3041705961894425,1.2173001940208341,1.38783297161991,2.1964921477936423,3.0497013340365227,5.351184446529384
1569406554768300.0,4.577737561629318,2.4764177024864775,1.3170499634531536,1.2208316182137215,1.3745817748865157,2.1922262993722614,3.0877028551275347,5.330836078525593
1569406554770295.0,4.637740842863,2.499746683563207,1.325557222545261,1.2200684752489035,1.3631741838954334,2.1903033039564943,3.1284913773922964,5.305185171534403
1569406554770295.0,4.700860773136997,2.5211021711232977,1.327606813707677,1.2177691024118606,1.3544255987496634,2.191203993020634,3.162565658983895,5.2613945231251495
1569406554791274.0,4.768447532109464,2.544401414444454,1.3249460331704646,1.2156554647105304,1.3460491472708676,2.1898787460111184,3.1925452576960045,5.210559079745058
1569406554791274.0,4.844161260307181,2.5714326418476503,1.321351301192841,1.2153654292250806,1.3401390863045364,2.1882189971294723,3.2253374238862738,5.158605233662561
1569406554793235.0,4.920726573728964,2.59985971255548,1.3190204356938744,1.2171330246162455,1.3359550584348228,2.1872677962735523,3.261925551267379,5.113008203280527
1569406554793235.0,4.993731947913982,2.626990593087226,1.3151349452525105,1.217974659401615,1.333700042757052,2.1851853073341068,3.2853863355583988,5.070885173134442
1569406554805202.0,5.054159765797435,2.64841202723113,1.3074658765136185,1.2128756911445087,1.332239406362425,2.1798536805898805,3.281795371884585,5.0392785333323555
1569406554805202.0,5.112537259430518,2.6670833926753077,1.2987198815425407,1.2018992860144073,1.3327552908745735,2.17007823575331,3.2663349744124446,5.016958047151817
1569406554814179.0,5.164768706053143,2.6842210145871683,1.2890357190680457,1.1888274819314242,1.3334534508353137,2.1604877580590935,3.2535131139936597,5.0065140797227246
1569406554814179.0,5.20866223871587,2.7006345616068566,1.2781181875322372,1.1776286917546013,1.3331813200934046,2.153393089767786,3.239525809766876,5.0035977082308545
1569406554829137.0,5.237652994727482,2.7125840264643477,1.2689701531211803,1.1673209170388266,1.3303113185031168,2.14670188278898,3.225432990909031,5.003069000984782
1569406554829137.0,5.2608652666316384,2.7235731759275494,1.2617896595983424,1.1581240780909239,1.328452347203096,2.143382850363478,3.2135944971183723,4.994925478859996
1569406554830138.0,5.282707323071534,2.7351205434969232,1.2546547451143217,1.1516308645624904,1.329188717064604,2.146551110955517,3.208073891630492,4.9850090679392975
1569406554830138.0,5.308060469196071,2.746114959152488,1.2473297655191709,1.1498397376133507,1.3329675009673323,2.1554823000629453,3.207252462569558,4.973439848839388
1569406554851079.0,5.3190645163342944,2.7508805018651805,1.2418400709887951,1.1508896190331468,1.3360741472810218,2.1672029878726025,3.208730092385576,4.9648707525167435
1569406554851079.0,5.307183422228336,2.742634853117559,1.2382718265199413,1.1529030800790137,1.337637912825041,2.179729210671845,3.213162054351153,4.961352225576393
1569406554853076.0,5.281586438225507,2.72387898956764,1.236632134944155,1.1572380085171254,1.340520976150803,2.195030513060795,3.2182014961846255,4.964140310760592
1569406554853076.0,5.259294480758588,2.706720520340827,1.2389671626457512,1.1658649775179044,1.3490722819684473,2.210371169863211,3.213321752775141,4.962491283435678
1569406554865041.0,5.233010001311978,2.691266368536852,1.243513904950296,1.1749183370265075,1.3613396201746009,2.219776732910469,3.1926640286285624,4.96088616873244
1569406554865041.0,5.2023150638720095,2.6755596677343574,1.246172714954968,1.1812302389718274,1.3739493609588378,2.223178703842627,3.1650645937643644,4.962216843741558
1569406554874016.0,5.167261770464056,2.6590173066138467,1.2477987280613572,1.1859275402057337,1.3858978491295268,2.2223922287048805,3.1418997166187994,4.970715105622247
1569406554874016.0,5.131452865451511,2.6420889216509433,1.250372916653216,1.191590697719853,1.398910435279723,2.2203805058080937,3.123538025969697,4.978879073217779
1569406554889019.0,5.0940762193828615,2.623727328403895,1.2549481497490849,1.1962812569516759,1.4104628474230678,2.2181024051964497,3.111975863925542,4.984306758308961
1569406554889019.0,5.063082528878525,2.608040610737969,1.2625682758307006,1.198035758846137,1.421851226478257,2.2165595599224948,3.107441376325817,4.989457908257521
1569406554889983.0,5.034652945917793,2.594264780380376,1.2723027039117656,1.1970665492480286,1.4337097006235326,2.2187493364898434,3.107073475309892,4.999353908020071
1569406554889983.0,5.013733430915607,2.580725677090301,1.2841553638305447,1.1954522148977256,1.446566773911558,2.222920374721764,3.1078017167937446,5.015649838630036
1569406554910958.0,5.000858302004218,2.567082291498256,1.2981998638339158,1.1960214232704243,1.462223169575331,2.2260141157814965,3.1130118128650777,5.04676905348878
1569406554910958.0,4.995566137922904,2.5545084278140666,1.3125721186986603,1.1990512690059916,1.4769146254794125,2.2280238835145103,3.123996899246634,5.089842533148374
1569406554912948.0,4.9777058819946935,2.5344548443160004,1.3215834572575091,1.1982775448704024,1.4835042674473011,2.229835057737934,3.136157133629419,5.133031154582973
1569406554912948.0,4.931473002320446,2.502443082221705,1.3182830066712365,1.1927495966049655,1.4874908235093072,2.2344908095399556,3.1421135136391203,5.152948874919665
1569406554933858.0,4.863102483078311,2.467735951135987,1.307079484915107,1.1876719441015016,1.494872943452221,2.2430859408082497,3.147175610320389,5.154071694648789
1569406554933858.0,4.79298918369872,2.4404218360396777,1.2966826256247623,1.1860938915251313,1.5030628114750848,2.252824134764842,3.157325880214834,5.144357874815167
1569406554934901.0,4.721201911969663,2.4196349955833285,1.2882924155148197,1.1870826533313437,1.507173069272615,2.259735022154566,3.1606511146630414,5.129524832810902
1569406554934901.0,4.648888541311654,2.403914578078264,1.2809316920426277,1.1902447587115002,1.5093906003581252,2.2608243589664276,3.1457756332343796,5.115672550713917
1569406554948817.0,4.575780928391863,2.3916519488948533,1.2736338979981163,1.1932894503889835,1.5092250032167267,2.2568043219494607,3.1246450336316167,5.105623055182701
1569406554948817.0,4.512317264924739,2.385608240093919,1.2662708359062638,1.1963202066856344,1.506857741048749,2.253547753143757,3.1077536622176978,5.091672910024638
1569406554949851.0,4.4631312179294,2.385300552900822,1.2618417865178402,1.1991243326345362,1.5055439206677306,2.2551080254572824,3.0939670704427384,5.078746610905447
1569406554949851.0,4.426356207967164,2.3888097299229423,1.2624511232864173,1.2009224995820806,1.5064961281940084,2.2616975382486295,3.080334769839192,5.060945649760524
1569406554970758.0,4.3917356917802834,2.391042085132398,1.2682225889464382,1.2021743795022413,1.5070869328428058,2.271392924146945,3.0702779621247203,5.031579037572311
1569406554970758.0,4.366056325655163,2.39182887832308,1.2752009314847979,1.204379362279553,1.508918617705912,2.281318187129317,3.0647941562836367,4.999011655325129
1569406554972752.0,4.354581935731811,2.393641312439088,1.2793663061545437,1.2065144826040308,1.5097297728041348,2.2874758706915714,3.062845076365913,4.977008153106595
1569406554972752.0,4.3599526601729,2.399265595669104,1.2816639664268488,1.2069206234150816,1.5066248610205162,2.2887500818758446,3.0616494324961803,4.962902299680394
1569406554993741.0,4.373583102481005,2.4056527583647904,1.2830940075495518,1.2039040288373286,1.502160749042648,2.291940761859285,3.064298280118937,4.961940690223699
1569406554993741.0,4.39458703470727,2.4128427766871456,1.2856458198724254,1.1982567013474432,1.5022212319768178,2.301230901439546,3.0740443525478565,4.969032619973906
1569406554995692.0,4.415887808111556,2.423353059866141,1.2903451663939112,1.192341791404056,1.5078847634679502,2.3147274080153095,3.0870365959679393,4.978559896325766
1569406554995692.0,4.435695644687294,2.437808172628568,1.295223502007946,1.1888766955160526,1.5182803661847153,2.3315094089662183,3.100180432993842,4.989921212501994
1569406555008659.0,4.453344230469078,2.451434224107872,1.2993090862252525,1.1869271600877787,1.5298611892036476,2.3526024651497948,3.117762970181248,5.012376873439519
1569406555008659.0,4.4730893815813335,2.4634457067737765,1.3046196604872635,1.1858150354159622,1.5440584142898923,2.379156937957092,3.1419390106336116,5.048246471426067
1569406555010690.0,4.490325294449406,2.475472703133767,1.313143270128534,1.1851009185026466,1.5598766962431532,2.4064469874756607,3.171953494394744,5.093407955468303
1569406555010690.0,4.510877844174938,2.491224008701509,1.3238873602426355,1.1860342112665043,1.572949418154022,2.4258176147049837,3.2018427902452267,5.136825416521181
1569406555031595.0,4.532755322985071,2.507218006075766,1.3358805056353575,1.189564235798377,1.5812348580052973,2.435180427911375,3.2285760469764533,5.17711602666802
1569406555031595.0,4.554999121615999,2.5188227231501976,1.3501379034800411,1.1953345629589578,1.5869547996547404,2.44026351140852,3.2558966716020117,5.216804858733722
1569406555032594.0,4.569427935786089,2.522220574160301,1.3646565049501216,1.2021838420960063,1.5915167669112515,2.4479556184199462,3.2787263900841404,5.264354969797834
1569406555032594.0,4.576274421422556,2.519649376285641,1.3736651677618972,1.2086396617572213,1.5956830511813522,2.4576557715327105,3.2854414289859175,5.301677826815518
1569406555053543.0,4.576476094484303,2.5136255332705764,1.3773111941189426,1.212067840359445,1.5986568340513185,2.466271872722639,3.283316555892196,5.309043277335843
1569406555053543.0,4.565747547550658,2.5028602490160576,1.3795376099202379,1.214437555153811,1.6040988325040153,2.479938561220219,3.282244849327873,5.290691999594834
1569406555055532.0,4.524988364447164,2.4789590125053986,1.3803222032985987,1.2158265330098494,1.6112821957736736,2.49471258310945,3.283689588944664,5.252883501344704
1569406555055532.0,4.467019858622754,2.4464629816983847,1.3806339993487293,1.2143719415486718,1.6149929121352122,2.4930341788050567,3.2763003027368827,5.193579223646334
1569406555068497.0,4.409501766284197,2.4161718506030576,1.3834343211140387,1.2114230608504954,1.6136863853243106,2.4739406967938358,3.250109762105531,5.131804453689749
1569406555068497.0,4.361350860034536,2.3905393276774825,1.3877533836509857,1.2068758638069492,1.6098916489978015,2.452277618973004,3.2129080337530174,5.074546829591422
1569406555074520.0,4.326470948166345,2.366671961280134,1.3926171680735306,1.1968180454956423,1.6025962287598343,2.4364207633695805,3.177920270156645,5.020819746302114
1569406555074520.0,4.3093154311872865,2.344152224467167,1.4000245319693876,1.1836571702068195,1.5942224825064162,2.4243761926686456,3.144148362888501,4.972407384653628
1569406555091436.0,4.297747819242249,2.322030095522814,1.4080517789587534,1.1691330258390207,1.584937708731798,2.4109440453181405,3.109013397901461,4.931535472233816
1569406555091436.0,4.29272317392307,2.3041916198909163,1.4147575192400526,1.1534381770940272,1.5773834666214681,2.3958529100116346,3.0725542428490598,4.8892516616302935
1569406555092433.0,4.298724515292125,2.294282353791392,1.421181277325946,1.1379824789340882,1.5722145038111774,2.3796251151748407,3.033312547949936,4.852987164604107
1569406555092433.0,4.317441550411398,2.293629887949134,1.4254136124769863,1.124378527536557,1.5693287186382794,2.3650871477446413,2.9911571840798814,4.827531297971857
1569406555113378.0,4.341144461997076,2.2985953239427244,1.4254794457613515,1.1134296973888198,1.5688860023731723,2.3562471942167926,2.9527514397249237,4.81288770728695
1569406555113378.0,4.373234089996736,2.30729574300679,1.4222436236273361,1.1060530049219406,1.5729219890235353,2.3548836912779922,2.9194194826304356,4.8093956151268635
1569406555115372.0,4.40491672929641,2.316989283758628,1.4185752764435215,1.1000621045972114,1.5810357334021385,2.358443607611864,2.8912268742449596,4.820527945846354
1569406555115372.0,4.4383571313933885,2.3281664719332977,1.4174533495433541,1.0955883345246755,1.5943588001370974,2.36220752459916,2.868807468875137,4.838809898226599
1569406555128370.0,4.478897137468453,2.341207082881847,1.4180369134618878,1.0925189626435687,1.6108103748126283,2.363608655003677,2.851857242539388,4.857833350282143
1569406555128370.0,4.531222326529565,2.357025701218288,1.417314857676554,1.0890973061939215,1.6284250056219158,2.3654310297752583,2.832690226093764,4.869124729693489
1569406555134352.0,4.585952304777103,2.373133037082114,1.4161754218670264,1.0855672066700868,1.6440322710815227,2.3711410443485472,2.8091983455752163,4.869783431661542
1569406555134352.0,4.643151215230082,2.3894922348549748,1.4165963661225542,1.0844049936725526,1.6516466422776503,2.3748659089890296,2.7869579284222508,4.8591880142707025
1569406555151299.0,4.7004338152846215,2.4049991836157076,1.4186327644579733,1.0846282045171678,1.6457544680455907,2.369916547942827,2.772402590580364,4.848886742180985
1569406555151299.0,4.758803084358171,2.4189001319678405,1.4232673651178416,1.0853833755072075,1.6312129107126794,2.355888192506874,2.7650378399915647,4.845682431899778
1569406555152273.0,4.808216768914889,2.4281691354223915,1.4316026850854808,1.0872978381632008,1.612374697859829,2.3304871437808643,2.7626455858119727,4.852243963920174
1569406555152273.0,4.837448326156301,2.42981197893607,1.4427625543381497,1.0918150455407702,1.5951186410871097,2.3001866929149997,2.7627200011098845,4.867285253397292
1569406555173262.0,4.844035164526089,2.419929559885233,1.4538838986639497,1.0969239908805117,1.5815617654684542,2.2743259911975806,2.7634384463865977,4.885104319358298
1569406555173262.0,4.8521650412401565,2.404317033278282,1.463926825170516,1.1015354446105483,1.5714228711927438,2.2514544765532785,2.765975871494907,4.895252025839695
1569406555175214.0,4.863027759720781,2.389730105915392,1.4749522687651144,1.1084300221298495,1.5628709643797152,2.2271121852971922,2.774081709278668,4.904347623573929
1569406555175214.0,4.870223367882245,2.3758158744398004,1.4861838313705307,1.1172097986773164,1.556072922645857,2.2010360133389555,2.7847630868604925,4.921189978288984
1569406555188218.0,4.871604014654419,2.3580001741063863,1.4947869647513115,1.1246211301739368,1.548977250979417,2.1734118376629064,2.7972045893836435,4.941728724125445
1569406555188218.0,4.871280011946209,2.3388610058467076,1.5007000927377976,1.1317077145876868,1.5424237208224039,2.149134518819316,2.809300398974859,4.953048198854573
1569406555195199.0,4.85289131490328,2.3151529793905863,1.5040570447959993,1.137473923421317,1.5355008024952497,2.132041897747252,2.817067670277087,4.960774545283733
1569406555195199.0,4.815944864240561,2.2834808125486568,1.5037627069475692,1.1399435910390219,1.5283943605592154,2.117267166812791,2.8209610467221498,4.9676108435412285
1569406555211117.0,4.77654860291337,2.2522171966723215,1.5007554448998606,1.1396798541070654,1.517811431816723,2.0987404757831314,2.821049860599593,4.969001553433074
1569406555211117.0,4.7512852108081125,2.229870994233045,1.4939442918500478,1.1387329565456537,1.5047630953380604,2.0797271977718275,2.821913894257824,4.975077897953084
1569406555213111.0,4.734978807407565,2.214053405628398,1.483768242180835,1.1389770278316418,1.4909958643923384,2.064318006818781,2.828138878868043,4.993816246309856
1569406555213111.0,4.72391115925684,2.2051333898593737,1.474984882290013,1.141770231121234,1.4789639042429505,2.0530696995006457,2.838779163026934,5.011125159633204
1569406555234084.0,4.715402376346747,2.202963907226408,1.4682508325058428,1.1461342090080051,1.4670386609964219,2.04594160484404,2.857103072869251,5.022459895386296
1569406555234084.0,4.7134846542977575,2.2054244958625366,1.4616480375889795,1.151239117398325,1.4549839457346347,2.0431779703207993,2.8832471887908766,5.036407062007284
1569406555235053.0,4.7145596061489945,2.2089152300022277,1.4544412497345522,1.1559504908988572,1.4425434072816394,2.045689510923478,2.915331444142913,5.059479201059794
1569406555235053.0,4.720959000619219,2.2147108328970875,1.4435392200515824,1.1602807125366958,1.4308563725885663,2.054800672628784,2.954352522896297,5.092419394651845
1569406555248017.0,4.729669630897229,2.2214287969419777,1.4282201800483665,1.1660909133823696,1.4187060634009672,2.070616811775475,2.9993381129880725,5.137445176542046
1569406555248017.0,4.744659573193717,2.2289983441491543,1.411028466928146,1.1746431066155194,1.4080508828714906,2.090443306018665,3.04936444067984,5.1923732896779775
1569406555255033.0,4.76025413680877,2.2366699693494274,1.3921925802116457,1.1849907354818932,1.3979290613918645,2.110043884574925,3.1063677198412307,5.256054764299886
1569406555255033.0,4.771057577216934,2.2450777318796242,1.3711037127299779,1.19527872151779,1.3911615518587892,2.1313813723771635,3.1634870000678785,5.327189362456535
1569406555270993.0,4.773799202663665,2.2528394387196644,1.3505376588600377,1.2053777843205424,1.3886310722442856,2.153708788209672,3.212153646821406,5.40781359431847
1569406555270993.0,4.777959626098215,2.258347835939548,1.3321532719747315,1.215506034560602,1.3898412239883065,2.1722831175326256,3.2528257951479165,5.491634513734236
1569406555272952.0,4.78344295897792,2.2593376158914387,1.3126980635418741,1.222660355620368,1.391264716729837,2.1841449129921586,3.2896486103959113,5.56108867360397
1569406555272952.0,4.793710749489188,2.2592584406214,1.2880986132044632,1.225708893373358,1.3893505292004562,2.184344002304633,3.329694988750418,5.606185579207296
1569406555293895.0,4.79909478658074,2.2585643612132236,1.2600642082383582,1.2283054638185955,1.3820560508001343,2.1720231083039514,3.3712748634114043,5.629977360423906
1569406555293895.0,4.797448988937578,2.2571495308454295,1.2323703343017303,1.2337029092848255,1.373529442227804,2.1534997224474672,3.3971714177514136,5.630927570908758
1569406555294892.0,4.791673254747738,2.255462726194932,1.2066283283170376,1.2419952808926018,1.3662822467189697,2.135497772107346,3.399491668133443,5.617906037046684
1569406555294892.0,4.774711262170207,2.2527021319862786,1.183267307834464,1.2525247610558095,1.36172909102886,2.121436656568103,3.391245810417165,5.606935759396455
1569406555307861.0,4.734141576435202,2.2486379090705135,1.1600055869338177,1.2613621572748934,1.3572685474425386,2.1114447536883008,3.3841723931010663,5.598427358721767
1569406555307861.0,4.688737260071901,2.25091026638429,1.1328270221900323,1.266411617613086,1.3533199087269394,2.106737653060746,3.3802607379122596,5.5819845750591375
1569406555314840.0,4.654377362216687,2.2596252117002744,1.1036223229069007,1.27032138384848,1.3501973751637981,2.1084718303674594,3.3777112145176647,5.565012650202067
1569406555314840.0,4.631757041494012,2.269885017985616,1.0755007104412588,1.275386308196025,1.3486942318101787,2.1149537686750746,3.3772587241154253,5.5591605904044314
1569406555330835.0,4.613107049427788,2.277220533780863,1.048891851246241,1.2797055820598375,1.3481466893274512,2.1241302970617535,3.382093145821572,5.565044678761798
1569406555330835.0,4.606566138994287,2.284648887102271,1.024715874549575,1.281284464815912,1.3501991275670264,2.134182591229832,3.3932209497312575,5.5729765048789615
1569406555332791.0,4.611032244583443,2.293621509718934,1.0045353572750153,1.2816980205054214,1.3545919236729091,2.139061830407309,3.4119960341597557,5.586450554319671
1569406555332791.0,4.621482004257462,2.3035290225871567,0.9877308672301697,1.2832214018444672,1.3599043820731311,2.1374063910621484,3.4356166550544995,5.6017985964633095
1569406555353736.0,4.630476079100132,2.3125643656458013,0.9724272497989809,1.2848877776257555,1.3662774563841449,2.136903555874686,3.4593919315855315,5.606917183216154
1569406555353736.0,4.639344303345627,2.3213556968948676,0.9572414493513205,1.2858425226294619,1.377512136360333,2.1419273103780028,3.480195493036175,5.612023226857903
1569406555355730.0,4.635288541240754,2.3233155691814287,0.9430201639068634,1.285858670690869,1.3907963726610888,2.148677770330192,3.500941124167849,5.6330341687505845
1569406555355730.0,4.604541931862146,2.314916277817125,0.9318328001609917,1.2850145245275817,1.4012895168166069,2.153190405811907,3.5309333948942054,5.67104250752529
1569406555367699.0,4.546682964590969,2.30078102125232,0.9250454399346909,1.2850464541656603,1.4109040960879862,2.154297762119729,3.555928942916734,5.716654991304165
1569406555367699.0,4.482539541503369,2.2859136203839445,0.9217792574207571,1.2866189760420181,1.4255690851772913,2.1539234788429122,3.5530024136620826,5.753377613529452
1569406555374710.0,4.416425619476869,2.2679474428828805,0.9199769286036296,1.2857012859314252,1.4399049878926289,2.155028211254298,3.5399105840359164,5.770516287392013
1569406555374710.0,4.350863002643996,2.2496792732691864,0.919550725859176,1.2810801376985006,1.4448691346520444,2.1587285322315513,3.5339948510138472,5.7615971828615615
1569406555390652.0,4.291620175392594,2.2343882830484074,0.9215432448366622,1.2732395490033255,1.4426333450028528,2.1660489217734433,3.530248716047519,5.747171555477743
1569406555390652.0,4.242224879357262,2.2245895920513186,0.9260174735067042,1.2630597750590553,1.4415534157799246,2.1770975800396934,3.5282739220376738,5.739443767442067
1569406555392632.0,4.196308786600216,2.2197408032659753,0.9340171026322062,1.2531498688737512,1.4428713094379493,2.1908975462194102,3.5277736572062595,5.726543443512643
1569406555392632.0,4.157797030263805,2.2189575097115077,0.9464565024471089,1.2442510165643519,1.4443501802715835,2.208490659690811,3.522468362821306,5.703671203338167
1569406555413576.0,4.125233680707937,2.2196661967735833,0.9620401093475405,1.233025922835598,1.4442832099189837,2.23091362112932,3.5117998235089183,5.67814308174597
1569406555413576.0,4.101607199494778,2.221099326957804,0.9798133466389031,1.2200832379132325,1.4441107172236076,2.2572452940143743,3.5019963810457178,5.6516738930794
1569406555415583.0,4.085767170118651,2.2205118350493396,1.0005861402333989,1.2080623333310139,1.4424062418885983,2.2806850087643404,3.497703213480255,5.631999412760143
1569406555415583.0,4.0774623978362055,2.2187392482151758,1.0230287795564963,1.1984797584188671,1.4393287446885297,2.2954321322384637,3.500062458209701,5.625457020080527
1569406555427566.0,4.069379904516019,2.2154213921802044,1.0452905519666515,1.191214524446629,1.4371707551614303,2.308386874716904,3.5081050163734906,5.625507957186672
1569406555427566.0,4.057204253715408,2.207578690909193,1.068751047408789,1.1875574121633403,1.4398725086169757,2.3246841390200914,3.5138716447224896,5.623938628860432
1569406555436514.0,4.032681413407307,2.1933131717393892,1.0942462537138542,1.1885846156106556,1.4437225597497274,2.333738517789978,3.5129087662005856,5.632102862371904
1569406555436514.0,4.008219247356867,2.1807582028951162,1.1226895431729627,1.1938197943642224,1.4436913707432282,2.3274653353900883,3.5100433868117107,5.652669211979598
1569406555451474.0,3.9916658785305796,2.1728931290886875,1.1535199569910188,1.2011411836910857,1.4426320857094899,2.31509455138147,3.513164827465014,5.6808969033329895
1569406555451474.0,3.98530713665968,2.1694337984126464,1.18573159421341,1.2096372263806587,1.4443511433800456,2.307520671415416,3.5161660066432923,5.7181832822909975
1569406555452471.0,3.9817536968212464,2.1686022371309246,1.2190014078243616,1.2191065728310033,1.447657830107339,2.3069793840740687,3.5097009451052648,5.760617425603515
1569406555452471.0,3.9800408377260386,2.1701625510992413,1.2510282936733894,1.2298160084995513,1.4531629200568905,2.3097948512678714,3.4961704560088838,5.796451568483207
1569406555473415.0,3.9768449933420893,2.170704904725963,1.2771394183544218,1.239775044360105,1.457745878945639,2.3109123449278446,3.480521968303265,5.821037332226956
1569406555473415.0,3.977007031022788,2.170902063505233,1.294868307524951,1.2470048750778744,1.4583819616014524,2.3112474863331953,3.4671558511941702,5.828666419822241
1569406555475409.0,3.9825891745504354,2.172430197818951,1.3062822831690457,1.2521418339166195,1.458070368682832,2.310770947874031,3.4618459012564555,5.8213645632917475
1569406555475409.0,3.9996126775519802,2.1755829625573706,1.314580065861201,1.2563650422408361,1.4605921044687566,2.3094136472176694,3.4659779238155353,5.810842060555421
1569406555487380.0,4.020917617352518,2.1778790119124416,1.3205446736410784,1.2595114540842247,1.464799400741214,2.3110652290921823,3.4795538345569232,5.811701995570974
1569406555487380.0,4.045879405689089,2.1825230169302534,1.3253194468053209,1.2627259067355614,1.4712494257554987,2.317912802342505,3.4999351326618227,5.826670613464347
1569406555496355.0,4.068906040158038,2.1890349648379153,1.3305375335632899,1.2661362016878357,1.4789076929321707,2.3290817678142175,3.5212886642027144,5.85263197730277
1569406555496355.0,4.0863741185733415,2.192716888112547,1.3339828090591765,1.2660155916438265,1.4835408277796813,2.340731258962559,3.5293721382650105,5.88473128380882
1569406555511315.0,4.0974508006848875,2.1927648583443,1.3342174861292186,1.26144849531981,1.4799269877027021,2.35075468130394,3.5181702698552284,5.926691417805249
1569406555511315.0,4.1168631323392955,2.1978109252971887,1.3364889549824417,1.2573313124659375,1.4734103446566402,2.3621284443405317,3.501384565226892,5.98149267723145
1569406555512345.0,4.140967056489373,2.209206267423176,1.3429501908781432,1.2558031297471097,1.469882813117012,2.3768895531860768,3.490158253836342,6.048978678579811
1569406555512345.0,4.169148133271095,2.2248678790419794,1.3503200871226346,1.257419734178614,1.4694813047874324,2.3961898210030186,3.484831328119432,6.125539389867552
1569406555533256.0,4.193326292605821,2.2391129704284802,1.3567925397874214,1.2603570237388408,1.4709055285425219,2.42016851254038,3.4871597753676187,6.203366998871926
1569406555533256.0,4.203008442222139,2.251078387306546,1.362472431333573,1.2618673746871565,1.4740944763675965,2.448174553129474,3.4972571672995296,6.272174866257232
1569406555535251.0,4.186349271749408,2.257995803995181,1.365379212080865,1.2595234733629956,1.4740066607231628,2.4727502461138067,3.516137365103694,6.328597782005761
1569406555535251.0,4.154387852399601,2.259684241644511,1.364901113158171,1.2529448966708998,1.465554488330055,2.4850104718939323,3.5383559795572204,6.35961587252367
1569406555547218.0,4.122728358289407,2.262144822782748,1.3620661748998837,1.245439017678254,1.4488530407101996,2.492334824531057,3.5572266604519753,6.353458151277001
1569406555547218.0,4.107326958647954,2.270816058554823,1.356940126563302,1.2405400083840492,1.4287525318967034,2.5004131634737465,3.569279265662689,6.321315633926239
1569406555556193.0,4.103169343828398,2.2820381862806505,1.3505049754895402,1.2374732846374124,1.408570911285413,2.497904469629902,3.5694645244244465,6.278058693192719
1569406555556193.0,4.110209076104135,2.2945965805619286,1.3437191070767032,1.2344808200427901,1.3913487061418044,2.477795362086245,3.5568090154336693,6.223007909094606
1569406555579135.0,4.121223892234355,2.307910081752459,1.337483157052653,1.2311116884059856,1.3758660911354283,2.448072476253915,3.539590636204227,6.170220590979563
1569406555579135.0,4.135897076117036,2.3250402795415788,1.3327017039299063,1.2286043431307754,1.3625471590037288,2.420431238709878,3.5236593003466767,6.1250873329808995
1569406555580129.0,4.151400435779452,2.3436967666455257,1.3292131635693776,1.225791542659275,1.3529804519219304,2.3983946499772686,3.51074889469309,6.079126708221386
1569406555580129.0,4.175163495792095,2.3634792167551857,1.325959359023187,1.2235681551733655,1.3481079110155432,2.3814840105291872,3.502528191510799,6.027185021936735
1569406555594093.0,4.206965403804587,2.385261119893909,1.3209743066740391,1.2249482379094176,1.346615483521952,2.3698498265612806,3.5018567217331626,5.979375253958965
1569406555594093.0,4.249084479804037,2.4099091883890216,1.3144709099487457,1.2286442234341477,1.3480279029901265,2.3621497190243517,3.5089353168451125,5.943077038816949
1569406555595090.0,4.293967101217176,2.4339553976631505,1.3084426607809012,1.2312302462931342,1.3508077990900804,2.3535346602998,3.5226777527876663,5.925198510147548
1569406555595090.0,4.343301682497392,2.457511832482406,1.3048639206834336,1.2355509154139055,1.3572007341664205,2.3386921332173327,3.5417466310328196,5.92292618825502
1569406555607095.0,4.3894821522364555,2.4771666000279424,1.3054271898028682,1.2439381439522017,1.3692462435114379,2.3182932905140703,3.569453678162918,5.9316001212068645
1569406555607095.0,4.4257748177969,2.490292739380145,1.3068549923980828,1.2519634192263118,1.3837595809379044,2.2992518022224226,3.5942008898505917,5.928486788435285
1569406555624012.0,4.450859262246952,2.5007537387810004,1.3054250421969094,1.2559024444149824,1.3943703315904055,2.2822052849568517,3.6006532749701026,5.892692519167383
1569406555624012.0,4.485023959316993,2.5178249577759444,1.3034445499937195,1.2604579153712154,1.3990221419633555,2.262214810551526,3.596725267347602,5.839599733174464
1569406555631040.0,4.526502310103275,2.540678665412389,1.3027840902378895,1.2688846628743775,1.3979469039503971,2.240139059734986,3.592395869637164,5.7962527922298595
1569406555631040.0,4.572814385656129,2.5689034537429314,1.304375101562926,1.2806799404179252,1.3951465296479413,2.222273691994369,3.5845797408495352,5.75928071115487
1569406555632988.0,4.618542845843373,2.5992498152449213,1.3079237181083694,1.2950100856636482,1.393410476352836,2.20727476385839,3.574759479235029,5.721799780953496
1569406555632988.0,4.666570647689864,2.6284893997255683,1.3104060296110855,1.3083641514103648,1.3943043637913655,2.1909401716271653,3.5694057155477696,5.68443991438066
1569406555653965.0,4.712848161894204,2.6553738058122685,1.3101277061271552,1.3173946423517766,1.3968377626379835,2.1765225642142494,3.5723072468237285,5.654749342302137
1569406555653965.0,4.76209133583721,2.6823580722873146,1.3093691186421283,1.322989977637713,1.3984203123101842,2.168779196173862,3.5778733401147846,5.62957782866116
1569406555654930.0,4.811420315792002,2.7067313253802565,1.3099590175517217,1.325985725231521,1.3976411281620411,2.1632188736951723,3.583898790108541,5.606311641070675
1569406555654930.0,4.860647282027114,2.7296971984449057,1.3118440729888718,1.3256389978310164,1.3927719734092374,2.1554531046102423,3.59308197697482,5.584725312541417
1569406555666926.0,4.903526846840923,2.7519005273465003,1.3149539747888384,1.3203806344127422,1.382916340919953,2.148009777419036,3.6035574372169537,5.566734441479623
1569406555666926.0,4.951952416745594,2.7764136676121938,1.3193472404701432,1.3117576169017457,1.37314307968424,2.1411678141878063,3.6125092969583203,5.542469152429165
1569406555675874.0,5.005244916475737,2.8037776333959252,1.3259374112328879,1.3033296912348316,1.3645301399134757,2.1345791601395208,3.6213280985403773,5.512517533663339
1569406555675874.0,5.0650096101285005,2.8358204378080147,1.33447869154621,1.2968432736713469,1.354430140174303,2.1323732285508266,3.6296263014753363,5.486244551659323
1569406555690864.0,5.12534764849398,2.870511365035223,1.3419166514958871,1.2902150421267993,1.3431567862833271,2.1348985541567744,3.6382811892870874,5.463028397328247
1569406555690864.0,5.187605664758479,2.905145175195441,1.3477315897054083,1.283392019085813,1.333048799228422,2.138296067765262,3.643172546809394,5.431956754664827
1569406555692827.0,5.250968703141532,2.939009844728908,1.3540009822758499,1.2770242349278003,1.3248431524494788,2.1422731480960664,3.64180809604808,5.405222221736665
1569406555692827.0,5.320753617071964,2.976646109533083,1.3616458114790633,1.2722737882195359,1.320966780052395,2.147947993243077,3.6377320104150113,5.392566307784688
1569406555713830.0,5.386952240635853,3.015234694823889,1.3705450917318653,1.2710429503720815,1.3214405385678716,2.154249689429105,3.635386938725851,5.3869170970095785
1569406555713830.0,5.451926241797174,3.0535699219256727,1.3807222482817922,1.2741291523258396,1.324559244762873,2.163170833780427,3.6299342640060495,5.372982367624741
1569406555715976.0,5.517554814922569,3.0912900692098164,1.3920881480387612,1.279524038146344,1.329078599086795,2.17777434951947,3.6197066150648847,5.352979966770229
1569406555715976.0,5.589873513958156,3.129247451170391,1.4046592453906892,1.287349356523933,1.3351380665516812,2.199259269819895,3.6078555351169324,5.334491530020419
1569406555727765.0,5.66126181159117,3.1619159750875774,1.4182381280124128,1.2988625457363931,1.3416151525605289,2.226704549821204,3.5943589128534277,5.327217569980429
1569406555727765.0,5.729234318349146,3.182368176661348,1.4297615963047414,1.310171247505077,1.3485629732358888,2.258236469307965,3.5791808853462257,5.334164041915527
1569406555736711.0,5.781104979883877,3.1867087494175435,1.4347773169489757,1.3144336357441226,1.3589056360940226,2.2900253474416292,3.562798336646844,5.352697846172215
1569406555736711.0,5.817363441347758,3.1832909969250274,1.4349500208591046,1.3135264385522674,1.3737791530326493,2.3163573637952526,3.538337225127405,5.3705796310615055
1569406555751872.0,5.846189968542991,3.1820539518385718,1.433143545837704,1.3120545348600319,1.3911923614974757,2.3343434091744486,3.5127851740018063,5.377111324415738
1569406555751872.0,5.88092872457404,3.1902677539952786,1.429344185888909,1.3117192134546327,1.4072955335154165,2.3449983835363524,3.495945365542499,5.358964891839199
1569406555752671.0,5.912255278457368,3.2048855574731863,1.4254607895870408,1.312628875982781,1.4142794777368377,2.350196136000333,3.4823950753552055,5.318838591918379
1569406555752671.0,5.938561932323106,3.2201252231664648,1.4212941652355013,1.3136144534853282,1.4100865267986866,2.3519398378458716,3.4644987208138955,5.267068336375076
1569406555781880.0,5.947786891509938,3.2283482635418137,1.4138793582234546,1.3112293969196733,1.4032802747388051,2.3502059937973407,3.4417618318415166,5.213003340894053
1569406555781880.0,5.944006574375198,3.231321188370173,1.402381501809977,1.3050213695814818,1.3999559836922404,2.343943641670487,3.4065974781041044,5.156130579234499
1569406555782594.0,5.937325135405666,3.236523817442543,1.3888120104730375,1.296103512024422,1.399165399889771,2.3347911987565797,3.3577791008320848,5.093666908362034
1569406555782594.0,5.935859573229835,3.2506882695789248,1.3780178622464283,1.2866595553070623,1.3990179396647282,2.3258352595596596,3.3022570571465786,5.025424284209307
1569406555787575.0,5.933823325739123,3.2711362607887224,1.3717242489325496,1.277533506792294,1.3984425721546174,2.315318388874014,3.248049856988041,4.962924206695969
1569406555787575.0,5.936460975732835,3.295992269321512,1.368818428052254,1.2692787551744373,1.3984699756496364,2.2971246008209105,3.199001403269603,4.909526971882662
1569406555796551.0,5.942790166559157,3.3213946549453874,1.3681787365595792,1.2617144533410911,1.4010729161094775,2.272068542653907,3.1544973977780453,4.86728254695265
1569406555796551.0,5.959237636395289,3.3458952883446473,1.3658101310668613,1.2545606462265788,1.4073004990873572,2.2498022585787916,3.111135900686306,4.833103020790542
1569406555811519.0,5.98055237829624,3.3692089446654565,1.3559622050282107,1.245319200166192,1.41516524838844,2.235854322492097,3.072480004841703,4.800689005780174
1569406555811519.0,6.010210721676643,3.3943988183246714,1.3388400225615342,1.2335704944378285,1.4207102831995553,2.2288898696164177,3.038046078818913,4.765606536110067
1569406555812508.0,6.046435665190013,3.420655854715758,1.3212643180135544,1.2203449648400044,1.4229870879136062,2.225908567211129,3.005191953698892,4.7327622596736285
1569406555812508.0,6.088040565009947,3.449023749118565,1.3070237954591577,1.2079051807940724,1.424975913645364,2.226910637742535,2.9752115438066467,4.7024662422083425
1569406555834450.0,6.1318806000485235,3.4791479140679415,1.2950102266562076,1.1981723032731233,1.4286947621182189,2.2329633232720596,2.9530595981036774,4.68240079657696
1569406555834450.0,6.1875400618820935,3.5110462595925442,1.2841891014455025,1.1926763467295416,1.4351154423295178,2.2413274821884865,2.934724277612646,4.6720111625790555
1569406555835447.0,6.248090421850537,3.541166773228305,1.2735079361648476,1.1878801773824126,1.4442472648368385,2.249824811910765,2.9146031831109416,4.668360032699871
1569406555835447.0,6.312672122451233,3.5712760318855596,1.2620064234622903,1.1802665931116048,1.4520707951295058,2.259619720596848,2.8957666949079397,4.674415299576235
1569406555847454.0,6.373748865131458,3.6026188606859404,1.2516856620350179,1.1712462216711035,1.4567736749072075,2.264896492565899,2.8804923327153813,4.687721876639498
1569406555847454.0,6.426892344335694,3.634328918857507,1.2444653437583986,1.1641213977700342,1.461325010989666,2.261270581403891,2.8627840069564936,4.698247617756185
1569406555856390.0,6.46698984290312,3.6625463878514113,1.2401601851235045,1.1551684941493474,1.4667607783377155,2.2551892921241063,2.844644430443546,4.712101697985735
1569406555856390.0,6.510169089241159,3.691764672186742,1.2356390921896976,1.1423209581410192,1.472063169283901,2.250916228013177,2.822113554651246,4.72735640057178
1569406555871650.0,6.56322922549185,3.726118392717511,1.2270455375811362,1.1283720204492464,1.4793547757049292,2.2464663180922826,2.79049547068372,4.738826759209997
1569406555871650.0,6.63080386038751,3.765136654280475,1.2156937720635466,1.1155066012070514,1.4904918124835353,2.2437287625974314,2.7563353268108104,4.756864285407633
1569406555872648.0,6.703029510316754,3.8037055820041483,1.2056428023865438,1.102497117204627,1.504531040902971,2.246770609082545,2.7274845940180352,4.790193877058942
1569406555872648.0,6.777498757155105,3.842123260220561,1.1997924128035575,1.089790739044294,1.5203958107873825,2.2558893681298082,2.7037678733345203,4.829519603911152
1569406555893581.0,6.851488349424553,3.8787631597352834,1.1978717765566322,1.0761481617864985,1.5382083224913408,2.2711516443289796,2.683063156495727,4.864705249761263
1569406555893581.0,6.930854579148566,3.9148877699374873,1.1988303537833556,1.0604321689033582,1.5558736788843233,2.291916840625412,2.6643758750910154,4.88456395179743
1569406555900551.0,7.009103299586351,3.9524954533972014,1.202459953630089,1.0434417198676433,1.5667751870966373,2.307605696563759,2.650480880946118,4.885750137259524
1569406555900551.0,7.08457388418416,3.9930476526192478,1.2066593483992691,1.027193296957019,1.5682187971789183,2.3070630666593903,2.639359537203751,4.884275471606898
1569406555916515.0,7.146057101842754,4.032153946598451,1.2106649377644076,1.0092934797724487,1.5681521690426505,2.296259799283156,2.6300125394168155,4.885951495577743
1569406555916515.0,7.205720172169448,4.0725051416729015,1.2165266475708467,0.9900925453026074,1.5713490012564608,2.2880373639268017,2.624923906172468,4.876818808124794
1569406555918496.0,7.274013992134163,4.118298064050907,1.2238990609413405,0.9721375479103369,1.5758356576244668,2.283843832739942,2.6260272661156607,4.863054706029672
1569406555918496.0,7.35472924451674,4.1702428649265455,1.231710901509313,0.9567538757320673,1.5816207502289676,2.2789041302950444,2.6311137808020413,4.850500693780014
1569406555931474.0,7.443257675494373,4.222630997817524,1.2379048260483705,0.942574471528966,1.5897300615925287,2.2709998623034746,2.642299093934998,4.836984219025008
1569406555931474.0,7.541289936571735,4.271645324615144,1.2420447672103494,0.9309854043335388,1.5963141813915218,2.2599784749876886,2.6627599595423987,4.825217218819819
1569406555933187.0,7.637908193068882,4.314906536273485,1.247126512022188,0.9222571000813581,1.5974639744047927,2.248508071287355,2.6911386200306264,4.824278202470113
1569406555933187.0,7.7343165403415295,4.358405814983922,1.252610456742858,0.9153192871318694,1.5961516945692744,2.2426969968785673,2.722262489225673,4.835992934651681
1569406555954383.0,7.825923609101465,4.404524638837679,1.2545936029657185,0.906687968463765,1.5913742389806673,2.243851100712399,2.75199318312524,4.847897839680716
1569406555954383.0,7.920929108140635,4.453743363552968,1.2538823840786728,0.8945046982484163,1.580050104497938,2.2491347519036737,2.7819815235922123,4.8501043099285415
1569406555955141.0,8.023941870072445,4.5058681551651665,1.2542510585712203,0.8814977978501312,1.567666942721389,2.258492260954843,2.8135355801465356,4.850403851943134
1569406555955141.0,8.137319966453822,4.560742130149521,1.2539833294222253,0.8711138343957384,1.559364626754479,2.2720362978882216,2.8416792219546863,4.851399344568646
1569406555976356.0,8.251595513691443,4.616279265316375,1.2473484589536088,0.8597370623739158,1.5541619818263614,2.286827906110953,2.863400794862786,4.858590984132529
1569406555976356.0,8.369734892168811,4.676029052620001,1.234655414639748,0.8445043045506898,1.5511938345867058,2.298921386582015,2.8804864075674548,4.876459965699899
1569406555978066.0,8.487791405569261,4.739177770965976,1.2223374987440083,0.8281666307766445,1.5503527273576936,2.3082283814409283,2.89804018923532,4.89549820098987
1569406555978066.0,8.606617135765461,4.804141245709783,1.2149625152013779,0.8138729736570333,1.5517839494981347,2.317772127360689,2.9171893029287905,4.905943774410498
1569406555991311.0,8.71755131370067,4.867781788499921,1.2128120363231636,0.7997556120613929,1.5544460972252128,2.3266209804376476,2.9370731346995735,4.902933243222743
1569406555991311.0,8.818609648593418,4.927223037840807,1.2145335669478525,0.7848551999271987,1.5564739789453985,2.333796761453068,2.961721337000421,4.8847816572965055
1569406555993026.0,8.908367820000297,4.980265267256146,1.2188757944884652,0.7685900048055292,1.557683858876586,2.341254734794495,2.992318015102534,4.861350544090648
1569406555993026.0,9.0045663430308,5.035620148567402,1.2247669743582419,0.7519721016052657,1.5611892620767538,2.3510460044702794,3.0259580846903202,4.83547706941148
1569406556014253.0,9.110178341691517,5.097901109319949,1.2313102200801473,0.7368662214687455,1.5661919614985975,2.3652483742296933,3.063711224592478,4.804654893504986
1569406556014253.0,9.223335902892973,5.164734608663415,1.2396325042203633,0.7249622771273382,1.5641441095778752,2.3801764191782406,3.1026886366090483,4.768732899233543
1569406556016014.0,9.331624830106172,5.2295202573447765,1.2491844743213656,0.7164090413742566,1.5494498730216173,2.3850582710867765,3.1351182206934305,4.733806685565575
1569406556016014.0,9.437629842112887,5.294459567617233,1.258005783582197,0.7115729921904285,1.5283794196420757,2.376609829032213,3.165145210331745,4.7087037660561135
1569406556035911.0,9.541941873910107,5.360216947768427,1.2654885105496418,0.7104646489477751,1.5095442648980122,2.3632389476923423,3.19878025384501,4.694120793363118
1569406556035911.0,9.641141756581332,5.4231073136325785,1.2728397009119892,0.7132029274807958,1.4955085745570553,2.352916822136088,3.231209646190133,4.675871575579421
1569406556037905.0,9.72626862969704,5.481176455638707,1.278801283168993,0.7186884505062674,1.4842692411578722,2.346787722472018,3.263575871162361,4.648242914562671
1569406556037905.0,9.81445445380686,5.540925811343374,1.2832898238361483,0.7258321842362202,1.4749713784778902,2.343962403112412,3.30292432510557,4.623310426701107
1569406556051155.0,9.914050211078331,5.606195951331806,1.2894340797233101,0.7356644642325095,1.4684330558612302,2.3454225279041365,3.348358066905841,4.606207615505463
1569406556051155.0,10.02613963260057,5.6785132850693465,1.2977570710818331,0.7479550078174653,1.4658728370098257,2.3532866326726958,3.3941730900888225,4.588748167430634
