timestamp,emg1,emg2,emg3,emg4,emg5,emg6,emg7,emg8
1570178465050793.0,5.393156357574918,1.8988848344306783,1.4374178499610444,1.7902480619849976,2.0762064577535666,1.125176674160715,2.542715934700328,9.528698872311162
1570178465050793.0,2.975709103138587,1.802928663198845,1.204042855986712,1.72983604512569,1.5032579759965052,1.093119705749098,2.5650155798177834,4.538469134265098
1570178465051791.0,2.985576294166605,1.8048885487449686,1.1766787200172373,1.696639870708082,1.528826109560718,1.0997226039755472,2.5731744195476187,4.489548626011573
1570178465051791.0,2.2137674858562995,1.7791717554173254,1.108392302245224,1.7390203520490997,1.3721689223097806,1.096508382365212,2.5942945840438574,2.8643607352968616
1570178465056801.0,2.258169475641681,1.7829149523316425,1.1076979953177293,1.7145840085708028,1.3958798760745628,1.1051475594377858,2.59830534099111,2.9207079801149893
1570178465056801.0,1.8421653626054366,1.7661340158694623,1.080611777360872,1.7521712184507157,1.31389599530575,1.1056101201074127,2.6035853937362754,2.0539878284641855
1570178465058772.0,1.906349541447653,1.7657709406825213,1.0889063530068102,1.7302961308836793,1.335485711417858,1.1111036804992884,2.601888661932167,2.1700610767702315
1570178465058772.0,1.6486585574802886,1.7516226539350421,1.074853049232614,1.758562403893019,1.2838060826795696,1.1116139534862435,2.6084736770893686,1.6666108900711762
1570178465061764.0,1.7131389754213864,1.7483183807246894,1.0807650217360143,1.7366397241373392,1.3015664100221358,1.1186926797604693,2.5961826537194064,1.7873268007487828
1570178465061764.0,1.531996125565351,1.734393620635173,1.0714260612061064,1.7592433437024508,1.2664736006111112,1.1241543041396114,2.5794053531345003,1.5000483017640047
1570178465077721.0,1.5880635154478684,1.7310612977278677,1.0800875858909413,1.7382291187458645,1.2852447768437434,1.1342822643299917,2.5541045327796805,1.6165472501183022
1570178465077721.0,1.4557835496831968,1.7197407013038761,1.0767947259321788,1.7534812783054021,1.2613397884786224,1.1413085743780356,2.5365477335437214,1.5011670674266566
1570178465093680.0,1.5098586481138954,1.716004996013032,1.0885101024924573,1.724440445118841,1.2756021774699051,1.1518623038243185,2.5135757872462294,1.6199801935340628
1570178465093680.0,1.4181913214838655,1.7053456418701427,1.092329358664412,1.7274825910588971,1.250883003684764,1.1610352725389796,2.494922053609743,1.6233013964257865
1570178465096683.0,1.4710702051154487,1.7027557152528163,1.1074020995029903,1.6948010094065225,1.2601070594201875,1.1737754328432215,2.469057666352719,1.738562883149591
1570178465096683.0,1.41078934769851,1.6969966833381205,1.1127845362833562,1.695508254425987,1.2409023998027935,1.183254431765628,2.4465684736209425,1.8198360987996098
1570178465109732.0,1.4679862171833984,1.6999081078037699,1.1273865533128247,1.6659745383555993,1.2539146842609514,1.1959286620249017,2.423523007144049,1.9381265971469468
1570178465109732.0,1.4357815086924262,1.6976473580591276,1.1360922219494909,1.6687959160983756,1.243795357858401,1.2085695223657302,2.410984362706331,2.062367308849521
1570178465125776.0,1.4966934515433326,1.6983542188695524,1.1538183170863001,1.6459867482473538,1.2602138434917058,1.222824366638762,2.4011700699593708,2.1800833196424003
1570178465125776.0,1.487109853454753,1.6919348925777074,1.1652667329658024,1.6492945693590635,1.2546224471201661,1.232525541737459,2.400206945177474,2.3199464813851534
1570178465127588.0,1.5520442368257656,1.6880156091646354,1.1804552581383192,1.6266850940671451,1.267840225179057,1.2437352110965465,2.402303229289011,2.4293763675821785
1570178465127588.0,1.5528385270946252,1.6807302705404967,1.1866099108950299,1.6319277821134932,1.257719865583186,1.2565587025618714,2.408857787665039,2.559381084672056
1570178465144542.0,1.609820842111862,1.6784943877881264,1.1969033835669893,1.6144072314332942,1.2662298261652019,1.2741078433453066,2.409482301292702,2.650875034933511
1570178465144542.0,1.6140783728383514,1.6712045425255586,1.1991305381781452,1.6192978963957951,1.2580981340922215,1.2898243659405122,2.414312218353865,2.771931112186987
1570178465185433.0,1.6670089706837603,1.6673436230609058,1.2061546589343106,1.6005780025032548,1.2689874171436353,1.3066242795698564,2.42280484425738,2.851622807085877
1570178465185433.0,1.6741946376227381,1.6606975879851265,1.21075995664028,1.6018403990975145,1.2644619580773706,1.3215230852690383,2.4340504542612162,2.954609010738611
1570178465186431.0,1.7251285742675664,1.6578626572900936,1.2219439223261812,1.5825338108585287,1.2760591614535948,1.3371711102943833,2.439183204397986,3.0197511705562916
1570178465186431.0,1.7372716536379544,1.6534632462480796,1.2272793453877584,1.5849185630675522,1.2706844662102383,1.3542764304547183,2.4451791800703013,3.116855658823566
1570178465187428.0,1.7862432091880998,1.6551222449901333,1.2364713089050765,1.5679547663672275,1.2766300221713283,1.37736660336147,2.4539150203589766,3.1848061868840576
1570178465187428.0,1.8017839883645437,1.6570080552485416,1.2426094569111747,1.5686810903874935,1.2681531036947844,1.4016918326340586,2.465835931059957,3.2759328335569418
1570178465190420.0,1.8504288038088565,1.661260516938609,1.2506886850053778,1.551115457235653,1.2733914067980916,1.4256649009997853,2.4731265889456697,3.3296095010471274
1570178465190420.0,1.858992751083799,1.6586811513713078,1.25004218946528,1.5530365565530029,1.266001495956479,1.4453783513582656,2.480523881834209,3.4023548818605835
1570178465190420.0,1.8929467356582153,1.655948408979105,1.25177009855487,1.5405670182006934,1.272145150505757,1.4660448163836277,2.4858138784633352,3.451017802515854
1570178465190420.0,1.8982301597476696,1.651340884678513,1.2495398880294217,1.54750923136396,1.2681611104405364,1.4882071703335567,2.495765002501139,3.5279570601588595
1570178465204386.0,1.9324628423120491,1.651993634289287,1.2506828344533332,1.5375901146952182,1.2780009479413166,1.514122979063343,2.511278515911516,3.5846519217561497
1570178465204386.0,1.941355020386284,1.653060859035824,1.2495975571000875,1.541960370240234,1.28166117701789,1.540379248368219,2.535999199354575,3.664333712515612
1570178465212362.0,1.9807526644792937,1.6600768857349404,1.2531142290972042,1.5304213315475244,1.3008963672901266,1.5657939957014382,2.5609900455562946,3.714727064824717
1570178465212362.0,1.9981509850923114,1.6685086879700304,1.2518861953836544,1.5323586639910394,1.3138067935936424,1.5865250649176557,2.571511690060952,3.7527903326102803
1570178465221338.0,2.036035467023014,1.6797988463071618,1.251385151550291,1.5180671148767517,1.3362808044266214,1.603004730135916,2.561902722985419,3.7429881749711282
1570178465221338.0,2.05012658068528,1.6879000650205453,1.2444509527082304,1.5196648923615468,1.3487668133600688,1.615866752469063,2.548037168355049,3.737141095477837
1570178465235301.0,2.087346634660339,1.6973267050574947,1.2392355896121259,1.5089940219662188,1.372833689767007,1.6308695536195446,2.536058677058061,3.7244916889952635
1570178465235301.0,2.099961544783539,1.7040228353227571,1.2328411046135415,1.5138323879449453,1.3916747458330065,1.6429248218831916,2.530201168364538,3.7341157003511
1570178465250264.0,2.133138394968617,1.7116376933650477,1.2317273075324258,1.5054852417437405,1.416889906439203,1.6422967624687907,2.529493466671468,3.7414787802592895
1570178465250264.0,2.1475202344977387,1.7156871687190165,1.2274354226431359,1.5084920367129355,1.4250221695802683,1.629195052033122,2.537734683112319,3.7672895948369
1570178465251257.0,2.185261946326424,1.7203560930621666,1.226541798773821,1.4975977196020642,1.4342017541282384,1.6148707834829283,2.55257442868458,3.784319613590996
1570178465251257.0,2.204594548519917,1.7258231819208614,1.225112617423814,1.4983696811116796,1.4323087522229303,1.6036513263028036,2.570452886324223,3.8192632719242705
1570178465272201.0,2.2402560991608618,1.7373097228864538,1.2268010635412092,1.4814239991764506,1.4375110725322073,1.5924574171043908,2.5846983366005585,3.8448537055266616
1570178465272201.0,2.2488324578917296,1.7479627189084752,1.2266286755226798,1.4745265776751124,1.4324507854513127,1.578132044766174,2.603485832295159,3.8832112189870607
1570178465273285.0,2.2688377214358924,1.759817895973515,1.2299118245158405,1.4562917277798186,1.436391743310757,1.563745106287309,2.629128633624585,3.9058960592422864
1570178465273285.0,2.2664235356635056,1.768897079105611,1.2297900242125968,1.4494733396101447,1.435465656128374,1.5489516995463852,2.6587014081518374,3.941085017817383
1570178465296140.0,2.2838182153641706,1.7754620026515802,1.2316740254938394,1.4280181714780635,1.4434610451688554,1.529807878086287,2.688548317488174,3.963321987782163
1570178465296140.0,2.2846491321711726,1.7771879592729856,1.230645137588516,1.4166078233384185,1.4411252265077215,1.509052532188056,2.7210626272867655,4.000423622772721
1570178465296140.0,2.308409051695473,1.7821087560241193,1.2321794739427994,1.3930728366317842,1.4446636600615643,1.4903786987778769,2.75616990213209,4.030771520744449
1570178465296140.0,2.317812092087473,1.7895827367683383,1.2325265668052006,1.380641625403149,1.440401773457126,1.4718434963306195,2.79364144385063,4.0774765992897395
1570178465309103.0,2.3466407308999737,1.8016272639893698,1.2357987872174852,1.357194263366289,1.4417474965132255,1.452118304408787,2.8312605428565587,4.116692982376907
1570178465309103.0,2.3572201735155804,1.8132408342214497,1.2367838919103924,1.3465078522825797,1.4308300898367128,1.4341352992778125,2.8707295742901335,4.178188142393386
1570178465318080.0,2.3830525826453104,1.823399609496314,1.2384908125968548,1.327792862327476,1.4248026088819525,1.4197136934592218,2.9115050404854523,4.235963483922085
1570178465318080.0,2.3862091626674555,1.8268999734931435,1.2358414174605363,1.3232779936486176,1.409743329254888,1.4071764689211326,2.945665981554155,4.302991910151197
1570178465332633.0,2.4005689409611426,1.827840927382352,1.2321460814239902,1.3132095507390913,1.4011426787252752,1.3942502305144666,2.9581607654081874,4.34773188885232
1570178465332633.0,2.3923521686333338,1.8251270646601219,1.2235676738891197,1.3157960351349898,1.3836397632096213,1.3810971692331837,2.959826182253015,4.394028823019736
1570178465333363.0,2.399749058909724,1.8235927501661608,1.2164773847750054,1.3061517367166378,1.3726452122732238,1.366411822528177,2.9583264901267587,4.425339280982836
1570178465333363.0,2.3901831299081207,1.8202900551134302,1.2073218070920384,1.302808368310054,1.3547850619120483,1.3502165412167713,2.953591146525597,4.4556014047368295
1570178465356021.0,2.397639313762694,1.8146923843527696,1.2009559553484772,1.2904330043571928,1.3447815344525638,1.335050403498847,2.946763851772163,4.462982852525844
1570178465356021.0,2.3814787244450306,1.8036652702772833,1.1954227480904043,1.290076218831206,1.3267559829857996,1.3214393676922693,2.9452053575939288,4.470213736775469
1570178465356976.0,2.378544013861156,1.7940387005196192,1.1955468901024977,1.2828904608377836,1.3148114598618261,1.3059784680146553,2.948149492146947,4.477116971536543
1570178465356976.0,2.3607926023855716,1.7856986924160214,1.1958628102751967,1.2851543088025554,1.2968730345031487,1.2906565074180845,2.9533103843002717,4.490023339073173
1570178465369941.0,2.3636347300573153,1.7785634295415715,1.1972806244671088,1.2771314440663664,1.2877919775067073,1.276300062248074,2.9558075116831257,4.493653474947685
1570178465369941.0,2.3521629452632897,1.7672365425751213,1.195047040925314,1.2757244471563682,1.2716570067585515,1.2611797694393925,2.9611159842160957,4.505568001507263
1570178465377918.0,2.3620421844766284,1.7558068214399485,1.19163773472184,1.2643408570248487,1.2617144637461821,1.2457237632956446,2.9699728069303495,4.514817338011373
1570178465377918.0,2.361379724613326,1.7437886795323532,1.1836670569761276,1.2602727762257213,1.2455305584754397,1.231224197965555,2.983896862651934,4.519336562010885
1570178465392878.0,2.380243447641804,1.7340321335718782,1.17737185459005,1.2482127452238128,1.2375332744312009,1.2184070773708782,3.0039277898589125,4.522917789782969
1570178465392878.0,2.384045851645447,1.7226027290910924,1.1715575757545917,1.2446646865428999,1.2255111855619565,1.2058190199212315,3.024962387662347,4.522460801601228
1570178465393877.0,2.4028451690919903,1.7127938348501477,1.1712029070456584,1.2346696017771674,1.2198885348336923,1.1908252686101772,3.029660021733435,4.505761396725373
1570178465393877.0,2.4071291242502797,1.7042314512236942,1.1721769881812176,1.2350286952938825,1.2079980408585835,1.1754803834200427,3.025888478295892,4.488835158128887
1570178465415818.0,2.426669335297204,1.6976926261045602,1.173635724879843,1.230034271528914,1.2029498008221289,1.1604319016658322,3.022910760969739,4.475276904628053
1570178465415818.0,2.433062673087622,1.691345373410519,1.1722995155980367,1.2348502165943922,1.19401772127687,1.1469906387915392,3.0264139018499443,4.450456449940609
1570178465416815.0,2.4515208967961333,1.687446300019944,1.1734419248874883,1.234681155888749,1.194532134441105,1.1349699154580764,3.0276599418177805,4.41015311181544
1570178465416815.0,2.440242827003225,1.6797618080920758,1.1752553813523223,1.242688926270023,1.191423925107146,1.1236684031806161,3.0165999811416366,4.359504826091557
1570178465437758.0,2.4338988166915914,1.6713511842220214,1.1796632200405173,1.2445724512082654,1.1936456915629854,1.1127517992390732,2.9953274584564586,4.315757219604583
1570178465437758.0,2.4104357386774073,1.6638146077832396,1.181900952643941,1.2542413173550078,1.1910386894374454,1.1015325353438916,2.9756793140050943,4.278835789179403
1570178465438757.0,2.4023406562455714,1.659031827763638,1.1852562570911054,1.2576700416025814,1.1930889791506603,1.0885628436729022,2.957319744246767,4.250846565024051
1570178465438757.0,2.3800545136714453,1.6541471977549074,1.1869073639490841,1.2667335463750216,1.187059265202158,1.074919911767695,2.9436541733742967,4.230817482890546
1570178465452721.0,2.3754862070522016,1.6527386121914347,1.1903194683820137,1.2674885056339291,1.1857421450106507,1.0613467814335984,2.931023923545212,4.222598975531541
1570178465452721.0,2.3579571155086945,1.6536486556716266,1.1936327234784696,1.2727633746010438,1.180073988400294,1.047114347929756,2.918805574274897,4.214997095161193
1570178465453757.0,2.356764701021404,1.6574748792233844,1.1988696259511875,1.2715195242073125,1.18001080206876,1.0317614973808846,2.9038491183140405,4.190196885800415
1570178465453757.0,2.3385192730385835,1.6582355511820943,1.202444635734627,1.2775667009862754,1.1740886641156687,1.0174637280984866,2.8934192105777905,4.130983037870351
1570178465475731.0,2.33143345586821,1.65524319964297,1.2058746392972577,1.2777503409087294,1.168795050689962,1.0041207221967499,2.887465098177224,4.0665731180516875
1570178465475731.0,2.3063582412925903,1.6481172625489584,1.2083945354309737,1.2842593288036228,1.153931171342296,0.9908785735874752,2.889465212482175,4.011111408427907
1570178465476656.0,2.2953578270906596,1.642256608924477,1.2126823762406111,1.284972064001777,1.1430282983639144,0.9784868243922267,2.8990025313320578,3.9657699448725454
1570178465476656.0,2.27117085312943,1.638145666469939,1.2145023303568836,1.2922249401182675,1.1286830125201248,0.967159230115382,2.9070728571782904,3.921525015357175
1570178465489619.0,2.262347554563072,1.636949719600133,1.2174562524968016,1.2936216825696343,1.121718988534895,0.9557137998898929,2.8947198409058914,3.8804141560882845
1570178465489619.0,2.2401287662576346,1.636579785430728,1.2210171960644727,1.299467152483458,1.1133055066354305,0.9462123062369756,2.8714229646053524,3.8472876147700137
1570178465497774.0,2.232786108655832,1.6391910032932524,1.2277276809321658,1.2977448952468418,1.110644044296922,0.9396618573160186,2.84756611707035,3.8252020313496633
1570178465497774.0,2.2131585813339303,1.640393457540572,1.2337407896425432,1.3019193163511986,1.1020241071453822,0.9340893469667754,2.8228734115361864,3.8085265221556415
1570178465512560.0,2.2105681937790482,1.642060896771909,1.2395791873763762,1.3021160080102012,1.097219339458831,0.9294814326040447,2.7886179684485577,3.7945882389374033
1570178465512560.0,2.1974589019002235,1.6444530832837783,1.2430229229896324,1.3080516751173996,1.0887985548992436,0.9277920368103727,2.753645043646558,3.7906014060887454
1570178465513556.0,2.197005491991259,1.6490108158681847,1.247376281246031,1.3058918829923976,1.0860503188019932,0.9289758419296511,2.7219700025385483,3.794944334327724
1570178465513556.0,2.1832294025428682,1.6541822520792402,1.250670856648467,1.3071535758829873,1.0801351722687091,0.9308105719995775,2.69375354117292,3.8143263245024537
1570178465535497.0,2.1850750975435584,1.6616365183297712,1.2555546743068606,1.300036905683635,1.0779791752836168,0.9314260647879893,2.666795042188933,3.8368726247748746
1570178465535497.0,2.1751185409904776,1.667745209146778,1.258304840113479,1.2956449749400287,1.0715163308323132,0.9308144467388991,2.644498834043499,3.867415715717841
1570178465536524.0,2.177475088337861,1.6721680858505603,1.2591303902530289,1.284034170658824,1.0701481452365755,0.931113355412392,2.620504479598038,3.9002249381969265
1570178465536524.0,2.1681577106162404,1.6745268787002996,1.2588651084601112,1.2780534817475504,1.0656037758708985,0.9310036448703891,2.594383602498321,3.946158134768724
1570178465549462.0,2.1684586390666376,1.6797888994133072,1.2625049711427028,1.267314790607566,1.0647848223799357,0.9298828440649988,2.562068406378197,3.98827741825455
1570178465549462.0,2.1532988839285574,1.6867575527430398,1.2672304154881706,1.262897356203054,1.061847205968401,0.9295746060868507,2.530924256297246,4.028163688999653
1570178465557467.0,2.1482331659379503,1.6952429163104101,1.2742341922808509,1.252398149611067,1.0663944087147155,0.9301431553887933,2.5028826853469983,4.043742455280074
1570178465557467.0,2.1302013278102487,1.7023720231546968,1.2807985124520065,1.2471037297981133,1.0712236057474716,0.9304227057756934,2.4768805635566213,4.055498794136823
1570178465572400.0,2.1245767304789167,1.708301028992363,1.2875221328689157,1.2368477571176317,1.0795179199272518,0.9317680515235373,2.443218250043295,4.0645028397399106
1570178465572400.0,2.1101734965664107,1.7129012321651096,1.2929036917374437,1.2316004656471782,1.0822287703247535,0.9337275793288292,2.404597553740106,4.0835126266378925
1570178465573396.0,2.1099593477919605,1.718155882865139,1.299160813636495,1.2201120048047671,1.0885224501702138,0.9358166931244507,2.3640160910784163,4.100372864564365
1570178465573396.0,2.100139945459574,1.720545262105715,1.300684648902499,1.212811713966964,1.0928818029372267,0.939916634319322,2.325913500472787,4.12136639725683
1570178465595338.0,2.1006662716836364,1.7227472340085195,1.298569227998855,1.198504193277042,1.1013868147345116,0.9478963306636593,2.289708323170397,4.129187903014427
1570178465595338.0,2.087703083546313,1.723910270118895,1.294220772512968,1.187565027841119,1.1060069411831566,0.9568252097284465,2.2611438993916586,4.1300041312767934
1570178465596361.0,2.0832026745250274,1.7226946263297207,1.2921684883299016,1.1710338632364572,1.1108410074849708,0.9644388244283649,2.2385557154973537,4.112111232891534
1570178465596361.0,2.068938014061158,1.7169114293246013,1.2902358632877253,1.1610118317798195,1.1105297409020873,0.9718875266841472,2.2229177090939425,4.100558408842736
1570178465609299.0,2.067642652191042,1.710363846844419,1.2871562439560247,1.1483717011749535,1.1123801560862614,0.9812968318706564,2.212186733273851,4.094051906542344
1570178465609299.0,2.0600608300684744,1.7038741533854065,1.2797510619400836,1.1432749588589448,1.1112365915132365,0.9909403804353608,2.2077798011288396,4.1062878421613584
1570178465617278.0,2.064822151947842,1.699377901079402,1.2714148102586817,1.1347424867127207,1.1140613530048529,1.0004344614059124,2.203015876645816,4.118713418618426
1570178465617278.0,2.057716655153072,1.6946973418752331,1.2607685389597028,1.1330200856518207,1.1140254752511538,1.0095618373331856,2.200176423192725,4.135925848366774
1570178465632238.0,2.0564413913260475,1.691052957983202,1.2517875319382517,1.1296576683433766,1.1172070330392772,1.0197984665603392,2.2007151428755742,4.149675651408015
1570178465632238.0,2.0426801665555896,1.6873815063120885,1.2439096140618149,1.133450908347,1.117194455499104,1.0303994908312875,2.2076079316737864,4.1790438467456825
1570178465633339.0,2.037145330831911,1.6845020959902741,1.2385710659885152,1.1354611670033268,1.117740638223717,1.0409376434906032,2.2183385517675793,4.206046970673769
1570178465633339.0,2.022296205580472,1.6803188130971582,1.2339294502412868,1.1446651141392428,1.1112410228006961,1.0510938791675992,2.2289711143226256,4.243930588048028
1570178465656208.0,2.0176353722081566,1.6765222361951095,1.2321416943491164,1.1505635931688536,1.1052635686958703,1.0615586649330635,2.2342922417707736,4.282582340067175
1570178465656208.0,2.0066351092861496,1.6701321790072632,1.2318860249058932,1.1599856243765825,1.096445618221222,1.0738141412670956,2.241032956099188,4.338326500804974
1570178465656278.0,2.0081156808873954,1.6625626951028705,1.2347831878447053,1.1639950861192725,1.0913207382443453,1.087533276439768,2.2509952884066013,4.379259347041789
1570178465656278.0,2.0021761698911944,1.6550324355032155,1.2383976250558943,1.1733545648822759,1.0847645335334002,1.099426959980227,2.265385443601737,4.407330967299388
1570178465669140.0,1.9999593724712978,1.649906380642886,1.2429905302031932,1.1800359695508433,1.0812853874325747,1.1105040285556813,2.277669223601471,4.420787679472542
1570178465669140.0,1.987146160123061,1.644348932100934,1.2441596961308932,1.188119493329487,1.0729443890869779,1.1210931288510464,2.282841279936643,4.449348128310675
1570178465677466.0,1.9870079560624327,1.6387064203530108,1.2454129187356018,1.1874604403757343,1.0672706976089106,1.1294632699970626,2.2802792186447665,4.478050592310361
1570178465677466.0,1.9845179686189938,1.6318101651156371,1.2465820347621963,1.1875558276079017,1.0609307065210198,1.1338033335990023,2.272414654297496,4.512602521021992
1570178465693076.0,1.9903059713126208,1.6232841930625108,1.24759949311349,1.1805078803671,1.059031309281808,1.1348440852020831,2.2568718540429646,4.529741136624954
1570178465693076.0,1.9871799196861457,1.6114005598838173,1.2460138763831468,1.1756192631232238,1.0556442821802987,1.1316073869045564,2.241265979515556,4.544529113773554
1570178465693145.0,1.9907499510423599,1.6003537097385372,1.2430576000067697,1.1644255970592805,1.05443831529948,1.1270214688509665,2.228820783898714,4.549028629483174
1570178465693145.0,1.9890363467385963,1.5911224006446125,1.2373240804924885,1.1553756040590513,1.0515254631046276,1.1242500732559044,2.219635309118264,4.565840123953315
1570178465715361.0,1.9971211011321721,1.584702738615953,1.230854900018859,1.1419765409025668,1.0541545938489094,1.1220605050128913,2.2088424444140844,4.58375711110827
1570178465715361.0,2.00247429826373,1.5781887787801256,1.2210064514945718,1.1339102711532338,1.0554405118127532,1.1194570823324463,2.19782306918557,4.61176983227196
1570178465716015.0,2.017089052879786,1.5704869392893523,1.2111478193312264,1.1221402818427884,1.0579849903207665,1.118692835306652,2.1879546585116367,4.632378426314798
1570178465716015.0,2.028466993046519,1.560103175021384,1.1997793189922186,1.1154746478334383,1.0585929226070352,1.1191426194219185,2.182273367627884,4.657067478218342
1570178465737956.0,2.051387628837714,1.5504145587851486,1.186392396575311,1.1069058817179984,1.0625801969548108,1.1211429109636677,2.1808147664814537,4.678149488843506
1570178465737956.0,2.077121421369509,1.5410832351317862,1.1705518541430358,1.1038411309635001,1.0643811586090304,1.12509853225876,2.185951667198884,4.7138425611156345
1570178465739024.0,2.1150197434363984,1.533978923046302,1.1570120988892085,1.0985413363936984,1.069102231088151,1.1298441422374372,2.1953073990147045,4.7459865807021915
1570178465739024.0,2.1488342044953876,1.5278630617240196,1.1448266985355262,1.0984326010537737,1.073209684156034,1.1311010257833345,2.2056990742983817,4.786482924430904
1570178465752916.0,2.179082423849017,1.5228256440820627,1.1341933297230014,1.0945400801437006,1.0793207368415272,1.1271167858557647,2.2110020928191156,4.8097008084645125
1570178465752916.0,2.191339955717103,1.51695433723222,1.1222360975710732,1.093689780812099,1.0817437531859808,1.121199639938274,2.2179728533984573,4.818071839964526
1570178465752916.0,2.2026178808361196,1.5116006871544008,1.1124366319599106,1.0884400512334018,1.083970680569529,1.1162476282819953,2.230288832899781,4.818742504494937
1570178465752916.0,2.2104418536900323,1.5068684874072389,1.103845461495491,1.0879298252830307,1.0822772864851036,1.1117246985678153,2.244970937362113,4.835500612809134
1570178465775855.0,2.2266080192191975,1.5043079910796546,1.0957719271158444,1.0874326007163055,1.0815504977012964,1.1078221711575313,2.2607964659770325,4.855263524698912
1570178465775855.0,2.240827428676824,1.504141285653691,1.0863964803301231,1.0935477074118798,1.0784976659804333,1.104143526971947,2.2842492780026125,4.887319890976961
1570178465776852.0,2.2603335773778315,1.5087290610425768,1.0781696945756154,1.0952319515095015,1.079257816444645,1.099878631645981,2.3078133229183586,4.905869465915895
1570178465776852.0,2.2691566284813662,1.5146618887670953,1.070488099625062,1.0996139067062805,1.0810262911052566,1.0939557341438662,2.320233557157771,4.91599771661615
1570178465797987.0,2.278380548261509,1.5215651400825962,1.0666935691535147,1.1016896170342554,1.0870255138156142,1.0868651358896202,2.32664543493664,4.9191751332100395
1570178465797987.0,2.2840261813459644,1.5294012731208546,1.0657737492619295,1.1072652521535848,1.0930409393619327,1.0796394581559718,2.340027072376577,4.934092981560433
1570178465799397.0,2.296976729844835,1.5393472332926774,1.0678947485367671,1.107783066146282,1.1004612806958973,1.0755734198245797,2.3577779698934704,4.949444806743534
1570178465799397.0,2.302192111627009,1.5486256826808527,1.0693971058695066,1.1092307711783562,1.1057060711248676,1.0758719494185867,2.3701616737763835,4.9757255945974945
1570178465812767.0,2.3090619100424234,1.5559147076384934,1.0701978776010928,1.1045078312837997,1.1153329952512436,1.0793885300694332,2.3660404697043074,5.004381748812917
1570178465812767.0,2.3123520000443585,1.5597186356527184,1.0703801336833023,1.102033728489843,1.1275059861170944,1.0848226535059478,2.3492158345439167,5.049343362126091
1570178465813753.0,2.324127623185177,1.5648501813356377,1.0718718838529924,1.0957170373053942,1.1425177543882683,1.0924308669119016,2.3282449377030656,5.100989177927204
1570178465813753.0,2.3343434966236463,1.5732129351536819,1.0730741844317846,1.091753716324452,1.153195832502987,1.1018081063215202,2.310607881683731,5.162843602055774
1570178465835694.0,2.3505253604373584,1.581492091355384,1.076382971354086,1.0849577992522408,1.163585246403625,1.1130637815429563,2.2975847683400574,5.202316639412348
1570178465835694.0,2.359153576502782,1.5837360808835845,1.081069660045478,1.0841897430924903,1.1719040581785534,1.1247194208425857,2.289876060003186,5.210912781835607
1570178465836692.0,2.372876093101326,1.5829123599025556,1.0889906623386865,1.0836810231101093,1.180327677823552,1.1361677995819257,2.283383514766983,5.1925734459989705
1570178465836692.0,2.384659663915094,1.581467747984977,1.0979566790038278,1.088258626999638,1.185297534240683,1.146118365873942,2.2797825285917717,5.175225686608515
1570178465858710.0,2.39843188115702,1.5801314437848888,1.10649660552235,1.088458876584955,1.1902789341799767,1.1532243987847193,2.2797040336807126,5.1573422990164675
1570178465858710.0,2.4037401983304063,1.5786057135701652,1.113597079579843,1.0902589639117026,1.1950721638151867,1.1577911254164792,2.282960272276685,5.145123998933788
1570178465858710.0,2.4144293983362934,1.5790560727079237,1.1205821347880158,1.0880525389576485,1.2040241030300254,1.1621204879504023,2.289263830046102,5.136698534653984
1570178465858710.0,2.4185011974701456,1.580240388178377,1.1258578869208895,1.088370199458334,1.2122012992822944,1.1655532940803495,2.2929913392183323,5.1314544704489835
1570178465872598.0,2.424746769046074,1.5828314748937675,1.131473396060037,1.0845454905265335,1.223350660232797,1.1655630449841836,2.2802062389986997,5.118562955548018
1570178465872598.0,2.430321527354781,1.5839888332726386,1.1367284628152177,1.0835948743023347,1.2350860245627204,1.1627358634492482,2.2588454084866187,5.11691857747379
1570178465873595.0,2.4495157364860765,1.5828515412343285,1.1422498665151708,1.0801723383210362,1.2495572055734456,1.1622751394757482,2.23919234713911,5.1258393119621415
1570178465873595.0,2.4720969953816074,1.5795151519481827,1.1444228868676558,1.0788017896413309,1.2638457619998886,1.165042840317444,2.222282739927851,5.1494722276432485
1570178465895534.0,2.5035705901140695,1.5755410428321879,1.1443254481708909,1.072435112148917,1.281213521123252,1.1678890254285454,2.2077598696874507,5.182738607248405
1570178465895534.0,2.5354024830226054,1.5695578019081784,1.1449792916685422,1.0695931949036486,1.2982491313087685,1.1679611913917567,2.199325378524348,5.227240643203661
1570178465896532.0,2.5724691079922555,1.5627922305336719,1.1492378855741334,1.0640455241145217,1.3169564983322974,1.1659317441165018,2.192334271403335,5.255992240380636
1570178465896532.0,2.596280811083118,1.5523443425170231,1.1550363205573753,1.06167109047333,1.334951468872746,1.1635366444380033,2.18184597658114,5.255469790464242
1570178465918474.0,2.6181609331367746,1.539564882878043,1.1614759020473804,1.057035254712633,1.3523622871764722,1.159722656174069,2.167573525350832,5.237791759221852
1570178465918474.0,2.6351213314203132,1.527126828407965,1.1665421169564836,1.0547119625296635,1.3618007699140846,1.1526384412882358,2.1541670345819983,5.211454159126916
1570178465919471.0,2.658239802168243,1.5178615200287422,1.1733900466975637,1.047053186998211,1.367012465873802,1.144659606844449,2.1384851588603677,5.171922109046618
1570178465919471.0,2.676548145860979,1.5115103013648163,1.1805435862417717,1.0412917386352876,1.365050188040935,1.1373435681079762,2.123275526688914,5.138717476982138
1570178465933243.0,2.6917890498044157,1.5080407480207152,1.1853954270720068,1.0333827501014698,1.3602073134813386,1.1296580100975646,2.1133978867424488,5.11026437932053
1570178465933243.0,2.6874081472951867,1.5049750228676404,1.1863582474817234,1.0282341659010268,1.3507335755245184,1.1206149816596929,2.1092328045167106,5.0761185152920785
1570178465933486.0,2.681907486626413,1.5035443919443103,1.1857113314011065,1.0155188115085387,1.3408939796553832,1.1124401236573551,2.104382171865523,5.037045482539854
1570178465933486.0,2.671661640088553,1.5041799329368346,1.1846565150449768,1.0022531865858528,1.328822601878156,1.106703815187503,2.099685859404108,4.999673887687688
1570178465955504.0,2.663674250801011,1.5058422808994076,1.184324733077427,0.9859590193672376,1.320182359326705,1.1023245526074772,2.0960322003390144,4.959039101084939
1570178465955504.0,2.6429978462004198,1.5044898844957482,1.1818906111191858,0.9740097183577024,1.3105054709204282,1.09819477623767,2.095676031434708,4.912710028569128
1570178465956822.0,2.624238792875541,1.5018386726554533,1.1807875852376633,0.9614294674531768,1.300885285803027,1.094491839067778,2.099157877920395,4.867874674986369
1570178465956822.0,2.5961450548085088,1.4996288910670224,1.1818285234443489,0.9538000129304766,1.2881075398075292,1.0920375807010223,2.107605509578817,4.830908355269726
1570178465978315.0,2.5726908839733866,1.4998814169390318,1.1837036010764863,0.9426033378277626,1.2785322796025065,1.0907057689761548,2.115842520437106,4.80193061881722
1570178465978315.0,2.5464784536243945,1.5020621333935122,1.1839140906570427,0.9332942489422541,1.2685892584538876,1.0873839559708338,2.119728786159721,4.781826187260865
1570178465979312.0,2.5303509711206633,1.5051121437073125,1.1821116865121573,0.9210001188752985,1.2606356401108287,1.0814973458663744,2.1189298895103192,4.7702838624472905
1570178465979312.0,2.507957989631948,1.5077718846424948,1.1758481143523258,0.9117169703040471,1.2482366159265201,1.0739732953484789,2.1162642537374463,4.771641298499652
1570178465992310.0,2.491293718888281,1.5125366145711863,1.1678426397458384,0.899562483951649,1.2340697706186123,1.06493355733467,2.110671123733874,4.7788171838343825
1570178465992310.0,2.469310080549963,1.5182093805331631,1.1596019839805158,0.890916376867772,1.2173497622131138,1.0552885167426935,2.103488799412906,4.790036855126813
1570178465993273.0,2.4531784244864205,1.5257052685832684,1.152580742938785,0.8811559675511766,1.2045175723360222,1.0460590445683542,2.096586525308588,4.806962721598484
1570178465993273.0,2.431591360841165,1.533880217258344,1.1469524298461613,0.8747424621598461,1.1907063573899672,1.0380779107000089,2.0926129234137743,4.831615608853261
1570178466016213.0,2.4197434507715507,1.542430477972469,1.1448137525604727,0.8667478364984308,1.1782013248135708,1.032289956226334,2.0898848545391524,4.848602857687849
1570178466016213.0,2.4045877064789787,1.5490707397139982,1.1439026375280672,0.8640646787991795,1.1632208138334965,1.0284303443628506,2.090152970921186,4.850138708878234
1570178466016213.0,2.39764447296279,1.5534429216328858,1.143638657871381,0.8619161325323857,1.1515101848037785,1.0254323300352184,2.094032125575769,4.843462360851918
1570178466016213.0,2.3891144922278125,1.557878897689063,1.1434954506499584,0.8636615996132702,1.1406196063529168,1.0202195566367303,2.1018402866761576,4.835100048824336
1570178466038154.0,2.387337949051303,1.5666852031733773,1.1457883687664363,0.8627143483396753,1.1327796278772557,1.0111484510366004,2.112702836233093,4.816498918198034
1570178466038154.0,2.376015606433338,1.5785541171071393,1.1492016368210178,0.8640221850440449,1.1233766494648405,0.9992777819218902,2.1289478292831965,4.793205361639552
1570178466039171.0,2.3702697217627406,1.5914941598452363,1.1542423735018976,0.863429669268719,1.1179860672157205,0.9866407313805373,2.1485285904556015,4.772593470016613
1570178466039171.0,2.3617473382402556,1.6023786723238758,1.1615569291240944,0.8639385020981389,1.1135142102080324,0.974989137790744,2.171288972915506,4.755650561078376
1570178466052117.0,2.362427259618405,1.6123794524090815,1.1710290329297202,0.8620188239675919,1.1110248249367174,0.9631831883045201,2.1974900648560016,4.742056587084033
1570178466052117.0,2.359220811018443,1.623095543457988,1.179336558345876,0.8646153988749925,1.1081441276028303,0.9482562235567454,2.222706429923889,4.723826580844055
1570178466053115.0,2.357893718226574,1.6332250190022835,1.187498478740074,0.8686640108126635,1.110404429371877,0.9323760092892167,2.23567680572324,4.690300375781893
1570178466053115.0,2.3468971287971963,1.6412224231921293,1.196140978394793,0.8785677592944876,1.113748338880872,0.9172836130934084,2.233277965267708,4.65318189468089
1570178466076091.0,2.341790699884419,1.6497873097103126,1.205062961731791,0.8873630028556478,1.118787103583811,0.9019943215766577,2.2182299226361417,4.614390043288711
1570178466076091.0,2.328605008147036,1.6533459869699356,1.2097525018495483,0.8942968444563268,1.1188631549073023,0.8874162279500597,2.1959536752576905,4.571695157042614
1570178466077050.0,2.3176530837556846,1.6497640571910122,1.2108546428891267,0.8961564809847338,1.1183063985457662,0.8734941587730288,2.1720687544812085,4.531136699050755
1570178466077050.0,2.2972952550647743,1.641778212571689,1.211481079787502,0.9010730664510879,1.1166852126396631,0.8591700933229259,2.1522264473712016,4.498759272827908
1570178466097995.0,2.2809642459921573,1.6321975257626875,1.2136945784274502,0.9060366616855005,1.1166401255340734,0.8455973373106129,2.1340995751950835,4.478153736967237
1570178466097995.0,2.260824491227697,1.62059057892183,1.2162746555048138,0.9127521482722292,1.1150623423839356,0.8335443982566227,2.114778638895653,4.4759667619245995
1570178466099988.0,2.2489398080826994,1.6075891252861572,1.2185841946578089,0.9173854344640414,1.1141981491973394,0.822049890875793,2.090871190080494,4.489390075576019
1570178466099988.0,2.233121149970306,1.5924942200497936,1.2168640712041678,0.9225317197652113,1.110092406917086,0.8111164497009312,2.066241427247691,4.517618879970862
1570178466111956.0,2.224350918988312,1.577998223231362,1.2122022429201598,0.9237618674026249,1.1073091332891645,0.8018474662622019,2.0428242596241053,4.549800542835589
1570178466111956.0,2.2090224143810397,1.564944160911417,1.2065019476866004,0.9260676530326286,1.1044971251727767,0.7940059335637478,2.0201132640325907,4.572484094579007
1570178466120932.0,2.1980707237826222,1.553611007536879,1.2023706705588462,0.9274291278554745,1.1045518636705307,0.7877302501545264,1.9966235532980767,4.576658021459601
1570178466120932.0,2.182589288425125,1.544272184132797,1.198577068457573,0.9316370304832344,1.1025743557333656,0.7827877065956902,1.97432786609873,4.572072775681922
1570178466136071.0,2.1724900631306894,1.539203291316557,1.1953777884015355,0.935740057141343,1.1002508374811035,0.7793410212592943,1.9526730106702013,4.55679770439224
1570178466136071.0,2.155160367876312,1.5349083712321663,1.1938141095184245,0.9424092914992493,1.0970382847590154,0.7771239229443211,1.9309280565753275,4.544287442550218
1570178466137886.0,2.1450421014955183,1.5289002099833204,1.1964779179788205,0.9481761305003178,1.0980688409304122,0.7763149037423902,1.9061389878310322,4.541568415121758
1570178466137886.0,2.1341314256331683,1.5206414519087081,1.2035268685669531,0.9569265917969892,1.0993880145962591,0.7766087248326866,1.8815139990490533,4.547263224463985
1570178466157833.0,2.131884393725903,1.5119641346200254,1.2159124042060745,0.9628975394372996,1.1023884801090273,0.778104392363974,1.8578812526587725,4.551967945129175
1570178466157833.0,2.1234544415433185,1.5022836140678852,1.2307248841706044,0.9668455913043478,1.10500463485496,0.7795127663650153,1.8343845029196066,4.558306942584086
1570178466159845.0,2.1181552051930583,1.4923089013376238,1.2463795838654748,0.9673659112359669,1.1107090889312288,0.781551507497178,1.8092607142963952,4.558797822866199
1570178466159845.0,2.109872644940504,1.4809503126989731,1.261139041177245,0.9710061416593199,1.1150655547386448,0.784833612365766,1.7860471635529829,4.559587360208461
1570178466180772.0,2.1083679218420768,1.4692426469534572,1.2733055622562313,0.9762511820216491,1.119999558356688,0.7896646623980621,1.7657040900858652,4.5625382094763705
1570178466180772.0,2.097499476344192,1.4579459245946207,1.2817946283830202,0.983400587351255,1.12391652810871,0.7965912928034793,1.7483729979333045,4.565080093081237
1570178466182767.0,2.0869794863026403,1.4480488077703597,1.2893904727494103,0.9850935282212387,1.1289702051033543,0.8052294847267266,1.7333129755560095,4.561974327890309
1570178466182767.0,2.06849894530754,1.4374937202015996,1.2947913919613543,0.9855626737870561,1.130945661536131,0.8133275712219549,1.721298062525768,4.558796769587776
1570178466203713.0,2.0511681402842346,1.4272546895841904,1.2982418368746902,0.9853158803275603,1.1337305454935018,0.8221313947193379,1.7126976003523855,4.548968699093141
1570178466203713.0,2.0285927773690076,1.4174480715529019,1.2989650122861756,0.9865163306054461,1.1366199557158365,0.8330357921643688,1.7086233423473376,4.536333404783995
1570178466205133.0,2.0158747882667822,1.4079233068377939,1.2968143216634904,0.984098591460882,1.1411254303286922,0.8456578587643148,1.7074361458284253,4.518504877661691
1570178466205133.0,2.0012223410288086,1.3977246138937671,1.2932876153676156,0.9834452210513086,1.1425427894047984,0.8588150696549853,1.7116608098219714,4.506166341293914
1570178466218710.0,1.9912244298354635,1.3863804576822139,1.2914011269251304,0.9836444456248586,1.1415326991628618,0.8740314216173245,1.7214659737135514,4.501694284135999
1570178466218710.0,1.9777802634365842,1.3720262234091027,1.2894054873552274,0.9864449610143323,1.1360613267442565,0.8909904624077959,1.7344114024667574,4.497887886783482
1570178466219919.0,1.9715671834278898,1.3575549011353587,1.2860822137626406,0.9874474007445448,1.130918984803114,0.9081386309565272,1.7487669939336794,4.475895279216982
1570178466219919.0,1.9642825364817624,1.344430582884377,1.278723732331121,0.9901357428323713,1.123763577383659,0.9223523024953763,1.7657531770574213,4.44288424488096
1570178466240612.0,1.963201984587499,1.3345594737963207,1.2677251756063852,0.9929717667170236,1.1173698131695224,0.9344194118496751,1.786298745201178,4.408292365677845
1570178466240612.0,1.9587781112903666,1.3275783977531646,1.2533359217518891,0.9984804919417248,1.1090188198913529,0.9449359808099803,1.8069990437898846,4.384573717228792
1570178466242607.0,1.9625089459208618,1.3234166984649347,1.237911469633364,1.002712764459505,1.1014485798850007,0.9534343610432906,1.824035592873496,4.370859398203717
1570178466242607.0,1.9668965435608727,1.3216060622078154,1.2227565525505553,1.0083617903075817,1.0918533869800302,0.9601066849216612,1.8424166882509607,4.367886703241504
1570178466263550.0,1.9760535990121404,1.3225238976560068,1.2106994056716744,1.0125892549252886,1.0830612761765006,0.9652776823652497,1.8624685878793947,4.364855378203591
1570178466263550.0,1.9809025696364346,1.324313441741458,1.2012866472904105,1.0183617196638963,1.0713392333072642,0.9683991292571877,1.8793657664417358,4.3666814461885055
1570178466264547.0,1.991842313736107,1.3271618755562453,1.1936929068388373,1.022123238878611,1.0582325536665007,0.972507989088488,1.8945162086203564,4.376070668225932
1570178466264547.0,2.0024388890118763,1.3300711967710763,1.1864286305019198,1.0252589058663726,1.0430008593640254,0.9783291066991576,1.9112363218466542,4.401570602164333
1570178466278512.0,2.0192848306959448,1.334084155006294,1.1814922000976982,1.0251145408707707,1.0312766747789794,0.9857055193579808,1.9304892984981339,4.431127064245754
1570178466278512.0,2.0347928031828095,1.3400542161732318,1.1778431048190656,1.0264570595788982,1.0205726870058165,0.9938124154000619,1.9536391506519368,4.467278055204955
1570178466279509.0,2.0542184919767816,1.3495335716695935,1.1750954672981624,1.027211980345742,1.012632476865774,1.001797841441073,1.9817244643856369,4.50336521705569
1570178466279509.0,2.068683031272739,1.3623854060327931,1.1722042391974765,1.0293575371149437,1.0049794761005668,1.0086829342232797,2.015431616705778,4.545306677491272
1570178466300452.0,2.082632643471422,1.3772355942354526,1.1698108204180722,1.0301170804782502,0.999331141122723,1.0151637810955199,2.0454294730127875,4.573735422190328
1570178466300452.0,2.0878910536962874,1.390648927451787,1.1669217387406634,1.0313731889151565,0.9925095122284219,1.0209629673533736,2.0588130845088135,4.586342511200109
1570178466302447.0,2.095532861148966,1.4020919249122803,1.164899720088453,1.0307576682388941,0.9886659009814992,1.0266084850357906,2.058004697245526,4.589428888430268
1570178466302447.0,2.1017555232292704,1.4101878652259368,1.1645365765207836,1.0322501745363208,0.9874201492891623,1.0319726848104036,2.0546956013380124,4.597082091636772
1570178466330372.0,2.1074464402241215,1.4151865448268257,1.166360398512243,1.029354142335489,0.9902439807786891,1.0385871851537933,2.05107350721586,4.597301233471635
1570178466330372.0,2.101548775158416,1.4178959936892264,1.1686661433542231,1.0220940204283624,0.9915857505104664,1.0464968213531545,2.046285576436893,4.594859578346918
1570178466332367.0,2.0926218689579965,1.4201082962042957,1.1721676357399995,1.0085673073080945,0.9931733349715464,1.055678847371323,2.043921269592736,4.579793333207799
1570178466332367.0,2.07571493141992,1.422517759541834,1.1756895616304568,0.9951918816772928,0.9959511713482762,1.065164629810372,2.046933386231634,4.559881735653646
1570178466337353.0,2.061125328063357,1.4272003458896296,1.1777274629536727,0.981845387581002,1.0030730271340946,1.0730476080589044,2.048726364473351,4.539243565819199
1570178466337353.0,2.04235906108661,1.4319479371209687,1.176476945736364,0.9725402491434924,1.01104672137278,1.078102419400955,2.0429227960805623,4.5301657095325565
1570178466344374.0,2.0255113579311046,1.4341862133042098,1.1729939889581067,0.9642496104657743,1.0205213316419233,1.0822654983568114,2.0332675555760833,4.523204811529178
1570178466344374.0,2.003734061490255,1.432283163294222,1.1667843182191313,0.958095737287702,1.0294711159390337,1.084973561699535,2.0262155641047475,4.523436976288478
1570178466360501.0,1.9860347102099913,1.4282306739458495,1.1610942305329548,0.950354414804635,1.039693098490919,1.0871944786348313,2.021041844194879,4.525009248976929
1570178466360501.0,1.9667458304482022,1.42492306604503,1.157463297543743,0.9458160392926427,1.0495322432146503,1.089956699443452,2.015016345467197,4.537514548675745
1570178466362286.0,1.9538767699650863,1.4249910853654753,1.1561922419713675,0.941819718491422,1.0599919442602423,1.0907860254166835,2.0075122085755837,4.557014327847708
1570178466362286.0,1.9435125467172967,1.4273907796943874,1.1569519845863698,0.9385654087283855,1.067984967401973,1.088018834701392,2.0015939799516684,4.5926161748417895
1570178466390212.0,1.9416655106858909,1.4310088267344607,1.1600010445424391,0.9344535756998978,1.0758707433329588,1.086225454249681,2.000270934733924,4.63511205979483
1570178466390212.0,1.9390647035277524,1.4337615652965325,1.1636977356011922,0.9345419901124387,1.082130912883597,1.0876318302438528,2.0032393050848425,4.690986224722462
1570178466398328.0,1.940700287316727,1.4353813556200858,1.168698267719462,0.9371914117482936,1.0880938210398627,1.0900397902194534,2.0073234537546285,4.744522726043327
1570178466398328.0,1.9382060794122846,1.4353892174230891,1.1740588988617155,0.9444856189732536,1.0941074575586565,1.0905697755309685,2.0125593051486614,4.798116909111185
1570178466399190.0,1.9383358509110438,1.4362123893995418,1.1774150907687506,0.9522859161584194,1.101790750124105,1.0904093968349375,2.02080911425525,4.8478325784473295
1570178466399190.0,1.9380899946435841,1.439194945268088,1.176517219935062,0.9622923171463836,1.1073324785569136,1.0900603009456487,2.031623416049672,4.910596502431288
1570178466404175.0,1.941120710436127,1.4426155832342764,1.1736373369862012,0.9737874777545018,1.111959873529078,1.0896690715108566,2.0409046190521103,4.972128262195175
1570178466404175.0,1.9425753812179412,1.4407913846349187,1.1669976153745099,0.986732576972035,1.1145949799157153,1.0885821086354803,2.0477595886448303,5.033821477003893
1570178466421129.0,1.9507907251092356,1.4343394180582714,1.1576595260411282,0.9950944058412773,1.1182235323371552,1.0850166914697412,2.0491041938601735,5.082481399712823
1570178466421129.0,1.9609443435830338,1.4278447995767134,1.1482332364684171,1.0025586958047943,1.1205376127954263,1.0779740377304103,2.0415303680950205,5.11940778730011
1570178466422345.0,1.9754970168205517,1.4245005878527466,1.1399866646923502,1.0107378192157552,1.1220085121560743,1.0707697836680465,2.0320486329256786,5.138466540489844
1570178466422345.0,1.9919752977951306,1.422476659785361,1.1334661603461862,1.0207313051875315,1.1213487646955809,1.0657405260243602,2.0283347271974903,5.159245120384471
1570178466443099.0,2.015538663814876,1.4193253246941173,1.1303793762277112,1.028299095166236,1.1217160472619507,1.0642611834984599,2.0278028464533,5.178062420262376
1570178466443099.0,2.037810839288241,1.4149252339183551,1.1287521230248716,1.0352545099844614,1.1198096860054312,1.0647249523871039,2.0276251009540576,5.194062365911388
1570178466445065.0,2.057227013262892,1.4115971859967265,1.1278844933615413,1.038453731033526,1.115406984686405,1.0641852316722162,2.0276910557169607,5.188778789174198
1570178466445065.0,2.067671159187677,1.4080415034046156,1.126955596418886,1.0391910910168036,1.1088196439733589,1.0615912024300165,2.0234263406751456,5.172873814650915
1570178466458031.0,2.076890340415604,1.4053170200623524,1.1264407025249876,1.0367106488830302,1.1035803554263686,1.0599552075919558,2.009029935269816,5.149876584841593
1570178466458031.0,2.0865449053032794,1.4037723745074138,1.125696788102209,1.035223842168887,1.0967603771848187,1.0601008001167254,1.9897491793342574,5.130978731744067
1570178466466103.0,2.101143595052832,1.4031220864766318,1.1251042374296325,1.0332240937034423,1.0917192167337337,1.0607940016146606,1.9744628809222324,5.11921398805977
1570178466466103.0,2.115326581328357,1.4026087028255814,1.124740548273616,1.031805961188767,1.0885718617947973,1.0611395885110755,1.9659833099424369,5.120735344168227
1570178466481004.0,2.1331982711188977,1.4027288800377045,1.1276450391571466,1.029496889449928,1.0877742057445265,1.0627896700509911,1.96145904956444,5.12331636991926
1570178466481004.0,2.1557415352939397,1.402749965420907,1.1330023106566336,1.0296952343652237,1.0861698019036936,1.0664994385141373,1.9589769250431635,5.138275721400844
1570178466482964.0,2.187536346316153,1.403942634699715,1.1360490785400748,1.0309064704438924,1.086112529688474,1.069350424420918,1.9593793764135408,5.158460201830479
1570178466482964.0,2.2183962318785877,1.4066838130680954,1.1350828073718797,1.0338501234741067,1.0872477771219613,1.0682282422804519,1.9638358361140138,5.17850249675392
1570178466504089.0,2.2445277279724,1.410510697357673,1.1341853120352376,1.0339609369434424,1.090772269179721,1.065629368815676,1.9733262414888786,5.184104324399739
1570178466504089.0,2.265894023154116,1.415772083161101,1.1344525630811186,1.0335311193504726,1.0948784130972125,1.0618248793364637,1.987972564702503,5.187773072361851
1570178466504906.0,2.288109258820699,1.4232375015326943,1.137589004234171,1.0313641947604795,1.1021260525768575,1.0564914370652119,2.0007729722015477,5.1857502267431865
1570178466504906.0,2.3071626372864795,1.4299321654094568,1.1450003870890053,1.0303656012955238,1.106548086110551,1.0507699637957082,2.006705639841691,5.179250301371545
1570178466517871.0,2.325640989635311,1.437222244036291,1.1563123293942488,1.0297872269048507,1.1057383795702713,1.0456776142091868,2.0127122294385003,5.1651357938126425
1570178466517871.0,2.336960257398558,1.446011284546945,1.1680518211903343,1.032006396189948,1.1014366645282343,1.0409357187589727,2.0218276184469235,5.147915756049257
1570178466524891.0,2.345771518091329,1.454711438806547,1.1801939631199563,1.0355063338772812,1.0989368940027506,1.0379248730478923,2.029143253113073,5.12302969524191
1570178466524891.0,2.350635331121152,1.463117182175246,1.1916736850105931,1.0409470111375045,1.0972395921847407,1.0368202640054307,2.0367396206180657,5.103365838612107
1570178466540810.0,2.3550788552244604,1.4722849429366833,1.2003282897895544,1.0429813921886102,1.098422301294353,1.037660160162827,2.0496339214103534,5.092772300774756
1570178466540810.0,2.356365739912356,1.4808285309624676,1.2067626161604657,1.0430784005436482,1.1004626604421002,1.0405932509619062,2.0646814768418253,5.096765775896533
1570178466542804.0,2.3581197997483687,1.4888014904269045,1.2136423792548678,1.0429804630393058,1.103002587653084,1.0437206469231608,2.0771406671768027,5.099289176166832
1570178466542804.0,2.358393792265289,1.4956817292667182,1.2210524414326984,1.0465957417674852,1.1037003772488687,1.0432697966831486,2.0902159376548424,5.104612803756189
1570178466562751.0,2.3615218044903448,1.5013462263320916,1.2289765997236461,1.0515305778823927,1.105980274893653,1.0402913169017136,2.108997377444932,5.115232408798494
1570178466562751.0,2.3613623228259617,1.5068654927739928,1.234131579436088,1.0600476180288465,1.1090466158031793,1.0369130233136312,2.1332736344519625,5.139755010818177
1570178466564746.0,2.36501536712502,1.5142735728633823,1.234544358604263,1.0692113335273916,1.112672520031401,1.0342800977481432,2.1632138701517927,5.166468679173571
1570178466564746.0,2.372635439705538,1.5206083509044435,1.232555309323474,1.0769730795841195,1.114856740520055,1.0330472867346827,2.1995182556474617,5.2005108778104905
1570178466577711.0,2.386686260943734,1.5247486549055886,1.2320947370035218,1.078312813984846,1.1173332392191944,1.0340275199106024,2.24022866538678,5.2424617953130035
1570178466577711.0,2.402711927186759,1.52728515353517,1.2332940586957801,1.0755152352749344,1.11729213134708,1.0365328009973982,2.2843440640281774,5.297686165081875
1570178466584743.0,2.423543386530537,1.5309735060519272,1.2376927130931392,1.0699514367997751,1.1167449932053524,1.0406951557486654,2.3340269134601845,5.349724185782495
1570178466584743.0,2.4455523203439586,1.5358331741931144,1.2466355135578917,1.0670116775768055,1.1152014002505197,1.0461197260242578,2.387847780663463,5.405584574962457
1570178466608629.0,2.4756291394604406,1.540564211691189,1.2604520181341634,1.065934753742396,1.1143748372410476,1.0539116888332956,2.443280874124663,5.468520641164343
1570178466608629.0,2.512661559115559,1.5475353457607923,1.2774912766289723,1.0671537298113154,1.1127183942667915,1.0633595375458476,2.5011732982237485,5.542461135891037
1570178466609625.0,2.5451309151731163,1.558211524592114,1.2946938841382667,1.0676097733375722,1.1117010842513435,1.0707616387079362,2.5453072742637843,5.577052459792104
1570178466609625.0,2.5496659209834123,1.5666939721338404,1.306687900868092,1.069000867793763,1.1105946996067202,1.0732382379787695,2.55822468471252,5.547494151339058
1570178466623588.0,2.540038856611565,1.573108737024533,1.3149081988028286,1.069320614881033,1.1124377664748892,1.0722346143136103,2.5572318294542176,5.495238092085424
1570178466623588.0,2.5307354294019655,1.5821558105285918,1.324298995642834,1.0712654214064783,1.1156872808367735,1.0666919244293978,2.5562629626058895,5.461522046238285
1570178466624586.0,2.527006162177644,1.5941553222004416,1.3346001590960392,1.073502215511094,1.1185243247023713,1.0574954878675662,2.5491878435216866,5.432977678344765
1570178466624586.0,2.5193799221963746,1.6054245821846655,1.3426506758301087,1.0766608296167872,1.1149115126142002,1.0479126029481551,2.5347504278644104,5.406952891791766
1570178466637552.0,2.5141788652585793,1.6161359437861678,1.3523282545365896,1.0808222437713682,1.1081988037289727,1.0393901304083668,2.5174307703276324,5.387490488508482
1570178466637552.0,2.512112094849986,1.6234539070017135,1.3648737968344729,1.0879943029926173,1.102103949200496,1.0312693058546492,2.500016292831169,5.380554778805412
1570178466644581.0,2.5136785819757574,1.6237894897362648,1.3771163428209776,1.0922649841018142,1.0995147369837182,1.023802931329864,2.48420567969351,5.365867591013696
1570178466644581.0,2.5081037358812757,1.61895307261031,1.3872115755838192,1.0950459442539742,1.0983908601782184,1.0168805004603483,2.4730257348473015,5.339760633680422
1570178466660490.0,2.500962612635266,1.6122433151801108,1.3940990939091067,1.09739823181369,1.0996722534241572,1.011936604208679,2.466483230684815,5.3044369035083925
1570178466660490.0,2.486970709442134,1.6027992296940639,1.3981925719291501,1.102853392838579,1.1008934444869356,1.0091839918373273,2.464666444182142,5.268595452575446
1570178466662492.0,2.472558943712797,1.5933393468927608,1.403378118265449,1.1084797952396863,1.1027878188094127,1.0086118286450065,2.4695673067149646,5.238682341430805
1570178466662492.0,2.4579528120922625,1.5865592842159033,1.4082232452813026,1.1137823898846946,1.1013842185608747,1.0097643415480864,2.4805172515803187,5.223359943898925
1570178466683429.0,2.450132417479402,1.582162508127398,1.4116135187508831,1.1166006160760962,1.0988975772820475,1.0130139648700034,2.495568606874867,5.221436802499337
1570178466683429.0,2.4440027836901947,1.5764764990288764,1.4140504227204733,1.1183645246113594,1.0973336953880306,1.0189282120189167,2.5150704832284223,5.2373906176900675
1570178466684426.0,2.443643494069056,1.5677802663767728,1.4151662399303562,1.1178579813765124,1.0974574456774404,1.0278323908446914,2.534648688669554,5.257310483438312
1570178466684426.0,2.4445396003595903,1.556669448232075,1.4139121899811147,1.117793763083308,1.094507132458573,1.0374780351700394,2.5409993970476,5.274897069948171
1570178466697390.0,2.450947061269822,1.5469527017256757,1.411405604024053,1.1172151240181263,1.088702439888858,1.0465678652561308,2.5290155320726115,5.287508092051588
1570178466697390.0,2.457451696666492,1.5405230752064607,1.407976420227156,1.120168457938558,1.0805491627857664,1.0555304307795208,2.508686299192601,5.308046519181173
1570178466704412.0,2.467498033603282,1.5369193210444347,1.4053053297407232,1.1260583710955159,1.0748108685116113,1.0650111488931917,2.4847138700410625,5.330242937239125
1570178466704412.0,2.4714950358041077,1.5324314342206975,1.4034009869542416,1.1345831049360384,1.0722036078041526,1.0724584689151277,2.457941201333794,5.347513625328721
1570178466721327.0,2.4703546441875233,1.5255088302376751,1.402358868982406,1.1407212072435124,1.0726240558311775,1.0786845751912735,2.431831511751816,5.356428993854602
1570178466721327.0,2.4625764550944242,1.516210742642852,1.3995271716468654,1.1453626654902211,1.0701182632181965,1.0852553136265157,2.409844880183269,5.36988488448101
1570178466722478.0,2.4566216818396027,1.5068978450136143,1.395369504074851,1.147474603629993,1.0655801690169557,1.0917865312288353,2.3913617200469046,5.383255852295989
1570178466722478.0,2.4466529178141707,1.4985068905228707,1.3906977498690163,1.1487083391268684,1.0602122863496153,1.0978026697526182,2.3708607190804614,5.396827242456142
1570178466743276.0,2.4391420823918817,1.4901173191248576,1.3849628587195777,1.1479643877415293,1.056952142549337,1.101552849124128,2.34423370598804,5.414928324157224
1570178466743276.0,2.430745790034264,1.479859526754172,1.3780022745160474,1.147356468666723,1.0547215102747458,1.099174125021223,2.3159452202487576,5.43880353360187
1570178466745302.0,2.4257776789714436,1.4695446212501,1.371475384763897,1.1446621810606894,1.055184944720694,1.0942666808334216,2.2888993042562236,5.454330116735582
1570178466745302.0,2.418277410235056,1.459798145850385,1.3651145032714227,1.142902451461159,1.0573008041695569,1.0913638657507319,2.26431574629813,5.459373710064858
1570178466757231.0,2.412494356374488,1.4500254726210724,1.3595650826602075,1.1393390152552734,1.0620799445986728,1.0911862330567321,2.2442246614019896,5.440050120342847
1570178466757231.0,2.4061684702044146,1.4399865396979532,1.3544289371766687,1.1362067577353743,1.065369759595735,1.092664734046645,2.2270992786807824,5.402837962336319
1570178466766211.0,2.406071164578078,1.4314506857415654,1.3506480036929795,1.1342464449356828,1.0666164405035297,1.095570263098492,2.2125085334621994,5.363856744064898
1570178466766211.0,2.406904072697286,1.425078431355717,1.346287794508788,1.1340215872044423,1.0649266864060407,1.0980343225206486,2.2037387463212896,5.332410933173147
1570178466781168.0,2.4128229510374277,1.4205299770097115,1.3397795998013222,1.1289025856156878,1.0621785192350832,1.099194639112628,2.2009649375990974,5.307577131006164
1570178466781168.0,2.4178699948901334,1.4154433439613012,1.3320633798316222,1.1199383259590148,1.058907664269076,1.1005741938541387,2.2024045900100955,5.2902901226452235
1570178466782271.0,2.428736871327181,1.4111162429745399,1.3231840478055732,1.1071759025092212,1.0579320025439838,1.102535645565481,2.2078525638776676,5.278138587225783
1570178466782271.0,2.441017730937857,1.4058298038525898,1.311306986230247,1.094644806791383,1.0576091022563676,1.1032209593184945,2.2194810987189166,5.274261701296473
1570178466811091.0,2.456693661905982,1.397860827661783,1.2994984718742413,1.0817934060110486,1.0570689068133188,1.1052265492761926,2.235338774967833,5.2761566153189206
1570178466811091.0,2.469434199523271,1.38867785064567,1.2882277062861858,1.0702169353388562,1.055274104917383,1.1102124074782254,2.253410697700105,5.288009262079162
1570178466812084.0,2.4794548428602265,1.3805316681248399,1.276935718752523,1.057344774494555,1.0556057240490886,1.1169465253090465,2.275646511684753,5.305098312700243
1570178466812084.0,2.4821939004730043,1.373876619133286,1.2654102681941342,1.0462567107716334,1.0572867905136565,1.1230295311858347,2.3001498212378384,5.331764101238071
1570178466817120.0,2.485650832271781,1.3690595225179654,1.256469016030841,1.03498544098881,1.061694088579741,1.1286837445746054,2.3249256683164243,5.3588733793854795
1570178466817120.0,2.48507252714073,1.3648284228912053,1.2499733694847521,1.0263933907228984,1.0679971671256019,1.134916325062369,2.352021385366579,5.3778395405399415
1570178466826047.0,2.4873544202289337,1.360689437495562,1.2442289619857896,1.0199605001715923,1.076789665645599,1.1423798264821656,2.383497962195821,5.392059271698171
1570178466826047.0,2.481996259939295,1.354225479650578,1.2390075030066783,1.0182046473571642,1.0850690236343734,1.1502151225860044,2.4155272371910073,5.405352827780151
1570178466841007.0,2.46571424500086,1.3458115526776153,1.235901954106581,1.0197927794396004,1.0926265265837998,1.1578262659587035,2.4413699667482143,5.408866695382662
1570178466841007.0,2.4389759103663766,1.3380308904421192,1.2357205608240314,1.0263107044795778,1.0979204792808321,1.1613497139665712,2.4601796209385265,5.3850902779559915
1570178466842004.0,2.416437586624243,1.3328988437850189,1.2400756754914286,1.0343715574626031,1.1037228264547205,1.1592734095361958,2.4739440577574467,5.321287012895025
1570178466842004.0,2.392479670903143,1.3293856788150142,1.2462583531212366,1.043617231952967,1.1106979614581125,1.1541983147102017,2.4856421165004416,5.248869509905057
1570178466863174.0,2.3719017967484395,1.3285665685761572,1.252576086692666,1.0507032424624205,1.117695728918447,1.1479106611621268,2.498213454170442,5.191511760123969
1570178466863174.0,2.352765521852993,1.3322365557600406,1.2611809853861295,1.0577243457530914,1.120207328402229,1.139282390122851,2.5157316627758397,5.146275260339148
1570178466864945.0,2.340334249057882,1.3407776065360737,1.2740378928594989,1.0640774505389543,1.1182854578317725,1.1305232017534221,2.540524668857097,5.107248970340806
1570178466864945.0,2.3250148744304258,1.3509707899968009,1.2884428984524776,1.0718674987785424,1.1119712393924472,1.1224939555304418,2.5594388188552544,5.071073080345672
1570178466885887.0,2.311526419856223,1.3621055109964109,1.3029073697848075,1.0779205175209376,1.1038982948273839,1.1143827123556034,2.5592055820315487,5.037929248479818
1570178466885887.0,2.2981736883275024,1.3742403956145548,1.313728844658936,1.0810238770493394,1.0956379773189457,1.1075735931428385,2.551678361134439,5.011474155232006
1570178466886885.0,2.2935053506665497,1.3856022823158654,1.3194251817499236,1.0810736826009133,1.0910083645716175,1.1033118642614685,2.549830144803518,4.989668050383215
1570178466886885.0,2.2919062877301153,1.3952061057515617,1.3224986363654527,1.083321217719563,1.0895473648779945,1.0996041128901073,2.5504009293326853,4.9754997289218545
1570178466900846.0,2.2957907554286825,1.4055716489472245,1.3261034956849465,1.085870352152564,1.092831715795711,1.096375996322609,2.548152949483148,4.970561339691002
1570178466900846.0,2.2988006172960724,1.416206517918145,1.329771251573851,1.0904023714451467,1.100397343454792,1.0947956234862957,2.5458390889984575,4.972860240068663
1570178466901844.0,2.3060010868081853,1.4267572715874517,1.3319794985008446,1.095853014826618,1.1122362825785268,1.0963770620084432,2.5465063258915572,4.978075012719243
1570178466901844.0,2.31101314415775,1.439346256455241,1.3314266593786477,1.1025888187161639,1.123530704374605,1.0994006897122959,2.5485177644641133,4.989485406849658
1570178466923787.0,2.3151597941380637,1.453779999068118,1.3291079291612542,1.1058884922786694,1.1327119473702898,1.102049658003451,2.550687787629267,4.998416039493483
1570178466923787.0,2.3127591721337932,1.4642782404836459,1.3249425322860295,1.104786573627072,1.138101575145806,1.1036986886614208,2.554061436774707,5.0000151366980345
1570178466924782.0,2.3129896858945282,1.4724418534771546,1.3221461886977395,1.1008039991782586,1.141184621303589,1.104800135860457,2.5617562233312894,5.002933217035074
1570178466924782.0,2.3144594705433095,1.4814277733728494,1.3227030247006986,1.1008903986867533,1.1426129196258998,1.1043748377765183,2.5698153970084365,5.007083831391565
1570178466936751.0,2.320352936085812,1.4907378140073546,1.3265368630941188,1.1034425373699919,1.1448800173153126,1.1038784118529816,2.5688758207232163,5.0025010083158925
1570178466936751.0,2.3227353670581543,1.4983847840983404,1.3298578709550504,1.1059711689078595,1.146277571116932,1.1047632545816508,2.560108081350503,4.99369120298284
1570178466951711.0,2.32458054030368,1.5012960601463847,1.3293229402364242,1.1031486332052094,1.1468147214592568,1.1067486546205247,2.5468700074630233,4.981354755232115
1570178466951711.0,2.322135403013485,1.4992285504123566,1.3267913676929155,1.0974415753133793,1.1449971288101124,1.1100656436064833,2.5328941145659822,4.9635743890130515
1570178466960688.0,2.321689601561547,1.4960541957317812,1.3256762508265667,1.088256544017209,1.1426444502117532,1.1166041080637594,2.523240379573262,4.9405045846707285
1570178466960688.0,2.3179601955863096,1.4944005626918606,1.325157368358061,1.0802720524318958,1.1398107978567082,1.1253545845786666,2.517761951450653,4.922812166976733
1570178466962800.0,2.3195834461769964,1.4967050143580922,1.3258908754733414,1.074153752523734,1.1369735461558943,1.1338284505911003,2.5157303298127154,4.915077421301036
1570178466962800.0,2.318194344158747,1.501542298417416,1.3271318946721689,1.069362664352644,1.1326360213524094,1.1409097959132595,2.5102234509972168,4.898043497526191
1570178466983625.0,2.3091286333186436,1.5060765835222119,1.3274703724030854,1.059589271695424,1.1281877558641922,1.1483195631683156,2.4914323296420138,4.854892481624972
1570178466983625.0,2.291234885227038,1.50825078834536,1.3248156405323679,1.0477264746629127,1.1211442069025912,1.1550608983785355,2.468443017023068,4.805914679420731
1570178466984622.0,2.27739480299414,1.5094944334841465,1.318762504229596,1.0351649028396697,1.1130388654412895,1.160999615361833,2.450637041873821,4.76506726426711
1570178466984622.0,2.265021133943715,1.5108066608918094,1.3087544220177318,1.0237876224631874,1.1045479264529434,1.16684267883923,2.4390369168641466,4.733537250787771
1570178466996707.0,2.2598264041733334,1.5131909047900796,1.2964520556579324,1.0111199799199118,1.097681920504853,1.1718753923464227,2.4339119944967225,4.712622347583406
1570178466996707.0,2.2542690750111545,1.5159766394770418,1.2830793278435577,1.0005811252463226,1.0892022846336171,1.1739858269107653,2.433984624817298,4.700704351937765
1570178467005747.0,2.2534116119442658,1.518365396562342,1.2714782736061887,0.9889112387382356,1.0804767327533846,1.173215052109552,2.4373109866862137,4.69793937990035
1570178467005747.0,2.250483036550423,1.5195583819685,1.2625636878541382,0.975911076641488,1.0725293570612509,1.1687435691590562,2.4403704051007034,4.6957704674422285
1570178467020533.0,2.244293342738029,1.519635401564834,1.2554498128653782,0.9615839511735738,1.0662998952378733,1.160954129559883,2.439397010468215,4.673130549489733
1570178467020533.0,2.2306902732853224,1.517759657308104,1.2491172281509777,0.950049532527625,1.0594310945552425,1.1505827857568713,2.4359117202615757,4.628965157827464
1570178467022522.0,2.221275279674547,1.5140828606100412,1.2455216377170621,0.9378363689142304,1.052965850136643,1.139989509235748,2.433539317103451,4.5844105950025025
1570178467022522.0,2.211246295602163,1.5108474714202917,1.243311009431825,0.9259925514436794,1.045582517244662,1.1318282363397987,2.434153502954254,4.545288187426743
1570178467043747.0,2.200542070663541,1.510544660966094,1.2403597364620191,0.9142743878886569,1.038272363298692,1.1270102193621392,2.4347807323308976,4.500274273741861
1570178467043747.0,2.1824850485065177,1.5115353553799753,1.2363562212033454,0.9061856810796018,1.030546535675229,1.1244798975415031,2.435296629566507,4.44954518210267
1570178467045520.0,2.1670716414756406,1.5142045585677149,1.2320607853067884,0.9006337321900039,1.0248122391249639,1.1242131082329225,2.438495934321476,4.4015842190902985
1570178467045520.0,2.155097925757084,1.5180957192046207,1.2254426891619605,0.8991868433806672,1.0203094983223002,1.1258083087714688,2.446949660657559,4.362384947916805
1570178467057430.0,2.14990848627961,1.522137181621783,1.2177844552490455,0.8984754677506508,1.0175174864265684,1.1300957264071811,2.451273027258632,4.3203555258446755
1570178467057430.0,2.1383571967252433,1.5229745377519228,1.2110091448600069,0.897809722117947,1.0140431789289726,1.135442471335588,2.4378758485079226,4.266173600661712
1570178467066406.0,2.125680180844075,1.5204585559326926,1.2062122638220862,0.8943384278823049,1.0115974976171036,1.1401505185828433,2.4128016987985106,4.212337331750889
1570178467066406.0,2.110919570312847,1.5165135943198647,1.2034349002282096,0.8919686181324119,1.0102983333942195,1.143740163170708,2.386522699767923,4.171268529293996
1570178467080635.0,2.100039623994331,1.5107632090606393,1.2027200944686052,0.8919359807014738,1.011569069275366,1.146932590542557,2.3601227976273886,4.139702434082225
1570178467080635.0,2.087305628927056,1.5027389884817395,1.202555331271379,0.8957984712731999,1.013608573096143,1.149585140373754,2.336435102737408,4.113702963341391
1570178467083382.0,2.0774464188627286,1.493639841473906,1.2032800721558303,0.900377394303502,1.0172408203511731,1.1523748560418117,2.313932723023345,4.093931536947307
1570178467083382.0,2.066942080516595,1.4838462627908473,1.2035759643209887,0.905938016108474,1.0219295704840456,1.1558903532037992,2.2912312593475677,4.086401102660972
1570178467104305.0,2.0588676855968333,1.4752035744777872,1.2028671923743564,0.9101364442300311,1.0257081104523036,1.1594945633583025,2.264130765926541,4.078362429395539
1570178467104305.0,2.044037406536072,1.4686022864175559,1.2033920452645002,0.9119234739876299,1.0265136737585252,1.1617544232947712,2.229289530513045,4.062832093265987
1570178467105303.0,2.0286763538274184,1.4642329802230798,1.2070121079554712,0.9095798263092667,1.0288622518013977,1.1652164856966016,2.1907598422391703,4.048830516564389
1570178467105303.0,2.0104444396617542,1.4587663246257638,1.2116137587683322,0.9080119216534352,1.0346559146181733,1.170564705760556,2.1528739827740138,4.03458342037089
1570178467117470.0,1.9923979809124779,1.4502002360444473,1.2176548669243639,0.9087743781974608,1.0446636287836817,1.1771893485209313,2.1118477453267688,4.006720991869843
1570178467117470.0,1.969310750115546,1.4394343571438208,1.2231908739897546,0.9131339706239484,1.055481854078941,1.1835617807262075,2.0643773025291363,3.981247279271297
1570178467126358.0,1.948647747522312,1.4291773680075623,1.226707326007327,0.9181120665227775,1.065648570589842,1.189934677796008,2.0141050592630574,3.9641913090046716
1570178467126358.0,1.9280143172069049,1.4176692247447502,1.228150701872638,0.9238399810257751,1.0741486286386475,1.1974107122456739,1.9681322218543353,3.954948711575541
1570178467141237.0,1.914027560258751,1.4046444567836438,1.2282952116677954,0.9279968883159722,1.0808830983685525,1.206633012147571,1.9276383796409398,3.947187321955135
1570178467141237.0,1.9020006938005674,1.3912542544936706,1.2294977251226795,0.9312288534800851,1.0836143607860265,1.2166252111098248,1.8909053658062962,3.946836516357011
1570178467142204.0,1.8957083094074842,1.3767997916888077,1.2348524772961331,0.9342940313373936,1.0836599541070582,1.2268168813525195,1.8541931049620701,3.951169709539116
1570178467142204.0,1.8899674963146325,1.3615506775010848,1.2414876826552983,0.9380584875366279,1.0809485607507447,1.2378190075802318,1.8180142311766694,3.959949525088111
1570178467164149.0,1.8888171275844066,1.3483618634980308,1.2459202960209894,0.9390142932344909,1.076957980714542,1.251205156492579,1.784166860512872,3.966329639051468
1570178467164149.0,1.8886218122253446,1.3365468811248122,1.2475560544815387,0.9386418518973814,1.073742130089153,1.2650357041962086,1.7522636430558116,3.978666561717008
1570178467165142.0,1.891569484990369,1.3244026453206978,1.2474269699526046,0.9375331743541573,1.0732474643349854,1.2777902902632587,1.722595650414585,3.9953272654208365
1570178467165142.0,1.8924092190305077,1.3095879738096563,1.2456725638948232,0.9392509914984976,1.0716781336276886,1.289333649291723,1.6980302676685233,4.01943417090357
1570178467186216.0,1.8945546000590439,1.293650761065397,1.2445620155145065,0.9427115571733772,1.0703893988290483,1.3013211268098681,1.6758438557816164,4.040443233590048
1570178467186216.0,1.894070067046561,1.2797515069607228,1.2457046066767745,0.9452672768118726,1.0689781307228599,1.3133403733784472,1.6536538911876195,4.063312808489902
1570178467187084.0,1.8950522045903782,1.2682748710168084,1.2488078592371765,0.9436787609537401,1.0660270116051962,1.323743688060088,1.6338639055802675,4.08866191646306
1570178467187084.0,1.8960448977039632,1.2547751862527845,1.250705314588608,0.9413494156570291,1.0619139318704012,1.3298881134194385,1.6190758731919954,4.123491483808598
1570178467201098.0,1.9016430220097025,1.2388265083438612,1.2488965789738806,0.9394903298289006,1.059810775522473,1.3326924241593416,1.6104404171185893,4.154122121305907
1570178467201098.0,1.9109185521860024,1.221671858653458,1.2419931379554037,0.939687008930103,1.059325526563516,1.3350455179238159,1.6074567565379945,4.186578157871659
1570178467202047.0,1.9290639544723867,1.2046898029988027,1.2333416495691492,0.9401624186431388,1.0606739827148954,1.3382339133787016,1.606858053187744,4.2213233809141775
1570178467202047.0,1.951447604078766,1.1890401081440851,1.225087585761976,0.9408101617206336,1.0619685064303914,1.3415856486968978,1.608509072156228,4.262700915527943
1570178467222991.0,1.9734922858430728,1.1760637966546486,1.2191774138752394,0.9413553352364595,1.0640403734511816,1.3462258396171245,1.6122782442398114,4.288727087525022
1570178467222991.0,1.985434493642321,1.1662517934700833,1.216396830074399,0.9431576549334195,1.065197616272294,1.3512422420178876,1.617121510650955,4.300993845486091
1570178467224982.0,1.9951624306041513,1.160635354141073,1.2159120973838335,0.9440940353214698,1.064875411723495,1.3540054540247288,1.623927433782137,4.310755915897623
1570178467224982.0,2.006776131950722,1.1568366191462498,1.2161591395638776,0.9458102700929113,1.0636815547175495,1.3520478725628315,1.6326163432397327,4.331586861293957
1570178467245935.0,2.0223869217089923,1.1524795543861395,1.217421930373862,0.9495697547392148,1.0650355898912944,1.3445676515886267,1.6380925010104714,4.337626118750128
1570178467245935.0,2.0354308910856105,1.148108323230603,1.2196567586767972,0.9561575726039203,1.0659458084791622,1.3335307792119786,1.6374630583257213,4.3260344629193055
1570178467247921.0,2.04696977375339,1.144977536909535,1.2220430501623907,0.9616434564686897,1.0635650388641216,1.3244973062274918,1.6360412137866545,4.309989355280344
1570178467247921.0,2.055842680670091,1.1419801669258294,1.2204077873909172,0.9664331441921785,1.0579831085183737,1.319704191930053,1.638842088558568,4.304500084372048
1570178467260298.0,2.0669699519087157,1.13824961904533,1.2148345325679761,0.9705526416819026,1.052933382150189,1.3198320417838805,1.6468497442782932,4.300749679283844
1570178467260298.0,2.078377279675807,1.1318267370436619,1.2087450038248486,0.9750268019320584,1.0490025867424162,1.323768109275745,1.6587958236453295,4.301519722720429
1570178467266869.0,2.0893234126204865,1.124564872066239,1.2035704583153461,0.9790298208604876,1.0472876340336947,1.329519883392425,1.673751371758593,4.292343864115215
1570178467266869.0,2.0940455065472467,1.1190279589671135,1.1989750859152546,0.9826587366043876,1.0472718278193833,1.3349791012539234,1.6914501626793323,4.284212605950386
1570178467283834.0,2.0986301722668936,1.1169461401136547,1.196218793935322,0.983687405031972,1.0489563579897552,1.3404750857272234,1.7108955891682753,4.277758473042933
1570178467283834.0,2.1019735995155333,1.1183745434928416,1.192335755705439,0.9836557158091426,1.051472192303488,1.3472670046937392,1.7309934761642707,4.276231345494897
1570178467284822.0,2.1048466110020114,1.1222973826467932,1.1860559565267956,0.9825599087875863,1.0559821979039345,1.3563751084044033,1.7529040831281808,4.272186560294055
1570178467284822.0,2.105966928095412,1.1269382572446303,1.1795487609532402,0.9822888112894423,1.0589621375443132,1.3648719500332478,1.7750844755014399,4.277917667337803
1570178467305777.0,2.108720134995851,1.1320221422090857,1.1740062606565445,0.9832155937595528,1.0593216542822945,1.3710679251690043,1.7960084893461827,4.291076795583219
1570178467305777.0,2.109791126488082,1.1376857249881271,1.1688699291659195,0.9856167622559759,1.0588539637578245,1.3759738908398431,1.8166141294210238,4.3172187777043725
1570178467307761.0,2.115573699724324,1.1460008358684861,1.1660508329116523,0.9884961475951604,1.05977552332418,1.3803266027370618,1.8367439217726087,4.344056857686737
1570178467307761.0,2.121525273678755,1.155868305376707,1.1642062321991933,0.9931878527255243,1.060495909554314,1.3823876323143398,1.8521882448452331,4.367763316970845
1570178467320776.0,2.1256105080331573,1.165985132592308,1.1611392858576102,0.9970834040905866,1.061750737262078,1.3810651038821564,1.8623343636130416,4.373378080501488
1570178467320776.0,2.121887425725046,1.176149837520398,1.156370759351033,0.9991169862173508,1.0617972890229495,1.3759334728753883,1.8713607672031338,4.37368260492789
1570178467326855.0,2.112986592908986,1.1851944813642579,1.1521428153699247,0.9958511865704023,1.0618904570024823,1.3704761344445553,1.8800550457393916,4.3694609995896
1570178467326855.0,2.0997755604135624,1.194178372163925,1.1490147423699961,0.9881551897312105,1.0635988693828027,1.3680126037654963,1.8875861541003434,4.368431845542392
1570178467342670.0,2.0889950763745015,1.204323461291714,1.1455736956042857,0.9774640988475378,1.0671510645646123,1.369010313014323,1.898218529215362,4.362428476427127
1570178467342670.0,2.0780347057826294,1.211007414346657,1.1406340079451875,0.9667044780515895,1.0699529582382066,1.3722563325598869,1.910392472491989,4.350626314744215
1570178467349718.0,2.0694072326763457,1.213553643054411,1.1352202499373563,0.95699114699664,1.07125589421894,1.3775727944277831,1.91859554718559,4.322051752401366
1570178467349718.0,2.0606875865109284,1.2156618743631413,1.129800129652225,0.950941581110186,1.071990569686061,1.384015599104351,1.9227901900169726,4.297585286114701
1570178467365605.0,2.05642831343605,1.2186120342582754,1.126154922409658,0.9471534557162234,1.0742587585824503,1.390540215056167,1.925755586276232,4.268452172981327
1570178467365605.0,2.0469824240880956,1.2201703132284214,1.123595727680846,0.9456325686344451,1.0754944922561578,1.3963628569398645,1.929616870963679,4.234853403724442
1570178467367618.0,2.031190661568701,1.2202301270336815,1.12118122499551,0.9456164074487754,1.0768585994237105,1.4020487781217053,1.9383833327983961,4.203884201116639
1570178467367618.0,2.011001851789083,1.2174377463937782,1.1189519566208441,0.9462196008711214,1.0799763846599408,1.407284872518088,1.9505572730830554,4.191852751122748
1570178467380569.0,1.9947494732923017,1.2106904887852497,1.1194049424099277,0.9449285256356902,1.0849751111694435,1.412334608675452,1.9626827817848223,4.1871404342390095
1570178467380569.0,1.9790311673470733,1.200384084528848,1.1233409376727124,0.9451793111416429,1.089311820450998,1.4164534501159898,1.9757872249588944,4.194257273400968
1570178467386551.0,1.9665390022373652,1.1884556360032446,1.1295428012534612,0.9487778447255947,1.0922085039519656,1.4179371710418243,1.9953409512851217,4.204224404241928
1570178467386551.0,1.9522899799831797,1.176094285127923,1.137535006857249,0.9552834707564335,1.0946197617757905,1.4168075250377339,2.021368320846728,4.22781914207921
1570178467403505.0,1.9369049122101456,1.1638954814225064,1.1475188526789406,0.9598637123456909,1.0994721024773817,1.4174230983038334,2.050656229632183,4.25806119472469
1570178467403505.0,1.918150491810895,1.1525874233757152,1.1551561516478963,0.9623630803128091,1.1055447941859233,1.4204071687286217,2.0824094467291094,4.297379282664055
1570178467404503.0,1.9013224301050338,1.143724845248342,1.159019204921094,0.9658960298618943,1.1134089385090673,1.4238370320933067,2.1185520400152016,4.333063272714275
1570178467404503.0,1.884435095635293,1.135693045616864,1.161039879311175,0.972023950067117,1.122916511397118,1.4265400747318926,2.1552927075686648,4.376276615094542
1570178467426615.0,1.8712147477990175,1.1276951046790276,1.1635328279556612,0.9761614434135054,1.1319776240839357,1.4274999960533303,2.188174406303793,4.412608371819112
1570178467426615.0,1.8568897324570368,1.1214236569184173,1.1688079657191315,0.9782474941340655,1.1376818517560625,1.4246877629074788,2.219470112761931,4.451448003541438
1570178467427890.0,1.8420506188044585,1.1178344965340659,1.1776114404971652,0.9804902896941198,1.1401924182038188,1.4211875100351279,2.255783947683349,4.487286268628565
1570178467427890.0,1.8235925834666584,1.114516601493689,1.187186790411533,0.9839321246268373,1.1394359436587211,1.4213217428260374,2.2970496507056475,4.527982341149264
1570178467440454.0,1.809087744934516,1.1119982111677047,1.195743902463082,0.9878500678048856,1.137737579833109,1.424690794243587,2.3423357397114017,4.557515275411905
1570178467440454.0,1.7989744580101883,1.110928650246599,1.2004049787623967,0.9942374919954309,1.136422523810391,1.4290853334487355,2.39098868215843,4.589386354166169
1570178467447387.0,1.794614579525957,1.1100796974847285,1.2008620237931273,0.9999415474164011,1.1384926346751125,1.433014422097583,2.4432440582721466,4.62541120685712
1570178467447387.0,1.7926023533006512,1.1075125326599495,1.2002309734178034,1.00214064696828,1.143137633331422,1.4337740938229884,2.498296942082264,4.677578180011431
1570178467463696.0,1.7944462121677167,1.1026403274194945,1.2008090805108624,1.001448074254335,1.1481008150930687,1.4323895521728816,2.557242282415933,4.728158708703239
1570178467463696.0,1.7968764864753206,1.0952574100841121,1.2016644410217936,1.0014965375545382,1.1524294507774988,1.4298801300704436,2.6176990524705555,4.781593834363977
1570178467465341.0,1.8009846088068007,1.086535985510362,1.2033796003351422,1.003007579741105,1.1569859057145482,1.4267274798710108,2.6649497467625776,4.822005220206967
1570178467465341.0,1.8035600195561958,1.0758654202902,1.2041018915785493,1.0060156163505312,1.1591246018768446,1.424066447371626,2.692102606172765,4.864824987309183
1570178467486293.0,1.8062560758245418,1.0648102883494581,1.2020744918062058,1.007944025208011,1.1588999879354671,1.4232419300731352,2.718649165102595,4.912331912463562
1570178467486293.0,1.8080461631670446,1.055138025714448,1.199022270803755,1.0080711461976102,1.1573497213182902,1.4223810140307722,2.756159777911475,4.9794489007150995
1570178467487362.0,1.8127174337942318,1.0469067654322541,1.198125171294517,1.0073431581659054,1.1563002336143637,1.4185678172170628,2.8014341648082803,5.049099607173528
1570178467487362.0,1.8189705764117028,1.0391660991942673,1.1983663588535431,1.0086559627917153,1.1552038620101537,1.4105459856660885,2.8506911651152453,5.132680821882171
1570178467500470.0,1.8283181919137614,1.0305258137971902,1.1967969155371148,1.0106743460244552,1.1547872810884474,1.40168609388015,2.904355090993108,5.224218428602002
1570178467500470.0,1.8395861807598546,1.0215557580033183,1.1926023927501983,1.0138944725195758,1.154412676794325,1.3950871041124284,2.9601909507218123,5.334222136517495
1570178467507235.0,1.8529714287571464,1.0151023884792734,1.189100880051898,1.0189351930423798,1.1547919138059897,1.3900060819370257,3.015485250645577,5.442828932888742
1570178467507235.0,1.869296883297519,1.012024578411561,1.1861649345704934,1.0247483000894455,1.1553476926146058,1.3838139871688409,3.0725176748023824,5.557145051252785
1570178467523419.0,1.8918319307527718,1.0125358765239996,1.1818209078783728,1.0284453465211454,1.155834693959373,1.3758135084759144,3.135960563486891,5.6685040924396395
1570178467523419.0,1.9189634819096064,1.0147529024748903,1.1759201499945022,1.0322121831292084,1.1551259378542458,1.3674619629451448,3.2034866316284623,5.787618706443771
1570178467525180.0,1.9505119665989366,1.0172470422980573,1.1698417685419056,1.0377912415367185,1.1557573680777078,1.3623948572748574,3.2705636915997305,5.903903305666771
1570178467525180.0,1.9858978151319369,1.0199769604322684,1.1633856063932746,1.044255914757359,1.1583839601779187,1.3619297080602455,3.3362633977756433,6.034442267685978
1570178467546366.0,2.0259911830638657,1.0252613991632096,1.1568858867075087,1.0478522320767114,1.164206999615683,1.3654256082479188,3.40273123123958,6.163618749202336
1570178467546366.0,2.063747757566695,1.0338684257144501,1.14985798034253,1.0495444812292678,1.1710699141393153,1.3703352613756383,3.463679216134251,6.285882134623927
1570178467547331.0,2.0898729013011,1.0454274064681495,1.1434675568884518,1.0517172653457763,1.1775922139528006,1.3746869447025434,3.5107472693495216,6.376816714756814
1570178467547331.0,2.1031926463985937,1.0591438662815973,1.1380921604757195,1.055288575181163,1.181964004257754,1.37687999778836,3.5426854234523706,6.4478821173350305
1570178467560086.0,2.109883306551064,1.0731527088487478,1.1320823775086717,1.0595946555845472,1.1834135822635232,1.377261433936804,3.5594217950726086,6.499564888895487
1570178467560086.0,2.115940240476646,1.086456016516528,1.1248968512095932,1.0674192851334356,1.1825093284274013,1.3762251163711983,3.562588532300151,6.557043158617973
1570178467567140.0,2.126476533268755,1.1010944499885542,1.1199500691094153,1.0779134892832052,1.1822200202129867,1.374845313968534,3.5615410268970717,6.612679924982205
1570178467567140.0,2.142174454511774,1.118005927442041,1.1183844641488132,1.0880924408288388,1.1811341049023258,1.3752315538244457,3.5594370641584034,6.663889023538267
1570178467583337.0,2.157617827648765,1.134029814629223,1.1185392130894807,1.093310961822091,1.1795853493739268,1.3780948535647632,3.55102031867615,6.697743751528939
1570178467583337.0,2.162415776455533,1.1456649510439456,1.1165150495748337,1.0913523746999891,1.1788585568684895,1.3813187263431526,3.53507244050595,6.735737320308611
1570178467585020.0,2.1643463235996947,1.154926515652193,1.1121231935734783,1.0843236130096419,1.1794561547896276,1.3843894531478043,3.5214943168540604,6.780045191938094
1570178467585020.0,2.171876018316015,1.164112097748873,1.1069053101737836,1.0779581246592347,1.1783658968711965,1.3864930716635486,3.512787044326903,6.8431609045844395
1570178467605963.0,2.183614991355879,1.1729733228333106,1.1011178322668917,1.0722314665451702,1.1767495275794402,1.3891590178387492,3.505922694525208,6.910687677806551
1570178467605963.0,2.1965510272591677,1.180052152487154,1.095968556479641,1.0660579679996158,1.1757275612350568,1.394655035820426,3.5055955479347416,6.983379909739197
1570178467607959.0,2.2136490424486164,1.1859213413341423,1.0947040143876055,1.0572684090697324,1.1777687446897274,1.4018733564168706,3.5121480690201747,7.0581141185017415
1570178467607959.0,2.234301721156661,1.192332823339761,1.096620374580651,1.0480042678644323,1.1808595663620793,1.4071658042774957,3.5146726179647625,7.149834156394943
1570178467619988.0,2.258600545523868,1.201258244658346,1.0980802373433902,1.0406855627036307,1.1837937511907335,1.4105030633527822,3.5072165646137297,7.247876786031893
1570178467619988.0,2.2859426447253903,1.211328164570077,1.0972879475595267,1.0367765735214376,1.1846422523937226,1.4132067232919243,3.4997323918756886,7.354147693958535
1570178467628905.0,2.3137721252813397,1.221394126561298,1.0973601602186287,1.0338995110120244,1.1828056687396453,1.4152707516289247,3.4938735277492063,7.4451862270655385
1570178467628905.0,2.336997193581712,1.2314303450694795,1.098190484194575,1.0307338141582327,1.177735364263733,1.4171844894787617,3.4809025755168723,7.525246211631058
1570178467643870.0,2.3604988374734814,1.2403044721437706,1.0969344478452527,1.025067982697165,1.1711028159615575,1.420399789186519,3.467687999213523,7.605556825955622
1570178467643870.0,2.384147515774247,1.2495488797567416,1.0919599578593218,1.0190814726175017,1.1627286039232392,1.4223227510620622,3.4545163768044156,7.692659715721852
1570178467645863.0,2.400791236406356,1.259355344524198,1.0856857499467343,1.0142598423440443,1.1547760303532135,1.4214189735113487,3.4238912311332093,7.7254846006212965
1570178467645863.0,2.406206008064001,1.266896474621493,1.080300771492445,1.0114894125424994,1.1457059866888604,1.419379949630563,3.3746251179980327,7.677683717986349
1570178467665956.0,2.4054371904671017,1.2748251524111183,1.0766141756012504,1.011152817550661,1.1350791556574042,1.4194372556769865,3.322095413327938,7.594288737417246
1570178467665956.0,2.396837451093741,1.283298748168781,1.0747475199860674,1.0153194737230513,1.1221505913029441,1.421311888402545,3.2751888195592658,7.514602697748304
1570178467667849.0,2.3806300866692225,1.288880010340499,1.0744000966536686,1.0219683345126331,1.1096678779266194,1.4221127388098245,3.2331805397056588,7.420275511733582
1570178467667849.0,2.3555645339665015,1.2930027879923476,1.0742009857562018,1.0276584379687719,1.0982969935978106,1.4200049854977363,3.1902670447779062,7.311550040902922
1570178467679891.0,2.328804328429404,1.2996618091605159,1.074108728979122,1.0301495978238298,1.087881776456686,1.417162554356483,3.14354918051257,7.197973772515731
1570178467679891.0,2.301579556623853,1.3083045229708274,1.0746448555306685,1.0326058304633858,1.0747199753111583,1.4165801467336046,3.097513072947706,7.086884379450486
1570178467688746.0,2.276212755862248,1.315224415290093,1.0775787120251454,1.0368042410266927,1.0605325622189654,1.4192833659267496,3.0540611535447257,6.975168340975726
1570178467688746.0,2.2527075042136158,1.3187352025675498,1.081406943711934,1.0426827119622963,1.0475581033831967,1.4209032312750782,3.013199008599783,6.867921705031517
1570178467703713.0,2.231431813356673,1.3217503239944601,1.0839997371509753,1.0477934537375897,1.0371819923606949,1.4187812095441288,2.975716475147997,6.75973438795678
1570178467703713.0,2.205321980888381,1.324128748298475,1.0845267439571187,1.0514771482113199,1.0252652606216552,1.416706475095594,2.9417451121872857,6.652139244817004
1570178467704700.0,2.1776836139741644,1.323621354149403,1.0835465147455718,1.0529991854554002,1.0124299710455185,1.418783928818501,2.9111146859898853,6.5413637420267925
1570178467704700.0,2.14778695097438,1.3200831203142807,1.0837400722935664,1.0536251888044397,1.000507420326831,1.4231902662988414,2.8838575835833016,6.423098215563027
1570178467726110.0,2.11988201623207,1.314398774907318,1.0863976119367973,1.0548515398469296,0.9922461261702333,1.4279038868634124,2.8618641909175278,6.305630614773571
1570178467726110.0,2.0928582663480797,1.3068458020507159,1.089435253254678,1.0574891407022473,0.9874083627209495,1.432798650443614,2.8437789713661252,6.198932720580374
1570178467727943.0,2.069055610704054,1.2995562938080851,1.0928699660625738,1.0600229999630666,0.9868583983946432,1.436232754100853,2.8232126882227626,6.097826952272346
1570178467727943.0,2.0481462102999375,1.2929908242169128,1.0963856630582405,1.0637839044553468,0.9873076923903815,1.4364601026037116,2.802462015160838,6.005304575989821
1570178467739616.0,2.0339327342507842,1.2870671681677484,1.101267186077707,1.070498344877105,0.986281057728122,1.436207280373922,2.786570809552145,5.926238861760952
1570178467739616.0,2.0246755708216186,1.2837198750493222,1.1068381709268098,1.0802279652834654,0.9808349911710272,1.43659326952715,2.7759803302935104,5.85682971561047
1570178467748581.0,2.0230034328396793,1.2844535989041714,1.1120895430186706,1.088703112182428,0.9716573540860751,1.437608912882218,2.7721307111899627,5.785804161967084
1570178467748581.0,2.024644401662736,1.2881269413753222,1.1169568162097823,1.0940347719461805,0.9599453384290104,1.4356618718666945,2.7653352680816994,5.716124626292399
1570178467763578.0,2.0262881345324524,1.2925041467398535,1.1194134376629878,1.0963256668320227,0.9498842149845761,1.428261425151266,2.7384772168741702,5.6321834991605675
1570178467763578.0,2.024262658679138,1.2936077551830587,1.1202143180078572,1.0979178758816348,0.9415177230765969,1.4193750467017379,2.6969311933267632,5.523442090839895
1570178467764539.0,2.020802463710863,1.2907172669796996,1.1230010069757423,1.0994293278857497,0.934810874142177,1.4133332353610415,2.6561064045504863,5.4130779503637445
1570178467764539.0,2.0166970443820413,1.2858486875727286,1.1274586736682364,1.1014678644683784,0.9297560172996957,1.4086736554632733,2.6190522191236116,5.319839236983434
1570178467785816.0,2.017955451797253,1.2813020272531122,1.1321160657516556,1.1036212038108126,0.9285955262264218,1.4036467577180154,2.583683634885629,5.240629123512359
1570178467785816.0,2.0237009284969414,1.278644658490916,1.1345750711819598,1.105481174442859,0.931201488471436,1.39881968255304,2.5520562249736853,5.1740244103767665
1570178467788476.0,2.033804582382361,1.2779182292575242,1.1343467312415056,1.1062592117178038,0.937049327167666,1.395070218343766,2.5243183946112704,5.110990739038903
1570178467788476.0,2.0448100021797195,1.278152047698512,1.131890301474327,1.1085105467677032,0.9421517128929998,1.3918497601621689,2.4994794895943544,5.045283480187413
1570178467799444.0,2.057948507814238,1.278704872229013,1.127962144409825,1.1111340724399605,0.9473883515460098,1.389293272944505,2.480382570407262,4.979765954439159
1570178467799444.0,2.0730688180586405,1.278094323891532,1.1254075320946366,1.1125038743712088,0.9546131224145898,1.3870390172069187,2.469403944174467,4.92375673903681
1570178467808423.0,2.089947559037354,1.2759027603855564,1.1247505582921746,1.1127635301262992,0.9615588832120566,1.3852054150753688,2.467658642938201,4.877247878300169
1570178467808423.0,2.103401987770722,1.2722316023220626,1.121524830785273,1.1134462648348813,0.9624157929565197,1.3832701411069581,2.475420812097,4.831976129311183
1570178467823386.0,2.1113859735136553,1.2690537592191027,1.116615387725482,1.1149996677950083,0.9603620457104773,1.380229991953903,2.486681759293993,4.7717638229261246
1570178467823386.0,2.1128221608482254,1.2677549512636677,1.1131569958839354,1.1192872672024872,0.9583208071623736,1.3751033114147562,2.4962221682905246,4.705747042309143
1570178467824380.0,2.112704593074194,1.269230379216181,1.1110354801807911,1.1241896132133844,0.9554654576428946,1.370973099661546,2.5078265869514693,4.644447028538611
1570178467824380.0,2.1128029201621144,1.2731032040078918,1.1088789279320972,1.1280446399465571,0.9505566607712549,1.3708565285759933,2.525579844202477,4.594716923530511
1570178467846508.0,2.114961390424547,1.2779265831863251,1.107537101863609,1.131010725272112,0.9452741192402024,1.3745485143862817,2.54852735812387,4.555876065341616
1570178467846508.0,2.1167190368588105,1.2820010477623838,1.1090245636200744,1.1347325060453892,0.938853939070248,1.3788245911479706,2.5757623670923557,4.527846208265811
1570178467847719.0,2.1227309558312197,1.286375540908873,1.114466157027291,1.1388542722015347,0.9329185903899391,1.3799425442285655,2.5966615975549265,4.505749923688871
1570178467847719.0,2.127779478434583,1.2898692661389375,1.1212452025627062,1.1432120392378937,0.9272197176228839,1.3774853945123462,2.596571361332209,4.487245931824054
1570178467859320.0,2.124433054105482,1.2885083902219074,1.127286092375145,1.1452683071268897,0.9204343225813255,1.3751410723582143,2.5819086558478577,4.45437128167422
1570178467859320.0,2.1168578266734563,1.2829832947758641,1.1313018510235722,1.1442491633355307,0.9119732282404326,1.373746573493953,2.565303295631308,4.4134088096863655
1570178467868270.0,2.1095099547688445,1.2764852028485756,1.1310252881306075,1.140015466981433,0.9056343255511097,1.373094382364788,2.5497289042559497,4.371177630726135
1570178467868270.0,2.09548685231248,1.27009418358957,1.1260492201596972,1.1349014500993384,0.9016948301119282,1.372856519212256,2.535286610220182,4.3361495986046386
1570178467883380.0,2.079281479058163,1.2656060615845397,1.1199303589832577,1.1302588640480329,0.8983400293475043,1.3733965814141413,2.5189688117792577,4.311982010143939
1570178467883380.0,2.0635890129653327,1.262836772343706,1.1158714882169785,1.1281567318075314,0.89230047962063,1.3750119427711291,2.49866949725869,4.306169909484137
1570178467885217.0,2.0493696655010063,1.2602630995811166,1.1157512510272192,1.127359498636053,0.8845752781557612,1.3758916598754267,2.4751163103332874,4.308652348648824
1570178467885217.0,2.0348607805123144,1.25590016333529,1.1201841491238702,1.1277293240678836,0.8753207735468624,1.3747471054032576,2.453191287599717,4.318495264060743
1570178467906165.0,2.022668825304358,1.2510324855601764,1.1271727696009055,1.1269095417139732,0.8659395830920157,1.3758283254955959,2.437978135066108,4.329862597123328
1570178467906165.0,2.0112836762649895,1.2471320226201499,1.1320842591173976,1.1222044475260393,0.857838222548701,1.3812846410733222,2.4296621655188377,4.35505894019354
1570178467907633.0,2.0041303979666485,1.243506965218256,1.1361064674527044,1.1128301359221082,0.8531206087159705,1.3899227326842507,2.4262619233438003,4.3896356334162965
1570178467907633.0,2.0013926275764877,1.2407121016463138,1.141517541977236,1.1020336041293373,0.8517407636812376,1.3983325187742297,2.4277685616784757,4.436540063061383
1570178467919231.0,2.0007188663040685,1.2395422274498198,1.14665990062491,1.0910269203232943,0.852775987687345,1.4053525274964902,2.434159639013968,4.481573523450627
1570178467919231.0,1.9992668767583865,1.2389409281016153,1.1518938153126146,1.0827057061137033,0.8524714693544795,1.4134606476905323,2.4444129627604996,4.52681955860518
1570178467928102.0,2.0021438473573143,1.2387792824591246,1.1596995628452156,1.0780181642131075,0.8506840068054933,1.4244921378354587,2.460495437330272,4.570653866325191
1570178467928102.0,2.0097957105562467,1.239799907379123,1.1695204782665969,1.0764160736794874,0.8486523111794648,1.4362157767924475,2.4812280495401757,4.623612213984167
1570178467943065.0,2.0196638075370195,1.2429333534753755,1.1797347419699822,1.0741107270682966,0.8490929662687309,1.4465644734491263,2.5036336882285295,4.6753347262011085
1570178467943065.0,2.0274337353217766,1.2462920362113195,1.1881422241282156,1.071152584103194,0.8511140942519381,1.4540688237421726,2.5267001265308173,4.7344410826895915
1570178467945279.0,2.034907740003656,1.249354732043558,1.1934706592478002,1.068723033400088,0.8520045596148197,1.4591904000087568,2.548480960682406,4.791932795471222
1570178467945279.0,2.0401669077051796,1.2530622401958496,1.1960469454222604,1.067867929240714,0.8518199322028741,1.4621046546223044,2.5602107532826017,4.848352842645233
1570178467966087.0,2.0438486354952263,1.2570453383608682,1.1978381900000639,1.0667872222728878,0.8540801984375579,1.4629319261111524,2.5536086100466493,4.890843436984096
1570178467966087.0,2.047941146427814,1.259752278921185,1.199890933278254,1.0679776430612409,0.8578900974995831,1.4636279234066918,2.5376937562580895,4.926724962405341
1570178467967003.0,2.055462074932664,1.2616497658105648,1.2025185448642612,1.0715013009852734,0.8614876038277625,1.4653129388534705,2.5220923317367037,4.95539674179039
1570178467967003.0,2.06790610830979,1.2646232115592835,1.205660791354792,1.075156357921173,0.8644452035388378,1.4664620971903264,2.506638667452085,4.991728522598489
1570178467979962.0,2.0826505421815105,1.270129275022306,1.2095432409970934,1.0769856286808892,0.8669326423252874,1.4681762813614017,2.4922915268292614,5.023218712153228
1570178467979962.0,2.092688666824959,1.2748674756921872,1.2141734228882513,1.0772994866165022,0.8706621496387568,1.4710862271485796,2.48194002428655,5.04478146284686
1570178467994927.0,2.1014171531044386,1.2754470673405327,1.2188837294662536,1.0761966864934238,0.8761345361127942,1.476337455802473,2.473514843911585,5.047381420605006
1570178467994927.0,2.1083774215440023,1.2732440734182382,1.2223744087806472,1.0752328879141306,0.8810900215158811,1.484201178791091,2.4630835101163155,5.0490807728550715
1570178468002900.0,2.1101025344419515,1.2705277173456073,1.2245112799283713,1.074701347478338,0.8875948367022003,1.4920775884883566,2.455724606400912,5.053547749433711
1570178468002900.0,2.110205598655666,1.268081381408011,1.2257406842119338,1.0773036195885228,0.897666720244793,1.4977678275745627,2.455192569227663,5.074615564064868
1570178468004990.0,2.1147475186455327,1.2683890551772958,1.229142268837744,1.0840341621031344,0.9115627307305375,1.5026519172912427,2.456359953400396,5.0939635638892415
1570178468004990.0,2.123259686534844,1.2726140984071936,1.236343175322126,1.0941201801426457,0.9282489185908201,1.5062258942137254,2.4543774246423733,5.111281215451993
1570178468025840.0,2.1377294556382282,1.2796811019800955,1.245971777249396,1.10401367400305,0.9458071520220404,1.5088661933867986,2.4525270208402916,5.129348687377493
1570178468025840.0,2.1559487040299063,1.2887041335664096,1.2569413339196613,1.1140882896783884,0.9641751996968562,1.5125845293712483,2.455665468210454,5.158556064565663
1570178468027902.0,2.1718170027897368,1.2983856323705867,1.268622554855889,1.1231454012593067,0.9844678259049726,1.5168804534885463,2.465637400974604,5.184864320290585
1570178468027902.0,2.184169571455255,1.3062751854394736,1.2788752021813152,1.128674730182756,1.0047959645281748,1.5194976577001715,2.4818397218160357,5.217186915143847
1570178468048780.0,2.197035244975821,1.3111613303304366,1.2873660069276274,1.1293087958090195,1.0223807234222784,1.5209313353264442,2.492121080103307,5.240909140138605
1570178468048780.0,2.205043690337384,1.3107673894810932,1.2960402475223138,1.1280721677289862,1.0362643954252677,1.5224469093276378,2.4885759972278003,5.257161968471815
1570178468049777.0,2.204676829610369,1.3065447058182724,1.3037523591327784,1.127569181385767,1.0465729487114794,1.5244833052034759,2.4828691385717385,5.267247729378566
1570178468049777.0,2.1971713141157885,1.3016853472131935,1.306857641372952,1.128313433884973,1.0541569286249666,1.5258959284476152,2.4824281926520846,5.287235903126704
1570178468063738.0,2.1892837457902043,1.296104671595907,1.3065127808056993,1.126681855036475,1.0601680364800743,1.5287709065954045,2.48609148614066,5.307493874125055
1570178468063738.0,2.1813765454911245,1.288934074895852,1.3054170482072798,1.1228062846506517,1.0644728306945113,1.5335672763960209,2.493678130965663,5.32996461665171
1570178468064920.0,2.1725544024693404,1.28219518965614,1.3051868871327905,1.116890831905774,1.0672902529545356,1.5354373403389456,2.5031945757670626,5.339418425078306
1570178468064920.0,2.1624897930420865,1.2763976527529608,1.305048816948236,1.1087048084863105,1.0674139463337151,1.5320022033738716,2.5138946405396534,5.3477877268051035
1570178468085689.0,2.1524966741487126,1.271770418062118,1.3041410659932517,1.0967079755628668,1.064830760264068,1.5267146078098797,2.531023923671698,5.357539317861128
1570178468085689.0,2.1392585887953786,1.2688212674706014,1.3020237383906033,1.0840848910921967,1.061048237782177,1.5207854692758676,2.5577850402463707,5.3772895031970345
1570178468087675.0,2.1244339214341537,1.2660317350550037,1.2999450482045516,1.0726018318842885,1.0583198954731012,1.5137223214029558,2.589552424750848,5.401732324254291
1570178468087675.0,2.1096330753894597,1.2624517597289393,1.2962539200216463,1.0618433614148195,1.057626269326428,1.5039174065422525,2.619421964099669,5.439101785377701
1570178468108666.0,2.0981108353487836,1.2591540384964055,1.2881009335722287,1.0485460499252053,1.0576542398578115,1.4938409649034659,2.6462205839938036,5.475563132495925
1570178468108666.0,2.090969045826403,1.2562941824063443,1.2780718370557256,1.0337724740568381,1.0550873516280794,1.4867242927348627,2.67202550987555,5.517811205515743
1570178468109736.0,2.0887719307931243,1.2532216096113613,1.2698505827105213,1.0184322096298772,1.0488858207626248,1.4820296761530263,2.694987929195145,5.54569057955405
1570178468109736.0,2.089340696298237,1.2488852772408758,1.2638435622020445,1.0047581495021283,1.0391943297514732,1.4791666298658315,2.7146046055208846,5.564158870103495
1570178468122587.0,2.0967831693421006,1.246128056015943,1.260738195139627,0.9912929948643253,1.028971396703195,1.4774847806781144,2.7369654612269922,5.582046236910166
1570178468122587.0,2.111906786881174,1.2467782870578645,1.2590633484693632,0.9775994517408156,1.021065943591596,1.4760885989070716,2.762323974463501,5.614376657557282
1570178468129563.0,2.128735133494073,1.2470815673675668,1.2556521244205308,0.9633214301572257,1.015426991269364,1.475677637040272,2.7788992104972547,5.643312518258406
1570178468129563.0,2.1341106797115486,1.2427955559184005,1.2501853928347968,0.9512680862541777,1.0086126887745857,1.4733391312189235,2.7683603079002768,5.662125901431802
1570178468145709.0,2.126565077591573,1.2361428539083994,1.2455621163320933,0.9421310000164962,1.0014475818012352,1.4698947157261628,2.7319238164609,5.663974778922749
1570178468145709.0,2.111891732316393,1.2307066191286127,1.2441648281632713,0.9371894561625802,0.9965840072319055,1.4690970243962542,2.6924878535612367,5.676512771160298
1570178468147518.0,2.0972659527996225,1.227022541417497,1.2463316100118287,0.9351961709459301,0.9957672369497148,1.46934933696103,2.6600365470756167,5.698417120907285
1570178468147518.0,2.0829580913679924,1.2232845501656089,1.2481671283153097,0.9350393276896636,0.9979868350136105,1.467596779308819,2.631263561963909,5.728487162314924
1570178468168475.0,2.0682844589645475,1.2180709566660943,1.2478050903380373,0.9338129307922064,1.002651157935191,1.4642268694678904,2.6060210204795164,5.752802095693032
1570178468168475.0,2.0526560525101862,1.2114186100161202,1.2474082488892082,0.9316205186225028,1.0086583641028124,1.459326147524009,2.584165406782059,5.7858732811330045
1570178468170457.0,2.0395277808411056,1.2046684831082803,1.2498973791246593,0.9287878032906851,1.0134247544155006,1.4525332714315569,2.5587120020226757,5.819799400675306
1570178468170457.0,2.026049916176309,1.196957716022727,1.252964387345226,0.9248811443031164,1.0143969917201854,1.4446155496073179,2.5246377876707373,5.853337434446971
1570178468190406.0,2.0102292285210166,1.1874372795748762,1.2538675796171805,0.9197778322384541,1.0114926062840517,1.4400176196256695,2.485698044113968,5.877664101630224
1570178468190406.0,1.9911822135257793,1.1784579001221105,1.255778337567217,0.9171585202979337,1.0060029077433905,1.4406003194745696,2.44468502701661,5.901409670091103
1570178468197383.0,1.9730486228781121,1.1716653848538299,1.2611554333683732,0.9171004110666142,1.0002618597951785,1.445446186562128,2.4044488791623926,5.911264729113465
1570178468197383.0,1.95480719364882,1.1648065128364906,1.2664783791280003,0.9182798908875655,0.9939276462423772,1.4528771227385688,2.36792834962552,5.921525934950014
1570178468206407.0,1.9374826539284058,1.1594106028495976,1.2693549031034441,0.9189889644560604,0.9891699450604963,1.4607078311372965,2.3361211835959095,5.932156784915971
1570178468206407.0,1.9219656734754147,1.1567638370575966,1.2689090726412784,0.9204404731721575,0.9880139042879991,1.465645311759661,2.309971731477712,5.95124951711724
1570178468207360.0,1.908696080472911,1.154381054206057,1.2665258744157672,0.9243233989710559,0.9902120915776376,1.4669409814658136,2.287444325529084,5.962872791544657
1570178468207360.0,1.8944214499637437,1.1511152720750366,1.2651545517900444,0.9314612491919441,0.9926778707556383,1.4662656234964382,2.267562355102793,5.969770069852913
1570178468227576.0,1.8818299830898966,1.1480108412617474,1.2657647796439429,0.9386329974051231,0.9924482145865337,1.4650637576285641,2.25241112038359,5.970252998483929
1570178468227576.0,1.8731944308699273,1.1452344299816375,1.2675981497195434,0.9448879004834159,0.9896847354136339,1.4638239880924429,2.2427962085934046,5.97772895724726
1570178468236638.0,1.8687803047653182,1.1422764900526723,1.2693349015537365,0.9508753421425188,0.988568192540784,1.465326584932982,2.237668038677072,5.984615532306564
1570178468236638.0,1.8647532982149821,1.1376531197343456,1.2672833702831814,0.9559671075685489,0.9902510671121106,1.4704912010486995,2.2368426222352893,6.0035157390347145
1570178468242413.0,1.8626410477059507,1.1310477066752322,1.2622401249353226,0.9597363131712785,0.993177958870145,1.4771725563455596,2.239166229552167,6.029722347630276
1570178468242413.0,1.8619795096317175,1.1216558831274082,1.257324139386017,0.962489069689009,0.9959877252353093,1.4820779195981775,2.2426517848145253,6.065081976320108
1570178468249291.0,1.859310026474574,1.110686410809577,1.2512592586444293,0.9637860315067794,0.9998148692346999,1.485719987561071,2.2495572273679705,6.0929118470979065
1570178468249291.0,1.8537921637691115,1.1006118134205145,1.2428920311608445,0.9658526451202851,1.0055657592967184,1.4905726686027476,2.260144496968838,6.123512526548426
1570178468273494.0,1.849835743901505,1.0905739622086617,1.2351307119435384,0.9696054090155781,1.012613373015551,1.4964802773375725,2.2702344903553975,6.144634945991803
1570178468273494.0,1.8482036838140574,1.0782847404517537,1.229445030938765,0.9744694343668788,1.0197404163285444,1.5028312379344482,2.2772882491729463,6.155469453576976
1570178468275315.0,1.8492532690566401,1.065921999622435,1.2256754062579625,0.9791496395461936,1.027109083415937,1.5117485244837472,2.2831059716963216,6.14754111597423
1570178468275315.0,1.8537938873040412,1.0560724007455526,1.2216772055998988,0.9848513602071971,1.0355368280104085,1.521760245678696,2.2898864763416578,6.1402835047642155
1570178468288144.0,1.8590248908546305,1.0497294192015525,1.216940418570071,0.9914831680421354,1.0454830014079932,1.530730371950484,2.3008032199659585,6.1422616823112985
1570178468288144.0,1.8618136818584035,1.0473894927115814,1.213026817808714,0.9983230698750721,1.0539562319233513,1.5379285670852139,2.3162114265627203,6.159524897106711
1570178468290348.0,1.8641926865234149,1.049051881667155,1.211517470957177,1.0041937378706516,1.0590222613061997,1.5425670975801125,2.3362038084630607,6.174278761867081
1570178468290348.0,1.8692346141411986,1.052857049923733,1.2126782819522373,1.008235444896865,1.0612148695571724,1.543420384124075,2.361240179152626,6.195881271007451
1570178468303109.0,1.8788392313469842,1.0577402311040391,1.2162098887215615,1.0111218631251517,1.0617029980518062,1.5415134388786136,2.3907476401618113,6.2113779593411955
1570178468303109.0,1.8920981185070005,1.06241547119535,1.2198867525336636,1.0140997079282454,1.0610805960158947,1.538576568067632,2.420051824546131,6.218154458204305
1570178468310132.0,1.9057640554328126,1.0664167480000357,1.2243570953434808,1.0170075427176895,1.0616978911245185,1.5356016644956232,2.4479395242007183,6.217598287572012
1570178468310132.0,1.920175739008761,1.070653657424985,1.2311090761257415,1.0200826624408736,1.06263991033556,1.532909252070852,2.479746859554537,6.2361239249806575
1570178468326227.0,1.9349452453714282,1.0743760099683837,1.2379105629559288,1.0231662641772465,1.0621698781103666,1.5329380387321798,2.5163455009106674,6.265125904073626
1570178468326227.0,1.9484335894543876,1.0779538466535887,1.2421494632263115,1.025539172957914,1.0598228916762509,1.5355598910725696,2.5551836171695483,6.3066493020275125
1570178468327178.0,1.957406527693272,1.0832531301943584,1.2433358116933593,1.0259037599491363,1.0557823365234398,1.5392609961604833,2.5962275027168737,6.342074721923427
1570178468327178.0,1.9634434738989441,1.0879755662073118,1.2428573973827264,1.0253750017004326,1.0505648093969076,1.5440610092563996,2.6358447381553702,6.372660924812298
1570178468348347.0,1.9660673403581554,1.0885677170731007,1.241564664559107,1.023764240008084,1.044631722544686,1.5494112226192143,2.6726686215681372,6.3795021822283235
1570178468348347.0,1.9619208137416717,1.0843751658171965,1.2358453843991675,1.0211631201436415,1.036451602319814,1.554902146393314,2.7102773453987297,6.370049775452
1570178468350125.0,1.9548626950414532,1.0780097582855324,1.227388779867608,1.0193076974200588,1.026991375630775,1.5623045648426326,2.7509479543030713,6.360607703486992
1570178468350125.0,1.9501787182321395,1.070383178681009,1.2195245259453265,1.019514515100086,1.0177562492427945,1.5693589087995803,2.792592707309295,6.369223878743924
1570178468363009.0,1.9473480510556695,1.063468567264498,1.2116743087388782,1.021708277333384,1.0103027897463177,1.5743287697442643,2.834814768113553,6.384217105781039
1570178468363009.0,1.9479614768875786,1.0590520463665594,1.2054349685150463,1.0251230490774925,1.004411882131537,1.5750231531435714,2.8702524373942278,6.417288390210255
1570178468369928.0,1.9533563232658158,1.0557484098256265,1.2020711043854488,1.0295624737587568,1.0005446589355178,1.5703738332088337,2.881363186469795,6.455308518210796
1570178468369928.0,1.9640074694498144,1.05288685030828,1.1985011218381718,1.036210751169223,0.9984178632172391,1.5644435788961093,2.868443198095447,6.499751649144869
1570178468386043.0,1.978991442840794,1.0526492394055016,1.195183938533109,1.0450212041045226,0.9985196042364098,1.5604981644255174,2.8526671875622007,6.542766547269437
1570178468386043.0,1.9967417550032962,1.0556561782309457,1.1934440354197708,1.0552079594603512,0.9996095022388749,1.557620266084245,2.8416363031907785,6.596551008220063
1570178468387873.0,2.01251788223933,1.0612582764371026,1.1917022516994977,1.0637266182736203,1.001884634106956,1.5548639905405774,2.833366002690774,6.654754689677774
1570178468387873.0,2.0264299401128834,1.0694529565581368,1.1892564244604025,1.06959941049289,1.0061620992610771,1.5529808964483671,2.8286377266702596,6.725404067634785
1570178468408977.0,2.0358229817088525,1.0807499255109976,1.187333542306084,1.0746667811198851,1.012095579598337,1.553215427058198,2.8300547732160153,6.790083572159888
1570178468408977.0,2.043111063881805,1.0938815191122901,1.1849495170426454,1.0791003326803044,1.0175716906347088,1.553362754155671,2.836136855113402,6.851376992421687
1570178468409825.0,2.0492309104457673,1.1040141491887676,1.1816626847864873,1.0827377915363918,1.0199298533619616,1.5540819068142815,2.8430093947992554,6.896920349606698
1570178468409825.0,2.0534015697349344,1.1086688618434701,1.1801772970932036,1.0876989979102574,1.0171936074043646,1.556733112131333,2.8504278232028533,6.923459659154006
1570178468422854.0,2.058194211139944,1.110286356768596,1.1817424995487298,1.0939817814637705,1.0121741793247845,1.5600889624472356,2.861773562157482,6.923795984811975
1570178468422854.0,2.0693573349968495,1.109940987635848,1.1834156127860282,1.100774671674,1.0065313005427883,1.5626125764260625,2.8771746870174435,6.921824129514399
1570178468429762.0,2.085259151093884,1.1078490162039283,1.1849082786703504,1.1070352435132103,1.0017424432601099,1.5662745707536812,2.896947151049035,6.915309608351997
1570178468429762.0,2.1059569695494273,1.1029955188772385,1.1863097941352927,1.1109232018513695,0.9977210570014979,1.5731477820714663,2.9233132660982104,6.919568015827276
1570178468445759.0,2.130095827087505,1.0938583340545152,1.1858138342548685,1.1121751114207232,0.9939203766247878,1.5819606634788663,2.955659438447105,6.9307692963902285
1570178468445759.0,2.1586766886209623,1.0813050634053756,1.1815488585902296,1.112877031984271,0.9900229707457415,1.5899797504588313,2.986013735724337,6.956395732499007
1570178468447713.0,2.188087427245571,1.0683294976312616,1.1747624984685092,1.1129497942210684,0.9845355574573836,1.5966365570343122,3.0032206374517467,6.982119673346384
1570178468447713.0,2.2179677323786304,1.056200718633085,1.1682432025527503,1.111512605379456,0.9763706706997392,1.6034915414753208,3.0080306308600653,7.01501544021644
1570178468468658.0,2.2469897080984933,1.0463054061869053,1.1635109331965932,1.109281450695385,0.9688784914505993,1.6128114895813028,3.0156207215162527,7.053149342890559
1570178468468658.0,2.2745416197540274,1.039277365653271,1.161697680918596,1.1074183959162875,0.9612609279406806,1.6220465710986132,3.0336769839647912,7.106139738354488
1570178468469654.0,2.2976342746969416,1.0335611971486707,1.1635239600920895,1.1067425402583726,0.9507414436406245,1.6300356500605477,3.0565779020468997,7.164427145523542
1570178468469654.0,2.3159979199857634,1.0277938069061316,1.1680615250451327,1.1085432864511044,0.9368786290661569,1.6360095277791054,3.077230363374729,7.242744483548305
1570178468482705.0,2.3271318788956354,1.021771334655231,1.175575140042848,1.1107910311858533,0.9238684801641719,1.6369716270897765,3.0930943200417844,7.327438554641402
1570178468482705.0,2.335141719846675,1.0161046975526806,1.1851912740806936,1.1125299671042197,0.9129562010411149,1.6357354099904269,3.104758964292488,7.413560322974879
1570178468489917.0,2.343961693250664,1.0129574787051157,1.1959580603237994,1.1155910850058632,0.9029360088079784,1.6385782905481123,3.1181423123427225,7.492730518889249
1570178468489917.0,2.3592675319610974,1.0137378239430894,1.2076904526837524,1.1192641788814925,0.8920802965949731,1.6438589218477357,3.1342470072165214,7.584518542283595
1570178468505563.0,2.378945014056891,1.0188875997216813,1.2204966394611958,1.122329260553431,0.8815488791472598,1.6476774986380849,3.1548106580888797,7.673326209969431
1570178468505563.0,2.402248054996974,1.0286915605175675,1.2353110220323005,1.1269420581784317,0.8720917074173682,1.6489089152165022,3.1837202293019726,7.764776575714348
1570178468507553.0,2.428718194557786,1.0415615888037415,1.2529264297185019,1.1311567251083101,0.8633740459755103,1.6499390181646427,3.219465492566655,7.8585184213783865
1570178468507553.0,2.457105991561779,1.0542950379190694,1.2687688500420122,1.1319913854662407,0.8538305272951864,1.6526818190249857,3.258151221604738,7.96190115284117
1570178468528498.0,2.4815328692128134,1.065555348278356,1.2790199898486727,1.132077664111985,0.8436128916627608,1.6578489055153711,3.296149551550052,8.053609502715558
1570178468528498.0,2.5031197209147793,1.0759656658849657,1.2866582564726035,1.1336674488605767,0.8330802278350747,1.6662329040188306,3.3317584849926987,8.140496265896948
1570178468529562.0,2.523825838884431,1.0885628125574316,1.2951863748596113,1.135653286406648,0.8246883532420072,1.6789412448100136,3.3701082239413487,8.21392610430562
1570178468529562.0,2.5441249913751007,1.1047981947166083,1.303992113204248,1.1401315521425264,0.8185289862539198,1.6949699073869497,3.4121917535552364,8.263800625108123
1570178468542696.0,2.554252443673973,1.1220060768268654,1.3121869464681697,1.148142716923877,0.8129846607090282,1.7131408512288864,3.451786588199201,8.26934794806558
1570178468542696.0,2.554068707496005,1.1380278255792364,1.319597946822812,1.1579063941534953,0.8074516772221153,1.7311806860976817,3.4877363504493952,8.266967306202398
1570178468549594.0,2.5519834420182015,1.152817717459012,1.3262666071379317,1.168343344667521,0.804186175815547,1.7476555165860053,3.5255707896618427,8.275655508606865
1570178468549594.0,2.5541145353006933,1.1663589829602945,1.3329685701294158,1.178619456353515,0.8042124037960384,1.7620814012342974,3.5645452278048295,8.296677520177981
1570178468565628.0,2.5589244225142433,1.1786774679447338,1.34109968271444,1.1876440797674521,0.806916155409934,1.7738966626614276,3.6004488858756862,8.315275279989711
1570178468565628.0,2.5650488624704293,1.1908240797442278,1.3512310074441882,1.1965417262602125,0.8110815597903444,1.7823451255985658,3.6270450310739872,8.341498623462739
1570178468567396.0,2.5676643275024427,1.201227196968681,1.3605900607560222,1.2043697176288874,0.8158654810813992,1.789815889402452,3.6335359453207987,8.362598891556635
1570178468567396.0,2.5652682225418104,1.2055300868138372,1.3624550839205802,1.2072801965276339,0.8190295381312531,1.7986154527805203,3.619807445780685,8.393997495606005
1570178468588341.0,2.561444373789608,1.2069492260514698,1.3567249582981646,1.2057257391341825,0.8215250837476593,1.807670749679543,3.6048443127858967,8.437660588545754
1570178468588341.0,2.5607336614163434,1.210742708241927,1.3484731948389053,1.2056404218473447,0.8253021746283012,1.8147036581473261,3.599586057614925,8.502153255259861
1570178468590340.0,2.5641449413084336,1.2155191471245055,1.3404214376742092,1.2101008137634413,0.8295205362323108,1.8199357736568351,3.603276848399489,8.571475355408204
1570178468590340.0,2.574120473328844,1.219071210196073,1.3326369157685851,1.2185364904978948,0.8340712205554391,1.823571093701904,3.6157548425180175,8.65133558744528
1570178468602501.0,2.589453445032975,1.223243387866255,1.3264825303548822,1.2289193023858216,0.8400441727390423,1.8257407228090197,3.6359868587036512,8.734160794074784
1570178468602501.0,2.608449730911026,1.2293860172465474,1.3216712910347754,1.2404503557655966,0.8454367138156726,1.8256698895673713,3.6593678890743733,8.825223920406575
1570178468618257.0,2.621407095365321,1.23481329332197,1.3152585088446629,1.2530459453336418,0.8492582808552268,1.8247722383597578,3.6718980003328356,8.911998582381354
1570178468618257.0,2.625399379642618,1.2381543591531832,1.3069435062201495,1.26707412563342,0.8534633422631626,1.8242227775257902,3.6641039592203946,8.992572057865086
