timestamp,emg1,emg2,emg3,emg4,emg5,emg6,emg7,emg8
1569406394397326.0,4.783300595033085,2.2573041942435195,1.380851582850456,1.211049457601491,1.934366046808736,2.720638885125566,3.8229727404990927,13.64009922094714
1569406394397326.0,4.243111053475989,1.5847818429268952,1.045326850851898,0.997253973516457,1.9310191613276722,2.7540842927196687,2.8576115061003664,8.306071100033922
1569406394398033.0,4.185395369373449,1.5294104919144973,1.0158259335502335,0.9997155799973281,1.8708566097676587,2.7120722640964954,2.842428799242481,8.22221431634157
1569406394398033.0,3.98235711853529,1.2997766759625795,0.9103912443471728,0.9468767173598026,1.8834057895065561,2.693696609230617,2.5531048120785758,6.4853582382800035
1569406394399030.0,3.937048250140464,1.276283835968048,0.898940611532236,0.9555028436605744,1.832243152782017,2.6513432201392857,2.5664830622964963,6.491431077658688
1569406394399030.0,3.804142629996363,1.149782092934786,0.8394287605191217,0.9339220878596729,1.8360750552026146,2.623832509352072,2.4252722436158947,5.512443187558812
1569406394403313.0,3.762882519614008,1.1442818134332227,0.8329378171079852,0.9465143857868521,1.7885787949849863,2.5807241286868896,2.45481313452467,5.584338018048381
1569406394403313.0,3.6616513174828174,1.065957654154617,0.796797990696415,0.9386053196308913,1.784875493847325,2.546625418715068,2.381994666819305,4.978130837821912
1569406394405014.0,3.6314916573284513,1.0709430313656065,0.7990010386422356,0.9507390272563934,1.7409489927800619,2.4996618641746307,2.422920876374585,5.08519769491611
1569406394405014.0,3.559612394164895,1.018051320293297,0.7804809649213282,0.947125401668337,1.7354173694154993,2.4610552837204334,2.3869031734939665,4.675612347402948
1569406394418070.0,3.5427395836234052,1.0227796101620967,0.7851171403612225,0.9564079094174627,1.6972496882859907,2.4169032193268225,2.4369949980465013,4.813550405416528
1569406394418070.0,3.4821658297839644,0.9778996607343222,0.7722674377045329,0.9519756921727188,1.6921675221734453,2.380262688343009,2.4136502601464174,4.554185857210094
1569406394426991.0,3.4541885006860675,0.9812961523817014,0.7803498694199748,0.9581031804329493,1.655638313400508,2.334202140984432,2.4379274848714534,4.704149851672314
1569406394426991.0,3.3893730363081516,0.9475037489686636,0.7786075853270408,0.9545927611754542,1.6456094445056586,2.293025466482051,2.3980451434384857,4.523427850310198
1569406394432200.0,3.3582547206351827,0.9538310776260625,0.7927420205109728,0.9619076442296889,1.607952744355393,2.2465896716931857,2.407904028777594,4.669982343550685
1569406394432200.0,3.2975952649608176,0.9293007390238404,0.7997983356231321,0.9618570520269375,1.5950852216128735,2.2072271400752044,2.3726752745753896,4.552881397515454
1569406394447197.0,3.265067280812674,0.9366284769495181,0.8205426031639234,0.9671649298525887,1.5593718644321894,2.164368122482255,2.3846737414438772,4.706360933744193
1569406394447197.0,3.2066512297048035,0.9182156837723137,0.8341613884552893,0.9644366098375184,1.5470952684286225,2.1248015343312767,2.35236541678493,4.639863778137872
1569406394463860.0,3.176009666005426,0.9296379449744951,0.8565349129111142,0.9690811651582535,1.5133915348551468,2.0784605469430693,2.353661965875015,4.798021445482851
1569406394463860.0,3.1239899004964093,0.9211126629517109,0.8718532806863033,0.9695633048188979,1.5015933494985634,2.0359386959925976,2.313733415622927,4.767473195149376
1569406394464852.0,3.094708261938956,0.9376946537346842,0.8920264696282677,0.9773085258700349,1.471228948548539,1.9896481207652679,2.303604901956976,4.918432976628662
1569406394464852.0,3.0436346776513266,0.9328017970730734,0.9039039521645162,0.9814955865543138,1.4599892704510697,1.9475987786197735,2.2572160099392318,4.901812273539115
1569406394510730.0,3.0130985142391022,0.9445443328301478,0.9201660856915674,0.9904100189613987,1.4324536977975497,1.9021433965483192,2.241663169258886,5.053582762740057
1569406394510730.0,2.966103466523329,0.9388646020050717,0.9327789871864615,0.9949607706134778,1.4235584319074661,1.8607626887703133,2.198919105593201,5.057390098023817
1569406394511728.0,2.9406106466821997,0.9514754294197432,0.951364664500195,1.0040693361312305,1.3983796712314427,1.8183470858243305,2.187527505703137,5.191742520567619
1569406394511728.0,2.8987495804087557,0.9507500871367227,0.9657627567135874,1.0114013092898988,1.3892420695083192,1.781991077086836,2.153787289654728,5.184466726772769
1569406394516012.0,2.8758624055745923,0.9666074397641831,0.9844607170793709,1.0244035102676945,1.366722899176478,1.7443901038525422,2.1482668454899185,5.301253005517573
1569406394516012.0,2.8409159506725423,0.9669443791761481,0.999581343169335,1.0368907742111593,1.3604480490722974,1.7116061722846465,2.1220530979492334,5.288540206841758
1569406394516778.0,2.823097764822413,0.9766223797341025,1.018016430415045,1.0536744983114459,1.3408029809175508,1.6795683949156774,2.1201857230139485,5.378433227842746
1569406394516778.0,2.7895327339393927,0.9711388437959142,1.0312228149544522,1.0666070851958005,1.3349275909628477,1.6550515741784204,2.1010678620754737,5.35056927520833
1569406394521999.0,2.769771031163137,0.9778346363582545,1.0468653904905298,1.0810750992969513,1.3162233976208444,1.6341357609993736,2.1047927025307818,5.43552004584524
1569406394521999.0,2.7390391573478805,0.9732436575262433,1.0587227541307713,1.09162578916609,1.3103175113420027,1.6200774569442764,2.090017038070092,5.417555255797502
1569406394529725.0,2.7255464639382425,0.9789734928430295,1.071438374905361,1.1028716442880504,1.2916179193653679,1.6033355660430455,2.0929658384057457,5.496324726325948
1569406394529725.0,2.7034478358419367,0.9757876809136438,1.0769587213365208,1.1072151980316614,1.2826363296180514,1.587218377090344,2.0805911413969733,5.477431953973354
1569406394538663.0,2.6981377206817734,0.9852253608429086,1.0824156397536804,1.1098656328458654,1.2621605346920175,1.569249941477344,2.0875412129194646,5.5516170248430265
1569406394538663.0,2.6841298508452023,0.9869637154594783,1.0848737471626342,1.1074512789346946,1.2552227089153494,1.5536961887640017,2.0834445207424896,5.529150004132815
1569406394551917.0,2.6811327025189384,0.9975355961175032,1.0908294587798915,1.1049396223877228,1.2395297092104827,1.53449443159419,2.0978941443778045,5.585234593175934
1569406394551917.0,2.6647717652996783,0.9999485778726328,1.0946128480373363,1.0985848470945816,1.2341529707474308,1.5155884565090443,2.1011818428786255,5.551718966891743
1569406394560602.0,2.6577439231560938,1.012889072215974,1.1030703562321147,1.0967423891594403,1.216523171849718,1.495471046088364,2.1185182087943333,5.60755307492758
1569406394560602.0,2.6420597944941093,1.0214718137366159,1.1096139933672855,1.0947637506561336,1.2064180680639913,1.4785555982163439,2.124929246570556,5.587322590495116
1569406394582583.0,2.6399542749252607,1.0378445958652975,1.1175268285342987,1.09524342264687,1.1876440697639927,1.4627080350563209,2.14709820490391,5.646584474993881
1569406394582583.0,2.630314071343778,1.0461293958824054,1.1245138451836267,1.0944066545561673,1.1802427519241732,1.4525603164510434,2.1568162175836583,5.629550702703922
1569406394584572.0,2.6263428354009326,1.0593252787862903,1.1381456266781316,1.0971732285950204,1.165743501552563,1.442357303734672,2.1678488319348395,5.672603933985552
1569406394584572.0,2.606867969604072,1.0649558566333843,1.1532619396360884,1.0975641241486198,1.1614692570986984,1.4337499642289804,2.162694257008311,5.625603537060739
1569406394597536.0,2.595616698141175,1.0752864273303622,1.1704539101819182,1.0981765254096314,1.1509480369715772,1.4241745801702774,2.1697253141862447,5.65437483932464
1569406394597536.0,2.5776586713916645,1.0756395220204733,1.1828676608132338,1.0955062907857676,1.1506398889098208,1.417590613773232,2.1699468567104745,5.623332587656577
1569406394604479.0,2.568758058962132,1.0807062595683723,1.1947902473167593,1.0944471939177394,1.1446443479258734,1.4126303721660551,2.1807156854827263,5.657864724018366
1569406394604479.0,2.5523049976472865,1.0830492660700093,1.2040991805479555,1.091308171189081,1.146563265998008,1.4103768536072732,2.180902070066055,5.620698770132557
1569406394620439.0,2.5464007418919326,1.0938708225488987,1.2153506822601199,1.0895936289880808,1.1424348949989798,1.4051956644426487,2.1870503337555722,5.646966612404612
1569406394620439.0,2.533481165758403,1.0992832450520624,1.2227151208107787,1.0864805867089566,1.1470865352356454,1.39821496251555,2.1802237590013442,5.606646466119238
1569406394621435.0,2.5263730238966677,1.109019620504337,1.2293626768193018,1.087437310504377,1.145110873923961,1.3866075307493266,2.179904366491775,5.629947940020138
1569406394621435.0,2.50933509983974,1.1136627527795364,1.2330726225476496,1.0909077440214126,1.1495205291491777,1.373185331893609,2.175157507248108,5.596647449460162
1569406394643377.0,2.496505250916887,1.1234072213140927,1.2390467246860737,1.099580247812612,1.1495172937237699,1.3554559465027904,2.1854948657149245,5.624745007899904
1569406394643377.0,2.475523610154577,1.1285571278437596,1.242810452531639,1.1097462935442868,1.1553889519631075,1.3378683145633292,2.195784894137437,5.600438553091386
1569406394644375.0,2.465042058829797,1.138568073148085,1.2476318412346823,1.123441778874727,1.1527375807781204,1.321223475145772,2.2183772141543354,5.641236427209571
1569406394644375.0,2.4518124041521574,1.1452898565656668,1.251868103415335,1.1360108079912024,1.1535999211319532,1.3092695663519478,2.2410983296866127,5.636256771552379
1569406394657338.0,2.448833995147814,1.157747813854432,1.2588977379234594,1.1495858982728016,1.146584896448683,1.30012070893947,2.277140653596899,5.695031335831802
1569406394657338.0,2.443579566754537,1.1648371697934359,1.263611224930957,1.1627343194356752,1.1449658923357766,1.2953916669190881,2.311028277717174,5.7005294928787835
1569406394671301.0,2.4499608475353156,1.1759043364751043,1.2722042510420997,1.1781091774854593,1.138255335802165,1.2927589848855066,2.353152733643439,5.753937082917823
1569406394671301.0,2.4535096932297793,1.1818289838258567,1.2833871891437307,1.1936876619554027,1.1370832511833997,1.292350101641084,2.3846993720040692,5.757313290116831
1569406394680279.0,2.4626965878512057,1.19055264478627,1.2996254735125592,1.2105402606908886,1.1329146367534406,1.2904494335145777,2.4037983519205772,5.806549559266718
1569406394680279.0,2.4624353577331064,1.1944304125880998,1.3153352488106131,1.2224385707179664,1.1369413972763018,1.2886854193238584,2.4035121477009738,5.795234889822041
1569406394682272.0,2.45969774398384,1.197621736969905,1.329982821766488,1.2289440843728887,1.1360360356139523,1.287280458594221,2.407548787909631,5.82084832606548
1569406394682272.0,2.4434385759759167,1.1909429005120076,1.337209148130316,1.2281951795221573,1.139842099899438,1.2889301161224382,2.40746336540806,5.794686648623035
1569406394703260.0,2.4315651677220633,1.188223494217437,1.340198577227393,1.2273017085944358,1.1411968484150639,1.2916569173463401,2.415301165011212,5.825735727743862
1569406394703260.0,2.41565497849083,1.184164976951086,1.3366231355137976,1.2248499240220108,1.1493914578640219,1.2957470105295072,2.420079900299144,5.807760652401737
1569406394704215.0,2.404363034223222,1.1851883231653726,1.3316077502191388,1.2200649616915287,1.1511827370136725,1.2958570439853967,2.4303523472315565,5.813565347879185
1569406394704215.0,2.3856585046007894,1.180663115234085,1.322632027723663,1.2121882710082532,1.152890308171871,1.2930462656125665,2.431780491766285,5.75098034632244
1569406394717180.0,2.372604228933204,1.1786992983098856,1.3131552719107604,1.2065436914076417,1.1465003328372179,1.2898248128044878,2.4356013086798307,5.727906421044374
1569406394717180.0,2.357424279588822,1.1724416850828352,1.3000552231105509,1.198876479792556,1.143946482386054,1.2891642845088682,2.4336344833884587,5.655669187084837
1569406394724203.0,2.3510516868710405,1.1698433590629769,1.2878563853001797,1.1910177309126744,1.139140635740202,1.2884828028853312,2.4361724610360804,5.633281985437517
1569406394724203.0,2.343317580954676,1.1632098823966976,1.2737620212744427,1.1830283844707394,1.1413103736144214,1.2870353663595608,2.4343847192389583,5.575303893314517
1569406394740119.0,2.343883976361278,1.1601183937748156,1.2626288166273198,1.179417011201206,1.137474222591501,1.2814420439428404,2.436591669710108,5.568079626241319
1569406394740119.0,2.3415450758292833,1.1529227245410911,1.25113471770698,1.1761646660880827,1.1358001123864345,1.2733358658932257,2.4319027246978693,5.524618402623862
1569406394742113.0,2.344026782725801,1.1496659208721585,1.2437329805526263,1.1753787317417848,1.1287753513011625,1.265350836636177,2.433414316272339,5.53681856597851
1569406394742113.0,2.3443257140514726,1.1446317231534955,1.2386193521840083,1.176037198691762,1.124055976971538,1.260625005056512,2.4347937224607596,5.521832163479489
1569406394764054.0,2.355122678638194,1.144610366209534,1.240069593382809,1.1791529645970753,1.1130873632921372,1.255294565763484,2.4451022194420977,5.563386825994818
1569406394764054.0,2.3660752710035458,1.1417671063284787,1.2440300893974197,1.1799175378858162,1.1060252787938951,1.2504168321764126,2.4547660675965557,5.569345441983522
1569406394764054.0,2.3801364230916064,1.1418330102991734,1.2506184185265699,1.1819158824308822,1.0929619657022702,1.2474868416759266,2.473597142927289,5.595184478216594
1569406394764054.0,2.3897084965199094,1.1374556651633585,1.2561084575742831,1.1846606893673708,1.0801947181541138,1.2469999429144834,2.495047183193081,5.566591112784007
1569406394777019.0,2.4044443771501594,1.1360411177553178,1.2638411716340552,1.1876779811997737,1.059810693659189,1.2446584514245758,2.519266224457805,5.574573363215192
1569406394777019.0,2.407939789425945,1.1309513678252008,1.2690391547578999,1.1877754734554569,1.0410023377088329,1.2404046611909758,2.5272161864895892,5.528265163661302
1569406394784043.0,2.4052866063906673,1.1301533537949082,1.2729271408040206,1.1899576642330956,1.0163558145013925,1.2337123980584164,2.5313789152616732,5.508029181892454
1569406394784043.0,2.39447676432782,1.1295288370820535,1.2727912017611474,1.1928524622959429,0.9968750557574835,1.22625732505423,2.531172127961838,5.45166969534993
1569406394799958.0,2.3891301971263337,1.134105881430941,1.2724483248126004,1.197813724897711,0.9753112568433788,1.2182879414756513,2.5364746478761124,5.440524779833581
1569406394799958.0,2.3824200665823754,1.1358870538251236,1.2686957109018242,1.2019873661558442,0.9596967679645941,1.209981080100689,2.5402387683935426,5.39613926183648
1569406394802996.0,2.3770149725726792,1.1399996310853928,1.2660357459170684,1.2063798065857076,0.9408903347994076,1.2005055255015722,2.5484173518294995,5.382368500205983
1569406394802996.0,2.3638217552206306,1.1419160915502171,1.2625621429615534,1.2079278713244819,0.9273258300123786,1.1942592542210155,2.5550103303339684,5.328768025910389
1569406394822895.0,2.352580527643554,1.1457137232670989,1.2588580900990345,1.207068731300064,0.9122013482845777,1.1900875353446576,2.567914666597833,5.316209328584243
1569406394822895.0,2.335111445002634,1.1447114466710204,1.253170254264948,1.2028857022032982,0.9019961457125663,1.1843903948342658,2.574934044598157,5.272230552388926
1569406394828880.0,2.320749317016862,1.1463614678756395,1.2499701928574605,1.1995738892353358,0.8894570469178342,1.176674051816012,2.5877689978162257,5.269675518150583
1569406394828880.0,2.305800621108671,1.145540002911052,1.24560710867899,1.1953035911494703,0.8812715736934496,1.1711984860110214,2.6064703711327555,5.240855413289691
1569406394836861.0,2.298175098108402,1.148121129460433,1.2435543898822812,1.1931158529387422,0.8717770392488572,1.1669330483017508,2.6347394499806076,5.246090867952198
1569406394836861.0,2.2893199068662278,1.1471690324361046,1.2417452059604681,1.1918102650956766,0.8679966401760449,1.1646483702765458,2.6612017163070454,5.213258107261918
1569406394845853.0,2.2850635072718872,1.1461712226670973,1.241650791727952,1.1908049045589295,0.8630634157285418,1.1632826806215153,2.685294535968042,5.207973909909795
1569406394845853.0,2.274972048730144,1.1409865860593962,1.2424738981158887,1.186294081453956,0.8627319797272563,1.1601421681939614,2.6862632527917993,5.159243611421415
1569406394860797.0,2.2665309063588066,1.1383361666921692,1.247214539670555,1.1807382114045613,0.8606543283149897,1.1551568781003911,2.677867609029692,5.137650744684438
1569406394860797.0,2.2562942296190114,1.1333327148116064,1.2500002155360246,1.1727153898421256,0.8614080053087099,1.1533742044312094,2.669139760436169,5.09071310284095
1569406394861792.0,2.250254731331294,1.1300716301177127,1.2544815576819384,1.1661617038778815,0.8619525946604695,1.1545683115476746,2.6673439980559652,5.082718025920965
1569406394861792.0,2.237649338419922,1.1200799659618932,1.2591509216690486,1.1597534625788808,0.8679341754881081,1.1555773928116593,2.6594407818481445,5.049138529736689
1569406394882736.0,2.2236168593215675,1.1101463235478004,1.2644743533506075,1.1544909800175562,0.8731981901086917,1.1537580300311348,2.6546087596611687,5.050625614597946
1569406394882736.0,2.205927132628751,1.097491741786012,1.267599696373796,1.1483211061984635,0.8807292841304682,1.1521533751368636,2.6481954045424425,5.027016860609749
1569406394884731.0,2.1933408206699885,1.0866850610625767,1.270685562994509,1.1429582939288956,0.8861922628276852,1.1519133430125459,2.6471518413652775,5.041052383934164
1569406394884731.0,2.176408269048348,1.0737456589681902,1.2719262281866746,1.137307783261659,0.8935982857563539,1.151823978196279,2.6445715389432514,5.0286356416296405
1569406394905676.0,2.16120816055248,1.0665163557983837,1.2750981933039596,1.1344309856218397,0.898236334982621,1.1510454469520617,2.6454258530568517,5.031314831948241
1569406394905676.0,2.141785397322692,1.0571360895025979,1.2774207346984559,1.132878067770519,0.902471238976722,1.1503013498562977,2.640112284123547,4.995087061943223
1569406394906672.0,2.1226913003536634,1.0466170439269595,1.2803120893443782,1.134679217260194,0.9032133877490995,1.1469542187576292,2.6384335688444738,4.984357374686958
1569406394906672.0,2.0974391830019137,1.0297066428944712,1.2804317037431914,1.1374371942193116,0.9041904454500376,1.141678386543246,2.6335958235613486,4.940158191113802
1569406394920637.0,2.0756987447174056,1.0142226536327394,1.278434318433549,1.1426491842287134,0.9013842337570042,1.136976703154511,2.6334650257865997,4.9210949013189875
1569406394920637.0,2.0549581383278883,0.9965051817384247,1.2728756581637892,1.1491758692408571,0.9001570035601312,1.1348209343578106,2.633728208991416,4.880806394880993
1569406394923628.0,2.0404791008517407,0.9820587104213566,1.2674980404614915,1.1568142314162164,0.8974899827920932,1.134282248674523,2.6404318267571343,4.874666252707234
1569406394923628.0,2.023809945064263,0.9660600098410437,1.2595132753392797,1.1627496681248166,0.896585964854636,1.1337711884310546,2.6403882840961295,4.849990058582686
1569406394950557.0,2.0106760674263526,0.9536397595669227,1.2533529616173071,1.168166338477247,0.895415185358553,1.1326199830846575,2.638105526955994,4.849418574289491
1569406394950557.0,1.9966557677659624,0.9404149246546032,1.246796447050411,1.1724121704104833,0.8964998810279335,1.1312756617059938,2.63123440354173,4.816766783906569
1569406394951557.0,1.9883476466302126,0.9296595908995616,1.2399741348533275,1.1774330497527452,0.8955907854050646,1.1282186385782018,2.631383222474174,4.809711262554138
1569406394951557.0,1.9797422766986745,0.9148319707288153,1.230696951069631,1.1799117703127306,0.8963248478472519,1.1245115984937093,2.6319379906560627,4.78751983626835
1569406394956542.0,1.9729789470597767,0.9009890002447968,1.221576127181278,1.1798860627149945,0.8970759457731383,1.120854197802744,2.6330430333355213,4.79355154949722
1569406394956542.0,1.9608662967076336,0.8832974691699925,1.2094744453891448,1.1751557152368899,0.9008473753681078,1.1186311965528277,2.6161036080001216,4.776424857469391
1569406394965560.0,1.9484472656353453,0.8674072409029797,1.1984785267153404,1.1683108105577447,0.9043631770906321,1.1178228423949572,2.5900744565342113,4.7826767465121955
1569406394965560.0,1.9309493632607577,0.8517621819977799,1.1869280728938703,1.160723231789057,0.9079844906161652,1.1177170898432547,2.558977050280536,4.770898192857068
1569406394980475.0,1.9173194734489525,0.8403617213185192,1.1760955725673603,1.1553326770138916,0.9097341901267492,1.1180186818719193,2.5345870886803312,4.788119084614217
1569406394980475.0,1.905226739548681,0.828202054720849,1.1638611122387859,1.1519549210153002,0.914189324343697,1.1188830917554415,2.5104467678936917,4.795701676278531
1569406394982492.0,1.897289302020887,0.8198249703414441,1.1546709154095887,1.152914108986887,0.9185586634696264,1.1220705705680214,2.4958488818107463,4.833041748333215
1569406394982492.0,1.8884042549338906,0.8122921473412896,1.1474134014357262,1.1552699059960367,0.9231020535386177,1.12912159426066,2.4845517336549885,4.856858761928878
1569406395003417.0,1.8859717550583868,0.8078361866015066,1.142815594342701,1.1594262604049217,0.9243047491338532,1.1370251514702332,2.47998758885169,4.907701355757235
1569406395003417.0,1.886108350439962,0.8042156091213728,1.1380366422948618,1.1631992168045397,0.9248843103284662,1.1447257695623214,2.4709679605378647,4.950947040456369
1569406395004413.0,1.8920200628105008,0.8057262381447545,1.13633629501276,1.1658611963032623,0.9246628128435034,1.1530926938289758,2.4644962897029727,5.021070468307164
1569406395004413.0,1.898201275096003,0.8083232409654891,1.1359829652996316,1.1652013282350242,0.9270510098109608,1.1613025217380444,2.4530151504791786,5.074594974294233
1569406395016415.0,1.9094003375151296,0.8119243903396421,1.1394004920956164,1.1643336763348886,0.9294263780329991,1.169198386042141,2.446557826282699,5.139873361777838
1569406395016415.0,1.9198051361666517,0.81502491009027,1.145172688265267,1.1622702985590478,0.9318319887114758,1.1769653203575534,2.440822612494998,5.170640396370688
1569406395025357.0,1.9289340758036393,0.8197698222409187,1.1548145982670457,1.1593295499086373,0.9309858821872442,1.1825131116664493,2.4367124756394203,5.195414506596785
1569406395025357.0,1.9293765337354556,0.8232061021365258,1.160711140810883,1.1537042824589472,0.9294264044054598,1.1867993826179897,2.426270783123948,5.18031357520548
1569406395040316.0,1.9252316521543424,0.8277936181537423,1.1609460622295822,1.1472729589335033,0.9271600459949351,1.1918202978410644,2.419641578932331,5.176235473631728
1569406395040316.0,1.9175279232017919,0.8331983108461349,1.1570838106242478,1.1406082259892831,0.9274472725988225,1.195846638641275,2.412431724520503,5.1605455205111515
1569406395042314.0,1.9149509078275702,0.8400186358608275,1.1528909722280845,1.1355933573568746,0.9268335714876067,1.1957589128389128,2.4100249854377442,5.171707016958543
1569406395042314.0,1.9110407736668547,0.8449495561442854,1.1462949542735306,1.1308604557978783,0.9247671410296505,1.191413212489219,2.4036052282388094,5.162213701970055
1569406395063256.0,1.9045599966952795,0.8478567574047107,1.1395948372297628,1.128134355703039,0.9209618629326155,1.185534320906635,2.3995167535275823,5.164637428976194
1569406395063256.0,1.894825505767203,0.8493964841332756,1.1294696246680132,1.1251258755896234,0.9194130810547476,1.1802506256770904,2.3930392663173157,5.149461989938335
1569406395064258.0,1.8873588817926694,0.853727188388977,1.1179527922138617,1.1230477775228525,0.9176853874860188,1.176498804220489,2.3936711687021472,5.1532319060737235
1569406395064258.0,1.8727588082234397,0.8593155790199885,1.1046720219907158,1.1204655630006903,0.9172743690729374,1.1764732735350454,2.397873450705571,5.140068701920194
1569406395076222.0,1.8580437067809898,0.8648168823298839,1.0930760502622159,1.1197313105223163,0.9177341967800003,1.1783461302476341,2.4132958705464844,5.152579568625839
1569406395076222.0,1.844143581636789,0.8715010764230231,1.0815616747051635,1.1192063319684937,0.9198296953180074,1.1762098591464576,2.426439974377605,5.155009109481068
1569406395088199.0,1.8316627650683728,0.8820467089442214,1.0723636787195716,1.1178722347338912,0.9210234660408797,1.1686800432120825,2.4283156103433905,5.17155235150998
1569406395088199.0,1.8165198437412435,0.8951546534677253,1.0637356161831002,1.1148162133421924,0.9226334406981657,1.1606150828211133,2.4174322034530644,5.169267498084272
1569406395099160.0,1.804217735216201,0.9101268044868557,1.0579941592801623,1.1123517961747118,0.9242787905613946,1.1550697226899482,2.411134015686184,5.181748631503711
1569406395099160.0,1.7887156528352623,0.9257615898685219,1.0527233442550372,1.1093457044726152,0.9266988729853051,1.1512035356186894,2.400788872740493,5.169707087921842
1569406395109133.0,1.7712875471942362,0.9393291960530673,1.0486855969638031,1.106956479378072,0.9254320578899974,1.1489630717511223,2.3909978651974773,5.175058270856621
1569406395109133.0,1.7522760679531173,0.9496544343299322,1.0437726554545894,1.1049193663574255,0.9213333159975327,1.1474535912260526,2.3738493918387156,5.174189912148207
1569406395123095.0,1.7389751787440768,0.9580039085407649,1.0399138341067125,1.1050546189373873,0.9146478958351952,1.141659764096494,2.3473974333508103,5.194413565919052
1569406395123095.0,1.7276393117513846,0.9632175010809008,1.0343861673365857,1.1044347130607601,0.9097016177263009,1.129463486770128,2.3056395233447766,5.189508081666099
1569406395124094.0,1.719673861904523,0.9636518812888889,1.0283280268846613,1.102902881944581,0.9066273382015811,1.1146621177690463,2.262965240552243,5.193898084458661
1569406395124094.0,1.7112956179635697,0.9587552177864402,1.0210918171304144,1.0988149965819765,0.9049305791319933,1.102317694729513,2.217223811284441,5.18682678712525
1569406395137056.0,1.7068156755903527,0.9507898016422237,1.0129216797158669,1.0939429664112346,0.903218612167223,1.0935271140538119,2.1761451823668234,5.203670768636263
1569406395137056.0,1.702883770943355,0.9401315667305934,0.9996658198609304,1.0880175302200397,0.9028895913086737,1.0863293421312785,2.133279481848425,5.210436935024438
1569406395146034.0,1.7014207759149755,0.9291338664373828,0.9845949800036542,1.083168978579936,0.9007631970864987,1.0808050993568146,2.097156442005722,5.2393606232174434
1569406395146034.0,1.6985702444876882,0.9203644164048362,0.969102364657021,1.0796268689979396,0.8977164507729318,1.0789465336859119,2.0638657755038743,5.262700173065739
1569406395159998.0,1.6954008689903812,0.9144656349534884,0.9567296478352865,1.0781810431825916,0.893515899942749,1.0807268089749462,2.03911263512539,5.312378367843326
1569406395159998.0,1.690037527665006,0.9101039121572323,0.9465274729699124,1.0757968297746838,0.8902700771486454,1.0850050411303054,2.0146075639246996,5.338417149366611
1569406395163986.0,1.6884634860655479,0.9075926646197575,0.9407070648098842,1.0719811000485242,0.8870676689990411,1.0918184994563414,1.9976046003966865,5.351180173970566
1569406395163986.0,1.6891851074877797,0.906730366774012,0.9376498925067538,1.0667940319964337,0.8838999116979436,1.1008987850267675,1.9847285916204784,5.3218054275315385
1569406395183933.0,1.695326143803285,0.9076520294717063,0.9361632895818011,1.0646993464396504,0.8806721516635518,1.1111332764351387,1.9803589014777565,5.304752363364402
1569406395183933.0,1.7040309986143827,0.9102973037324258,0.9328512773945788,1.064800768941848,0.8784990293573902,1.1193722562886461,1.979202042308297,5.279095003433323
1569406395183933.0,1.7118126576703192,0.9136035636909219,0.92981700475671,1.0653759432810266,0.8754343303713312,1.1251614608526785,1.9879129474345425,5.270589973657231
1569406395183933.0,1.7135013736689797,0.9156577830111755,0.924610332968233,1.0639226747209192,0.8722995386311142,1.1295383791545597,1.9965387882141101,5.2404744416870805
1569406395196897.0,1.7116239206981418,0.9153547920381954,0.9185782210768085,1.0611607163454986,0.868171649098907,1.1339081494818373,2.000240152040879,5.215379859200342
1569406395196897.0,1.703505142816209,0.9139586159053165,0.9134170318731478,1.0558136977593886,0.8648057811441053,1.1410684098726038,1.992629748992997,5.161237369018166
1569406395205872.0,1.696741443005773,0.9132600753736002,0.9121821142005894,1.0484652747255003,0.86255671645841,1.1516716507464413,1.9826775671116972,5.119297578819104
1569406395205872.0,1.6923528123587026,0.9145967310591568,0.9134433396116981,1.0394766877804777,0.8603819281672934,1.1632129087679985,1.965838441974824,5.059010896762082
1569406395227848.0,1.6881263095704502,0.9185855145750996,0.9163674465061352,1.0322559237807678,0.8543945337062934,1.1739939186546196,1.946594321646437,5.017925158930111
1569406395227848.0,1.6805004252412703,0.9265944406677769,0.9193493195466946,1.0252728226606864,0.8458794518874867,1.1831391271624976,1.9237993759760288,4.96575534245059
1569406395229808.0,1.674464778256717,0.9368357125848928,0.9253099320033235,1.0191670922674991,0.8380799838684538,1.1921818458932518,1.9039077034937921,4.933266397665204
1569406395229808.0,1.6677629868763928,0.9478973798761273,0.9347918564088975,1.0151417741694029,0.8328969835703651,1.2027540064860391,1.8822399700704613,4.888008150703455
1569406395242774.0,1.6606156397626812,0.9581619712281582,0.9492707848555645,1.014054711095489,0.8288365417901374,1.2146340292036983,1.8661906604011271,4.865647356742361
1569406395242774.0,1.6545622145878236,0.9684273346285819,0.9655938188416092,1.0119547256397783,0.8264143532266089,1.225535886992837,1.853905790594566,4.83289401382257
1569406395244769.0,1.6547542650765585,0.9779251449384277,0.9801732276565043,1.0089698884738763,0.8242268952791499,1.2349547380059986,1.8483717644709678,4.815791032644874
1569406395244769.0,1.6586166397441098,0.9863846969707799,0.9926207320255463,1.0059668267961777,0.8215890977522932,1.242762731555282,1.8449030224387597,4.785941404032666
1569406395256737.0,1.664293726370362,0.9912351096443766,1.0040730646325384,1.0051645780042768,0.8181348980392926,1.2482324354188366,1.8457508274349321,4.778908238658006
1569406395256737.0,1.667277754929505,0.9934788225348863,1.010597446662987,1.0050220107702896,0.8150889285959559,1.2505727075653084,1.8439114365800386,4.763455985295915
1569406395265714.0,1.6699480798531177,0.9934488391614869,1.013035700149061,1.0061096110593848,0.8132810750554695,1.2522629595142305,1.8418531903796582,4.760681596744445
1569406395265714.0,1.6686491928062086,0.9919044275480594,1.013304149021121,1.0088510404737525,0.8118542394758461,1.2546552417003862,1.8376881649784729,4.728665009970731
1569406395280672.0,1.66487054729977,0.9902182907407256,1.014301596182627,1.0132451863414438,0.8097188934228807,1.2555756063892296,1.8366169448745384,4.7039847172469935
1569406395280672.0,1.660164790586009,0.9898059307730921,1.0168361058958226,1.0184744783880062,0.806881134931127,1.2522626659378697,1.8378301776427508,4.666815230377922
1569406395281669.0,1.65542277522709,0.9879787336511036,1.0192773436185996,1.025536255037804,0.8043860896121406,1.2463888081279786,1.8459335842011872,4.650461772835999
1569406395281669.0,1.6486639656051434,0.9855846133323148,1.0180736104211856,1.0319060319518143,0.8031213698191855,1.2396231098907897,1.8587255397173488,4.63119801162065
1569406395302655.0,1.6440704702156412,0.9829494905636146,1.0173458102880455,1.0369848844414224,0.8032140968542624,1.2319250263364485,1.878786711260954,4.635662230867374
1569406395302655.0,1.6430409168550473,0.9817366800816782,1.0191845431444426,1.0398426906597302,0.8033695472519625,1.2221169400675185,1.89727909478054,4.625384654652217
1569406395304653.0,1.645560960258096,0.9810552369493927,1.0219833018842066,1.0418850383501843,0.8018858235019223,1.2105160003915336,1.910185562341745,4.624230026623923
1569406395304653.0,1.6491844048622541,0.9806960792454176,1.0226872352555063,1.0435304371978615,0.7985077794937653,1.196879747081789,1.9187510447964167,4.609542736454744
1569406395325555.0,1.65622278486048,0.9799229924542616,1.0217219102545045,1.0455331719479282,0.7936220916918323,1.1807130909589194,1.9306517072286449,4.603806658525809
1569406395325555.0,1.66494055648247,0.9796520503936412,1.0179832936795543,1.0472871512198625,0.7869776406920149,1.1651331846985602,1.9457266109398577,4.5696467643566425
1569406395326550.0,1.6745321347069733,0.980091335768212,1.0137007275650414,1.0494560782677371,0.7821802275168263,1.15199152440038,1.9613485178796557,4.540982455204048
1569406395326550.0,1.681764981847566,0.9830939894236739,1.01134265686425,1.0514402868559958,0.7805715135996295,1.1411554404840176,1.9682846475436446,4.496580419699261
1569406395340515.0,1.6871697384545765,0.9885480962287179,1.0123768924697547,1.0538877077555262,0.7826737939178328,1.1348008815604451,1.972515000012557,4.465654687909047
1569406395340515.0,1.6915824729034534,0.99714186649162,1.0143298550556292,1.0562189712880279,0.7874791685707125,1.1332788970806404,1.9746691839224295,4.4266961043491415
1569406395341512.0,1.6971853665369379,1.0066485712535285,1.0177473611689727,1.0590907911061413,0.7935704227894832,1.1363603224072756,1.9719820914397275,4.412120754107169
1569406395341512.0,1.7032201995714187,1.0170502162531199,1.0222649912347828,1.0620104912234851,0.7982580927462115,1.1422431836727303,1.962682387463547,4.392953573526988
1569406395362473.0,1.711010464751808,1.0262440463358957,1.0268215576258335,1.0648199957990212,0.8046828929978334,1.1491306396303302,1.954880712667998,4.386770731863895
1569406395362473.0,1.7151498135985193,1.0332799301520665,1.0276622838648586,1.0647414793276653,0.8112618083706461,1.1568265380755478,1.9493453833623329,4.362791212659766
1569406395364450.0,1.7115248960684077,1.0347080950878955,1.023423030601663,1.0626989879952504,0.8162255311188837,1.1641577340820928,1.9443553764796515,4.343390555896936
1569406395364450.0,1.7032312716568891,1.0340307601844414,1.017546082464642,1.0611261532265879,0.8187944763182571,1.168504794205728,1.9324550322849356,4.30994462557666
1569406395385393.0,1.694358087636262,1.030970803494107,1.0152971452262585,1.0603341512664668,0.8201379250498948,1.1730838390908476,1.9207749696210599,4.295152606111531
1569406395385393.0,1.6849515754140574,1.024716543962759,1.015791078078515,1.056527070742041,0.8184373829534767,1.1797503656692867,1.9111090239185207,4.278274971497312
1569406395387388.0,1.6790521709129231,1.0166997067339474,1.0188160949108112,1.0504117838907308,0.8173757511667883,1.1859998258311484,1.9021153481768265,4.279292545887551
1569406395387388.0,1.6764384388912354,1.0105966727151616,1.0230920076968852,1.0451801748051035,0.8184801085544099,1.1890995682915957,1.8908018209460737,4.265846858008061
1569406395400353.0,1.676098020361833,1.0061257704167204,1.0262042703652214,1.0432300352937838,0.8235973489704621,1.1902972173242825,1.8832916504529371,4.263801444682936
1569406395400353.0,1.676186894814875,1.0029289033271396,1.026908238247576,1.0423480182284033,0.8307098962656676,1.1914593588292655,1.8773230281339583,4.255318327352405
1569406395402381.0,1.6783394715734752,0.9990672882394768,1.0287328962002484,1.0421018806749665,0.8377941362030289,1.193571152099439,1.8725312117091304,4.25622570758435
1569406395402381.0,1.682186416287863,0.9943869767843506,1.030648090225006,1.040856218234659,0.8410897311168322,1.1961559958269392,1.869815833175962,4.242746524066122
1569406395423291.0,1.6854473017804172,0.9861648981321185,1.0309443428647536,1.0388655251279546,0.8436639150180918,1.1995687320557302,1.8725015114063452,4.2412565622691565
1569406395423291.0,1.6861821503460257,0.9757709067481659,1.0307119286127586,1.036568875095696,0.84514440723197,1.2044699184160492,1.878132926706653,4.23093329443244
1569406395424292.0,1.6868396922160929,0.9654256570693387,1.031828577538277,1.0335764062502106,0.8490479992184461,1.2113056866779313,1.888495711457965,4.231686213077096
1569406395424292.0,1.6869939379963492,0.9576594254458035,1.0329425877431557,1.0299345435160778,0.854051842185095,1.2162837908195132,1.9003687379219731,4.229065284424554
1569406395445232.0,1.6871265478731239,0.9502744900496616,1.0337202310869815,1.0274797869526318,0.859367064533044,1.2190938994563614,1.9130781491265538,4.2402894792719295
1569406395445232.0,1.686815775937873,0.9442623251680063,1.0314507779284041,1.0246022541648254,0.8616246338169671,1.2226877542567376,1.9251671296788102,4.23316400035749
1569406395447254.0,1.6854839303204727,0.9373298128540303,1.027102681443261,1.0236969455099054,0.8619136730403278,1.2274133030086003,1.9370645089797176,4.229317426280235
1569406395447254.0,1.683593204933636,0.929068473039488,1.0221212532583202,1.0248866807569315,0.8590576050837126,1.2314939792679667,1.9481701418185047,4.2138246311455205
1569406395459234.0,1.681686732932041,0.9217696902084578,1.0171707402006134,1.0257807155871244,0.8560549498212047,1.2329074770623167,1.9646207638306938,4.206690223953192
1569406395459234.0,1.6773318286096115,0.9180440874911798,1.0116344508425632,1.025408014606815,0.8531096489938114,1.2283061345136659,1.9749177100214608,4.190608636280517
1569406395466221.0,1.6706446884688992,0.9153923595955381,1.0069338814340225,1.0252350240357757,0.8514269505534091,1.219943424454504,1.963880912686924,4.182604093341438
1569406395466221.0,1.6651377463945638,0.914995366460436,1.0037260813421542,1.024802414230855,0.848426077197904,1.2118807004266121,1.9385370477087367,4.168473901503118
1569406395481174.0,1.6653892104380559,0.9142511242298772,1.002675017978533,1.0245339368744555,0.8461584103879374,1.2066932758490876,1.9137089931074187,4.1720829512114275
1569406395481174.0,1.6704234681356782,0.9138216850554887,1.003521032634126,1.0248444206695584,0.8440414380486827,1.2038795370490223,1.8875664673945414,4.17358447263227
1569406395490125.0,1.6784661133330698,0.9124762029345427,1.0048863685583973,1.0274682031969176,0.844683406303771,1.2012329736168692,1.8614781998963301,4.183820776046628
1569406395490125.0,1.6893370752811743,0.9129445135402102,1.0049522322272517,1.0313089952086762,0.8461194217588642,1.198036667433002,1.8368093792623246,4.188758561370376
1569406395505111.0,1.7031650822371094,0.914215324758087,1.0069507493319776,1.034858271127943,0.8512622153207812,1.1953039764570348,1.8157549276219302,4.209472270785237
1569406395505111.0,1.7188828558556604,0.9166725616184357,1.0119858119570724,1.037340264611692,0.8583399367453428,1.1905174709906905,1.7947175871991083,4.230998081452924
1569406395507067.0,1.7355576109265685,0.9179662716236582,1.0177127060607836,1.0403099676018415,0.8674394829826718,1.1842584362126682,1.7768745206437782,4.267465846171368
1569406395507067.0,1.7512214734490883,0.9212084274429276,1.0215260814126874,1.0424515264347896,0.8725210404735252,1.1785412053232402,1.7641983602098477,4.3011802643571855
1569406395528057.0,1.7600417054320394,0.9252086936158224,1.0245334284172287,1.0441798841792116,0.8759084829087873,1.1745192151041632,1.7585237794246351,4.341525734668307
1569406395528057.0,1.7629350618777353,0.9316095558685111,1.027434453946866,1.044271890232832,0.8802786355871747,1.1727876737396856,1.7559572824515395,4.369572630196965
1569406395529033.0,1.7658883640357728,0.9381029485173438,1.0306364755342299,1.0409376267323267,0.8897110152921861,1.1741672292689804,1.7552765015064555,4.39697887522078
1569406395529033.0,1.767918970577111,0.9453705149685336,1.033887558672952,1.034122389282564,0.9008371852447441,1.177977542735336,1.7564446849435214,4.418613044134835
1569406395541974.0,1.7661293645935099,0.9497927433438871,1.0366197886308548,1.0250577002435908,0.9145356129075917,1.1850268807635083,1.761313442794994,4.454513202944295
1569406395541974.0,1.761349205619137,0.9546894739987306,1.0374576789142775,1.0148439836420866,0.9273590897222717,1.1927125013245452,1.7683144565150977,4.482893129122697
1569406395550968.0,1.7566151858289805,0.9609110473614867,1.03563654875266,1.0062441473746802,0.9408352667181387,1.1993198692238702,1.7759674914431012,4.509753430114224
1569406395550968.0,1.7518525617009024,0.9704860405190591,1.0303938564066213,0.9991087551869756,0.9523587839124967,1.2066656446615298,1.7836708420244924,4.5216388850181435
1569406395564957.0,1.7471595746641102,0.9798926577368222,1.0257544826684093,0.9933083847162483,0.9668781691105682,1.2163876627286747,1.793825199432529,4.542482393269218
1569406395564957.0,1.7404954639362193,0.9911840639703337,1.024769711968216,0.9861992836925045,0.9825606904644587,1.227553016685166,1.8071690659163828,4.565220529910751
1569406395566908.0,1.7279404698896974,1.000616495305354,1.0272832750766383,0.9787390848317218,0.9996729667133346,1.2406468021944612,1.8231417571577038,4.595321753552426
1569406395566908.0,1.7091839666276383,1.009076623758652,1.0291769013476804,0.9725949975772558,1.0125910477741284,1.2518304073880961,1.8317832514785968,4.608443603285518
1569406395587851.0,1.6881221812889928,1.0153006783958667,1.0283679279681306,0.9676635710702896,1.0222059677490205,1.2590362693695054,1.8222700519541615,4.618522362348471
1569406395587851.0,1.6706258141578476,1.0234691966494764,1.0262988357691778,0.9623362498931939,1.0274921307322815,1.2635394751359996,1.8005052536954467,4.6164310554871095
1569406395589845.0,1.6588994902699774,1.030270131901691,1.024249202960663,0.9569324749950212,1.0321048402778774,1.2671431755782947,1.7785948834285454,4.613506211553676
1569406395589845.0,1.6519335133849316,1.036421897535461,1.0238846066619964,0.9517457063840273,1.0341446822161449,1.2705710822811982,1.759447086941431,4.595516373164706
1569406395601819.0,1.6476795913384392,1.0404345894368092,1.0278459579627501,0.9495405323929225,1.0382432144082185,1.2747822528314057,1.74450066138931,4.586789898872637
1569406395601819.0,1.6431265781519138,1.0456045640746598,1.0323490484719247,0.9486257546576445,1.042052989710119,1.2790160532329935,1.7357675479751986,4.57561919508588
1569406395610791.0,1.6371939721715423,1.0494452730292843,1.0323850646357158,0.9453015039972016,1.0472986173392724,1.283424357791862,1.7343823748872673,4.571978985641889
1569406395610791.0,1.6300019317440186,1.0544242083104536,1.0291977028276211,0.9384448756947787,1.0536774113915521,1.2866489357941249,1.7373516750338764,4.5622060413003
1569406395625790.0,1.6234374748564733,1.0583855211530648,1.0250602668054358,0.9292272312617917,1.0631324428425386,1.289900748769517,1.7404336228986004,4.5652402023032215
1569406395625790.0,1.6185432461316616,1.0646961268710886,1.0196035925072824,0.9179360136385469,1.0709195501792588,1.2933756182228373,1.744071038508764,4.563002519193369
1569406395626747.0,1.612104181301758,1.0704628954648796,1.016005053157077,0.9060104032378072,1.0789496771669853,1.297423099908186,1.749902703614357,4.559928854342643
1569406395626747.0,1.6045624536294678,1.0784280326385867,1.0153539356640087,0.892944257143578,1.0848619532145902,1.3016344602667707,1.759457305327999,4.540295005198832
1569406395647691.0,1.5996474648349335,1.0864880721953454,1.0160510033564374,0.8799556346696633,1.0898917878106311,1.302622122937656,1.7720517006288357,4.527898010983447
1569406395647691.0,1.5973488453743248,1.095653962775274,1.0158669135124978,0.8687392169588579,1.0905212493305232,1.2995419250786457,1.7893787488046993,4.51220876151015
1569406395649689.0,1.5933380671058397,1.1030580934565102,1.0138539976138023,0.860143282640388,1.090452854173011,1.2992295357214774,1.8091814057748499,4.505802535011315
1569406395649689.0,1.5884781882206138,1.1123305688078486,1.0106595771796703,0.852873767002675,1.0897791280019442,1.3037966579679068,1.8285486694533686,4.493445241057532
1569406395661698.0,1.587447938659096,1.1200401472274983,1.0084461009302337,0.847323659925341,1.0925894228601307,1.3113723821320271,1.84708331054003,4.494129199237949
1569406395661698.0,1.5921486345961136,1.1272085820930906,1.00817571761726,0.8422897455676276,1.0976537209663297,1.3192929105744222,1.8711114002702502,4.494953782089497
1569406395670629.0,1.5986017768762302,1.132301592424523,1.0091008639937207,0.8359483441805979,1.105993768009303,1.3280709645183901,1.9016037723949313,4.497143141653078
1569406395670629.0,1.6044797106687694,1.1387649668162367,1.0100825111308935,0.8276295571142118,1.1132897610252275,1.338558312560338,1.9361277129061676,4.475815573402416
1569406395685593.0,1.6085142888549202,1.1438768800131303,1.0102395372890896,0.8204863572510745,1.1225252469456144,1.351484283664252,1.970497391988582,4.4533127535436225
1569406395685593.0,1.612697367958086,1.1503090615608982,1.0083833819301966,0.816614368038785,1.13191632523127,1.3656022591962058,2.005720165605624,4.419038929096121
1569406395686587.0,1.6183068113651204,1.1554853356658656,1.0065181565205084,0.8164129395501679,1.1432311523984664,1.380217471080052,2.0313725855673916,4.384665129371539
1569406395686587.0,1.6257944083587275,1.1622951528738337,1.0076333175328418,0.8198368924961019,1.1526176139120183,1.395043866134303,2.045377209879483,4.340453587684793
1569406395707531.0,1.633622349438994,1.1688238211348512,1.0109045559221965,0.8259782958361911,1.160948106072704,1.4129192711021221,2.0584796301396455,4.312428621521591
1569406395707531.0,1.6448210019169844,1.1760393308017572,1.0142774920646123,0.8337216814762715,1.1665803764726645,1.4328952501002885,2.0776748389456814,4.284870488173258
1569406395709529.0,1.6600418002457544,1.1811797550590764,1.0187653693991852,0.8430192464630476,1.1715756825303272,1.4520833373974882,2.098993892756845,4.264538474892517
1569406395709529.0,1.6794660420836756,1.1909513418017639,1.0233714008353916,0.8528638773809204,1.1730496803051178,1.46842124329719,2.122618032646795,4.240024085089133
1569406395721495.0,1.699580259988936,1.2037768262968502,1.027108728590957,0.8632387635782116,1.1733057171783536,1.4834850269766386,2.1440103161674946,4.230148643108023
1569406395721495.0,1.7183930180778015,1.2210365110921892,1.0309916114021767,0.8762157353706471,1.168428529943899,1.4991825787760762,2.1602495504189325,4.22226805753562
1569406395730470.0,1.7334317787904707,1.239290262907079,1.0340150779274817,0.8915388396944776,1.1614199449882538,1.5184772407126823,2.1732123513817543,4.229073742729803
1569406395730470.0,1.746240443227582,1.2600784071550017,1.036256287112082,0.9072818328808686,1.1536929251704124,1.5402742378422496,2.1909520017019357,4.227303267509126
1569406395745464.0,1.7565381919669483,1.2776612839508716,1.038688244735621,0.9223829274295258,1.1485460184984229,1.5625020724582819,2.213288428509946,4.224838083176065
1569406395745464.0,1.7612960570384064,1.2921790999079035,1.0414120710383625,0.9370371608082807,1.1436000322269149,1.5828782025242634,2.2380322586337607,4.2038662501059125
1569406395747425.0,1.7590704148053167,1.3027088075239137,1.0454261928796256,0.9501225044368192,1.1422010338977822,1.6018485069041646,2.261325302019987,4.179986529994363
1569406395747425.0,1.7544324448010098,1.3152994299341152,1.052845011270297,0.9599616314755375,1.1433444193722262,1.6186877696576012,2.2856263419555565,4.14570129219456
1569406395767374.0,1.7486846176410067,1.327303986380692,1.0644537173616175,0.9666483275839132,1.1478867479812833,1.632366907881709,2.3104392941312506,4.112983995806901
1569406395767374.0,1.7468399712874625,1.3382729525715418,1.0792139534961536,0.9723262433118074,1.151406008885538,1.643463949230863,2.331532286845692,4.07058097930705
1569406395769367.0,1.749863134761618,1.3442180526813943,1.0939540026402392,0.9768133378048701,1.1557514245764036,1.6537619039338727,2.3368958812100784,4.034593845277907
1569406395769367.0,1.7569357890396762,1.3499905957653633,1.1081033473480362,0.9782903120367016,1.1589548077014584,1.6633880299145032,2.322402713196481,3.9871367827514077
1569406395781361.0,1.765774182614252,1.352746268983125,1.1245726136160346,0.9767672620147702,1.1634622182690944,1.6746697430698585,2.299891140423923,3.9476794653843856
1569406395781361.0,1.7760040977733242,1.3525274580690942,1.1451784432465724,0.9732959407142601,1.167309541432847,1.686311264497927,2.2817594258971714,3.910517030483939
1569406395790312.0,1.7835916992303031,1.348104991361818,1.1645242267874083,0.967803987881878,1.1741520083988386,1.6971417598555014,2.2646373731757796,3.8853736021264105
1569406395790312.0,1.7888047697948195,1.3447343379580874,1.177392202595571,0.9623431088116269,1.1828802492652832,1.7051780847642428,2.2451105573258348,3.857539906801729
1569406395805307.0,1.7943323495924397,1.3417019769705312,1.1850809937461853,0.9587774524792562,1.1946102668364738,1.7119563931366333,2.22468595957742,3.8438344650922045
1569406395805307.0,1.8035004338587728,1.3426299974647653,1.1887866686505113,0.9571364366702302,1.2057118184821043,1.718874963344372,2.204663130249748,3.838234233746834
1569406395807265.0,1.8144538622381448,1.3447013940918724,1.1894666379994365,0.9573184702266277,1.2173848813206214,1.7251865492940606,2.1865142293065,3.8526430189309155
1569406395807265.0,1.8265989663613413,1.3489949075443421,1.1901180647664322,0.9593677046765796,1.2269134780547633,1.7294232676508359,2.1714141212091604,3.8686344858947352
1569406395828210.0,1.8350739133818645,1.3492801045106981,1.1905408954328078,0.9621172726392541,1.2372941559577126,1.734122280876243,2.155910221392615,3.888806095185152
1569406395828210.0,1.842459046390206,1.3470557026576675,1.1898520514832098,0.963731817002399,1.2434679473890617,1.7415828850307373,2.142663561288259,3.9067920051935636
1569406395830203.0,1.8500724919848177,1.3448571063402612,1.1899707583306334,0.9642479903082459,1.2465806678751299,1.752135113257689,2.134957370357897,3.933817849373115
1569406395830203.0,1.8566657686167827,1.3461665091856867,1.1918686611162974,0.9658277172585658,1.2465967095225783,1.763790354829241,2.132952936716198,3.954915920107119
1569406395850196.0,1.8610669400893136,1.3472583483874496,1.1934998182171133,0.9692548361632387,1.2470051220330938,1.774943383880053,2.131841193837549,3.983534391810032
1569406395850196.0,1.8677659172404377,1.3514145408117884,1.1959860355739185,0.9745942454198572,1.2476179339910616,1.7827414026154078,2.1295397794460804,4.01455093279982
1569406395852145.0,1.8770904052587263,1.3544592531417088,1.2011893392780595,0.9806189619275607,1.2511683553301833,1.7885910330514498,2.1275344489361614,4.050289757940927
1569406395852145.0,1.8848938359360021,1.3594717265729006,1.208114691317749,0.986628581808694,1.253125246133072,1.7952252696306399,2.126367323882911,4.068244469715853
1569406395865151.0,1.886641927217238,1.3659889687473215,1.2137561265854429,0.9944735783522383,1.2526763135078172,1.8040473796021355,2.124577776492598,4.072075625032563
1569406395865151.0,1.8866796363610678,1.376833214334666,1.217306496561003,1.0040098716444792,1.2462826199638168,1.8147987774880827,2.126970534170982,4.060138448981188
1569406395867105.0,1.8855223450126433,1.389842387952072,1.219725132987461,1.011114181460841,1.2379217314388804,1.8273040940650764,2.13323605765824,4.047475510277273
1569406395867105.0,1.8846531968869933,1.407087796846598,1.2200933921658044,1.0153851985923752,1.2282234773532688,1.8391360273594197,2.1420100314412265,4.0269801876173394
1569406395888087.0,1.8791352138318578,1.4237211340115965,1.2193931869457157,1.0187809864689148,1.2220530481947445,1.8494003228315257,2.1502991412386185,4.004285728109781
1569406395888087.0,1.8670429991534958,1.4405098449453928,1.2196157732457524,1.0234195423726917,1.2177063570695765,1.8549704737503274,2.1561981535473254,3.9583908317014282
1569406395889085.0,1.8531946236226642,1.4541005203366952,1.2207107991839408,1.029864270133373,1.2154593122748154,1.8570376899974448,2.158214277471626,3.90593709899241
1569406395889085.0,1.8434463919284185,1.469046899076119,1.2237156022931364,1.0351576250218495,1.212277101293714,1.8590502143151566,2.158639133078739,3.8498992435809427
1569406395910029.0,1.8341522564242156,1.485397170272052,1.2295550864422558,1.0365025449294027,1.2097035265985514,1.8630614499098253,2.1595873833973718,3.804958837334382
1569406395910029.0,1.8239449430296195,1.5053255380602037,1.2372644512061006,1.0363397690514906,1.2067591392756383,1.8704212876663522,2.1627544284867235,3.760143763593005
1569406395911985.0,1.8128237528807998,1.5231371120534112,1.2458409849415293,1.0373741353010333,1.2084188218883438,1.8819757310092942,2.167130736147352,3.72376438445798
1569406395911985.0,1.8053414086474202,1.5373353126530986,1.2553570329604884,1.039540978456616,1.2115974543977266,1.893735720474353,2.173585477191125,3.6860275280714987
1569406395924952.0,1.8016070268792457,1.5439728523991905,1.2638512806963942,1.0407359527629436,1.216452388210354,1.9044370082209965,2.1802660197717874,3.6554207986121487
1569406395924952.0,1.8034780645261128,1.550773981094528,1.2694896327043679,1.0422663138314807,1.2214220621306389,1.9147748773794784,2.190451418379037,3.6252183008370853
1569406395926945.0,1.809679161061914,1.5601614884042982,1.2723284590467012,1.0457810727646508,1.229324434162274,1.9251865506383534,2.2057695106530293,3.6076308876727383
1569406395926945.0,1.8198125834905847,1.5738051229887675,1.2723872165100079,1.0492799179684162,1.2373758150158713,1.9361620525963785,2.228565212959606,3.5897947138845714
1569406395947913.0,1.8314700608778172,1.584846515311918,1.2706532189639776,1.05075470602912,1.2475543538678588,1.9495384300164482,2.2545545583865128,3.5787924370345565
1569406395947913.0,1.8459839039078116,1.5927023741614244,1.2670869242587368,1.049428671969602,1.2569725141459347,1.9639401152460843,2.275483765299314,3.571283913513427
1569406395949884.0,1.8614509534201926,1.5945479707060666,1.2607032042162147,1.0433525847949148,1.2661816625688735,1.9775062986913121,2.2798697632104963,3.572463088087408
1569406395949884.0,1.8778779279611202,1.5922998003833617,1.251314803575974,1.0338242715966366,1.2705934880481682,1.9876933801191443,2.2703904777634416,3.572632533572369
1569406395969871.0,1.8922492066995735,1.5856379246076322,1.2407978712122754,1.023683376199755,1.2734392034920452,1.9967090800593326,2.259586380342922,3.585088680207659
1569406395969871.0,1.9069730821635862,1.5816163780271781,1.2319951812065995,1.014968111671513,1.274012978761138,2.0063979977071904,2.255115633983986,3.6054543750797485
1569406395971826.0,1.9215079510860946,1.5779617121029843,1.226022146370826,1.0094924161529222,1.275981761282378,2.014503348574691,2.2542643953819517,3.633442702980519
1569406395971826.0,1.93773565449218,1.5772583586063844,1.2238391995695614,1.0082386406058252,1.278306602533212,2.017794156201283,2.257714052157823,3.6669265460342717
1569406395984792.0,1.951093083426205,1.5782134991143848,1.2256106116767815,1.0108916597484638,1.2821194197443047,2.017983957809056,2.260963269791419,3.7028530734801195
1569406395984792.0,1.961448598223953,1.5816695308774102,1.2293453547931117,1.0163646464931992,1.2840151781741986,2.018006326799178,2.2607757230097465,3.7151063117012213
1569406395991773.0,1.9722519771172773,1.5836178456744707,1.2331385818833749,1.0214121123900701,1.2854171532208383,2.0219886116208445,2.2609291402838085,3.711195473325201
1569406395991773.0,1.9875276122328083,1.588039524658094,1.2359490062959688,1.0244602016836002,1.283818851635859,2.029079862730263,2.2669567386200806,3.700578984205406
1569406396007729.0,2.004287962582986,1.594688608037574,1.236888760094108,1.0264800100616371,1.2820925025180347,2.0370001481345166,2.278174706092713,3.694800265567529
1569406396007729.0,2.022421976173085,1.6042677373895229,1.2348588256642647,1.0275830974728748,1.2787178766532363,2.04425549521193,2.2939948173208737,3.6920841978297894
1569406396009764.0,2.037957120080018,1.6106455256636496,1.2308770253505947,1.026725061237894,1.278146532958812,2.0495121159385574,2.3090650615537354,3.6917718671043014
1569406396009764.0,2.0548532012053435,1.6153368433236601,1.2248811420060697,1.0251923976708055,1.2775245608966903,2.050103326756271,2.319905353538646,3.684631550329299
1569406396030707.0,2.0749160959587103,1.6179035407735534,1.214943609338358,1.023751755511107,1.277652662930827,2.0501288745087676,2.324662241500897,3.6801752286953935
1569406396030707.0,2.0991828778075177,1.62309349395641,1.2006111632401677,1.0225631761050116,1.278349061494646,2.0534879117655302,2.3308878947232867,3.682864380853018
1569406396031665.0,2.1253105662037965,1.6290183705329058,1.1857206954280912,1.0224655381391503,1.2828350407640985,2.058855318164247,2.3407229490529047,3.6957597913250453
1569406396031665.0,2.1539483327997058,1.6356750231451265,1.172248478026099,1.0244165966932093,1.2881780302544366,2.0657378038107224,2.3537419093661986,3.7082574919808478
1569406396044630.0,2.181840313483385,1.6396871836971567,1.1593334750244553,1.0260968096193819,1.2968356792761624,2.076038321057646,2.36761397505352,3.725314939777555
1569406396044630.0,2.2086992181954077,1.6473237493439563,1.14878478241001,1.0268955519737983,1.3041216315478636,2.088498552382419,2.37929733936947,3.747181851335286
1569406396051612.0,2.2282959971203637,1.657144417839024,1.140934794093464,1.0275607124087298,1.311033788035642,2.1022358580919858,2.3854958627245857,3.7724670136257843
1569406396051612.0,2.2432738165642268,1.670374671772051,1.1326537506002419,1.026227169226743,1.314732872818533,2.114630299516126,2.3884499874133205,3.7921988483344875
1569406396067568.0,2.2567796746885658,1.6837567809560599,1.1248897561967517,1.0220303235784072,1.3179111463055704,2.1236690217214647,2.386123160833363,3.807013607173359
1569406396067568.0,2.2697593973338064,1.6981086406714443,1.1186162546824878,1.0172270328431599,1.319655023983698,2.1294959617933937,2.373786344124092,3.814816276521477
1569406396069564.0,2.2791617938918085,1.7099032217503367,1.1119218129625417,1.0125137799059296,1.3224656820848237,2.1370300430032407,2.3517671711129893,3.8186641702937867
1569406396069564.0,2.2872939942999393,1.7231894570858912,1.104656261675146,1.0079697385740147,1.3255941166431195,2.147320180420755,2.3306112668775323,3.813469003678835
1569406396090508.0,2.2923090837172984,1.7367733763776816,1.0988708075025957,1.0024028162708039,1.3322412476330072,2.1580682631991626,2.3125474999788556,3.801182560160058
1569406396090508.0,2.2985827484200434,1.751689649043317,1.0966039443707578,0.9961937596882403,1.3387553752539003,2.1665430498223333,2.29088971139982,3.7751851394102887
1569406396091508.0,2.3080527421157293,1.763876109241794,1.0989096760157604,0.9911228836897122,1.346180988382206,2.1752981199669765,2.262767409125472,3.740488883859265
1569406396091508.0,2.322994352411591,1.7767113670100438,1.1047634295384359,0.9872302158930476,1.3515981076579857,2.1866557216262,2.236869203971507,3.7064476817961904
1569406396104499.0,2.338325008562487,1.7902325951315061,1.1120896956857058,0.9843697352400994,1.3573000601041787,2.196920619768338,2.216847305588814,3.677422946603196
1569406396104499.0,2.352096872588963,1.8069871260161983,1.1209748387861471,0.9836200542547299,1.359321344848618,2.20268017200609,2.1997396218169585,3.6440030490442177
1569406396111491.0,2.3624858505633677,1.8225111689161313,1.1332746279139443,0.9835711370947161,1.3617184725738618,2.20975198831465,2.179958838206252,3.6146868193509416
1569406396111491.0,2.372640619290251,1.839093262469754,1.1478939824340992,0.983630652670725,1.3656795642818427,2.2218186617108073,2.1566782679447205,3.5912730610320533
1569406396127410.0,2.3837430621068636,1.8550562172397331,1.1617250493332782,0.9846770967231366,1.374353004584934,2.236508033468462,2.135529102260132,3.575465310153779
1569406396127410.0,2.39916155692438,1.871485798799157,1.1719963989183233,0.9877599860001154,1.3824653001976182,2.2498259765003756,2.1204857388844256,3.5663567469884616
1569406396129403.0,2.4159207556327598,1.884463702015039,1.1759318821727092,0.9914594488084335,1.3920002956691362,2.2625756369940544,2.106460281763389,3.566786887271452
1569406396129403.0,2.435193921595111,1.8971569489051685,1.1758537312356148,0.9962306390691221,1.4026671712051133,2.2762447262578465,2.0926622653351252,3.5756461334218073
1569406396150349.0,2.453573660810014,1.9062922481702094,1.1756190059994518,1.0025414594734698,1.4155142729530361,2.291542875761221,2.0824140866561245,3.591784606430812
1569406396150349.0,2.4721435907367093,1.9125728116721634,1.1772115421829488,1.0094491566211705,1.4252553982146845,2.304722954585779,2.0769244626336536,3.6116943717267005
1569406396152342.0,2.48758357941382,1.9130562442035828,1.1814265549310439,1.015667557577332,1.4357395488902571,2.3141379468460865,2.0722689250603183,3.6363917523041467
1569406396152342.0,2.499429434844637,1.9111091681408643,1.186256153646396,1.0204876837357784,1.4463565056485708,2.323939336665261,2.070696316414939,3.6640068077821253
1569406396164312.0,2.509191915110931,1.9064316632279668,1.1887441695189402,1.0218874947344199,1.459162619621872,2.339716204726903,2.0727695695602106,3.686123956126135
1569406396164312.0,2.5233583016402132,1.9024204646550482,1.1901359928551303,1.0207824898112254,1.4697940710467334,2.36091780534854,2.077089356890901,3.7057379280332183
1569406396171329.0,2.5429804709598707,1.8978307088298954,1.193264271665138,1.0189695230530758,1.4799286359867392,2.385307255206219,2.080884808969991,3.7309422189336896
1569406396171329.0,2.5663365806357334,1.8953680826151418,1.1971128118660144,1.0175645432494185,1.4884078467222623,2.411265335984021,2.087445046731772,3.7635982360987525
1569406396188274.0,2.58889430191276,1.8927117086245469,1.2006611237059346,1.0160693212682645,1.498787786779206,2.438698195180079,2.095766254883243,3.794297038072172
1569406396188274.0,2.6154943609637935,1.8931736805127926,1.2039691344544274,1.013768586951876,1.5089682747488105,2.4659121297452007,2.1016193384900945,3.8210675225848045
1569406396189245.0,2.64398526642428,1.8944541579186134,1.2050353686764204,1.009772630091666,1.520303140976476,2.4936246741643804,2.100133960984364,3.8504531977246454
1569406396189245.0,2.6733782334077114,1.8982735947171567,1.2050137046058598,1.0069012432306395,1.529130929806216,2.52253448131675,2.0979514681360354,3.885722276067781
1569406396210187.0,2.701231444653424,1.901761544602064,1.2037800119006399,1.007445212879614,1.5397205055959227,2.552158576795488,2.099178649051087,3.915045750916625
1569406396210187.0,2.7282273759781575,1.90604488788306,1.200497969815768,1.0110618483463925,1.5514067845087198,2.5796936552349474,2.104355502496322,3.938183491296287
1569406396216173.0,2.752353228000387,1.908922524882578,1.1980907007114665,1.0153295191533416,1.566758327912034,2.6064462194932667,2.111943841524897,3.960388004004596
1569406396216173.0,2.776269441231128,1.9141339507556583,1.1974878330618544,1.0211021402616398,1.580584524401463,2.6342913186737555,2.122899870754511,3.987644736963035
1569406396225154.0,2.79674269854235,1.919508961854678,1.1965983178367319,1.029853092767129,1.5948589566930989,2.661938641872555,2.1353284472303202,4.0223645133142325
1569406396225154.0,2.806722385320363,1.9266289092618396,1.1945696213052586,1.0421932626094883,1.608214636407592,2.686658896704914,2.1466972557702424,4.056045338313727
1569406396231133.0,2.7996843227530688,1.9320001325663494,1.192382527437641,1.0548803968727785,1.6219643225456037,2.7102854592902754,2.1486113101345334,4.07191633932258
1569406396231133.0,2.788287827788909,1.9380892599244863,1.1920739281581463,1.0647742010072356,1.6319274868571232,2.7354147212130675,2.1450644515222317,4.087323166458084
1569406396248088.0,2.7799040075900567,1.9437653492432092,1.1934447573525453,1.0717550389204695,1.6409077016743117,2.7643695887665487,2.1428849498465365,4.111101506503271
1569406396248088.0,2.7750784308641103,1.9506703819916593,1.1946213997964747,1.0797084621815207,1.6492064531835735,2.795038320158522,2.1449070387003686,4.139246766862956
1569406396249085.0,2.772954531745911,1.956442572792973,1.1965982209313897,1.0893430782661038,1.6604043089305889,2.8267287801512073,2.1453730031580998,4.16985058118666
1569406396249085.0,2.7753318588854126,1.965174254671808,1.2003792103052986,1.098627937952942,1.6720575577585384,2.860949540452946,2.14703925723571,4.211243322138419
1569406396270028.0,2.778661976043791,1.9755474570862057,1.204850795701717,1.1059525147227525,1.6882794836388642,2.8998401220518213,2.1528973081015463,4.2632061333815585
1569406396270028.0,2.7848025925951148,1.988991276560002,1.2101503851556699,1.1143815945066529,1.7050423845982727,2.94322987127399,2.162302372442388,4.3197154092830905
1569406396272023.0,2.7924162155473433,2.0007910436004064,1.2161874601829465,1.1249020318004508,1.7231116291172144,2.990540410648168,2.172192079991106,4.3691000737090935
1569406396272023.0,2.79764728418104,2.0109875261569803,1.2240672217684203,1.1375662895013117,1.7412032982460934,3.040202197252014,2.186105966570825,4.4132969205371655
1569406396292966.0,2.7940785413729157,2.0185462829153207,1.2335119578744023,1.1515543941356645,1.7626097679580448,3.0918665805291456,2.2018508753954324,4.44076328042422
1569406396292966.0,2.788895735282406,2.0296120087669447,1.241648511622439,1.1660560622374478,1.7822948569525618,3.1442728455195086,2.2208440569027825,4.446815256481144
1569406396293990.0,2.7882249814662874,2.041340963084384,1.246657906723279,1.1796896145627926,1.799650361828209,3.196504674134568,2.240920444251859,4.444251307561056
1569406396293990.0,2.793254670826692,2.0547622219369197,1.2507902218203175,1.1918075497087421,1.8145037796758028,3.2452820885997435,2.2627227503843876,4.4494730775718905
1569406396307927.0,2.796664211056014,2.0675960522094363,1.2548597326650897,1.1994257723049457,1.8333922476481368,3.290226675075047,2.276525584402699,4.455858187031077
1569406396307927.0,2.7995925941047664,2.0821685884350556,1.2589938873932487,1.2033933504856416,1.8522901894651864,3.334407708353411,2.2773101252550974,4.448810078043681
1569406396308926.0,2.806964346430619,2.09644149772787,1.2640284330982285,1.2068190620729387,1.8709998667351277,3.379628458826924,2.2714136188349574,4.430923630644942
1569406396308926.0,2.821425378541371,2.1108320212194336,1.2680316075080562,1.212605409734869,1.8862064622373225,3.4239069757399743,2.265714474707274,4.416200751364067
1569406396329869.0,2.836378470301446,2.1198388443772975,1.269089497484231,1.2203851091794107,1.9011996023780318,3.467219041582173,2.2604312690802337,4.405093645333955
1569406396329869.0,2.849564940613051,2.1247986742948597,1.2673618700976883,1.2280084780086604,1.9152401561239607,3.5066271448618265,2.2591393846852834,4.386867441056571
1569406396331863.0,2.862066021417831,2.1265607285924686,1.2628178125850091,1.2325881683911644,1.9311354823381677,3.541105753209669,2.257630817488892,4.362384825659076
1569406396331863.0,2.8771731461194907,2.1320167931543827,1.2564833792230394,1.235492280193583,1.946388400492108,3.573332832830448,2.2579459941061466,4.346173780064241
1569406396343831.0,2.8871728618750123,2.141508059236319,1.2502249216766819,1.2392090221313086,1.9644764014532485,3.604860270654168,2.2588900242952934,4.332622028498494
1569406396343831.0,2.8918515442568142,2.157472745048706,1.242031882827153,1.2432391862729395,1.9826871848830305,3.6320467176711775,2.2600334038666383,4.305526866214894
1569406396352807.0,2.8958306963896274,2.1755717850125507,1.2289208412017518,1.2444564709058985,1.9994919460705247,3.6502779679329116,2.260395357940585,4.271831237583747
1569406396352807.0,2.903242483706944,2.19505176019462,1.2147698009863872,1.2438852247493077,2.0114285275100814,3.6581513180452063,2.2633288014376287,4.243706174348933
1569406396367805.0,2.908961183783538,2.210297132013076,1.2044415647567708,1.242127750902319,2.02372326031677,3.6620509053983814,2.2656789989493045,4.219950947833583
1569406396367805.0,2.915289530476525,2.2223150809062275,1.1959136724697275,1.2394930732825682,2.0340813913364273,3.6685083972365584,2.268822342676069,4.188980044765867
1569406396369761.0,2.9259820273540047,2.2318972933868446,1.1861867544887508,1.235652276866975,2.0451359096725454,3.6788453496360556,2.2740561320130075,4.147176610709083
1569406396369761.0,2.9426461004973086,2.245596967316274,1.1772334417903143,1.2309629155286606,2.054255112259054,3.6881082280815636,2.2828551301631825,4.100187008942467
1569406396390706.0,2.9601881662298704,2.260345418238231,1.1699901768285579,1.2251172797609153,2.0615943340732508,3.696014489228418,2.2909637566796612,4.05861684129577
1569406396390706.0,2.976968375645951,2.2747662381773917,1.1634580706522617,1.2184729727587562,2.0655870422333273,3.7054900422520065,2.298006800515005,4.023836322586498
1569406396391708.0,2.9839902695873572,2.2858769914383608,1.1575925079708826,1.2108264268126663,2.069426751001935,3.716271726442288,2.299418184877885,3.9866932069176535
1569406396391708.0,2.978863760793883,2.2985779028171374,1.1523955084773607,1.2035828264357782,2.0707732809044566,3.721127024157374,2.2942769492704866,3.938205921842813
1569406396403671.0,2.9613026696896,2.31074169338285,1.1468158530853299,1.1971882208464193,2.068018654338687,3.7047914559521247,2.2839292638824866,3.884545058028339
1569406396403671.0,2.931876595488979,2.322339685283731,1.1409495078252148,1.1917850714199005,2.0530145931485073,3.6604701140792386,2.2752583566967663,3.83719902908532
1569406396412647.0,2.8951605826309477,2.3292995960514244,1.1367220059324308,1.1869654775676721,2.0346185260786385,3.6100245458741127,2.26893711489226,3.801667101014901
1569406396412647.0,2.862239228857003,2.3357248556203705,1.1341364415717181,1.1829777038310922,2.020588638839931,3.5732896546887867,2.267807673531364,3.779118698731755
1569406396427607.0,2.833353524039833,2.343938670298871,1.1331097997028028,1.1793577995988969,2.011148154019933,3.549076704698373,2.269216518168713,3.770127812152
1569406396427607.0,2.8097470308554016,2.3572565983138034,1.1336474984313767,1.1754079631426042,2.0013300952680804,3.5301841218416574,2.273397586090456,3.773174156300039
1569406396429601.0,2.789727352651236,2.3706953047353365,1.1346730170474724,1.1712536858498679,1.995708802218379,3.5158641113200844,2.2764603897695297,3.7828619455193166
1569406396429601.0,2.773840239883652,2.3850653199060665,1.1372690591131567,1.1699282895635952,1.9926565327811152,3.50689257746462,2.2798910238387333,3.7964366484406504
1569406396450546.0,2.7628563507779322,2.3987610281143454,1.1401966704075706,1.1689776717560765,1.9941575990146059,3.498653916799348,2.282639076369135,3.810288316053155
1569406396450546.0,2.7611488192316775,2.4134754005657215,1.1427195784430695,1.1641772741356473,1.9992810407968893,3.4906506708863967,2.2837981297868195,3.827377202647078
1569406396451582.0,2.7659126628638635,2.426646474185364,1.146659203468038,1.1563969393195483,2.0085954612199677,3.4881810367195136,2.284634756090844,3.8465164672467482
1569406396451582.0,2.77490866324341,2.4409263439427247,1.1508357706931718,1.1489517003780847,2.0174936822543725,3.486970242098656,2.2930552339428827,3.8707373584985185
1569406396463549.0,2.784922223363571,2.4540605331550283,1.150254771899237,1.1411839123426768,2.0283390219833657,3.4799411066092083,2.304736564278724,3.8932638818134686
1569406396463549.0,2.7999925908185515,2.4712068914146204,1.1446473900193774,1.1337892933727425,2.0401540384715484,3.4701899747903924,2.317829043984647,3.9121408899062518
1569406396472616.0,2.818862280972264,2.4916072539870084,1.1389960530400889,1.1283000230144602,2.0551433334332683,3.468167188932045,2.332324197613552,3.9271284776212125
1569406396472616.0,2.841806134376536,2.5140836557618247,1.1350851272027802,1.1246067789110372,2.0673536147724434,3.473601459497555,2.3522188092153486,3.9409925243176156
1569406396487486.0,2.868725477571583,2.534561419130495,1.1307130805768502,1.121535602856967,2.075122057397339,3.481297529709292,2.3758230988508293,3.954477317968465
1569406396487486.0,2.9013174093387164,2.5563075807254285,1.126256400538213,1.1208161338437777,2.077191764420366,3.488156338635235,2.4001598481411826,3.9787759389471673
1569406396489441.0,2.932743789224716,2.5760921317817194,1.123590815547975,1.1237768971041935,2.0814167135102526,3.493394583549088,2.4045615128263833,4.00956858693032
1569406396489441.0,2.961525717379624,2.5982012152916343,1.1237942452257481,1.1310131378003208,2.0886268365726486,3.4996678379841004,2.3833127684933446,4.034139449719778
1569406396510385.0,2.9869911296955776,2.6236210716740187,1.1275502407559972,1.1402068973811539,2.099308219590338,3.510086641131485,2.3538533741891876,4.0355456295716
1569406396510385.0,3.012847487216136,2.652213282484471,1.1346908997966816,1.1486778599881609,2.110164188206333,3.5225083491653653,2.329940430666561,4.015753726521639
1569406396512381.0,3.0396381837092017,2.678291858221456,1.1428450563980603,1.1550530833822592,2.1238018522353204,3.5357079452455844,2.309799793459888,3.9730627887124315
1569406396512381.0,3.0714533542009077,2.704697928457216,1.151313744311145,1.162556318661321,2.138721502266618,3.548435018146537,2.2972074272137704,3.910861967939524
1569406396524348.0,3.108409307519447,2.7310879800933767,1.1588955836538966,1.1728517592096643,2.1565739808927793,3.5577837148757347,2.289440346645105,3.8412253272937655
1569406396524348.0,3.1514851840784317,2.759904505248251,1.1651872406406072,1.183908439791014,2.1735968657942815,3.561535681338569,2.285357581888184,3.7749398604567315
1569406396533326.0,3.1934956075260437,2.785712609710948,1.172218699505376,1.1905610514549474,2.1922210572623473,3.565059319368032,2.280510776938225,3.712049380500168
1569406396533326.0,3.233475086435264,2.809198366043343,1.181855579411053,1.1932888656640763,2.2087195437069123,3.5696251459529087,2.2721944360713553,3.6592524517960747
1569406396548284.0,3.274501941657239,2.830541713189976,1.1924550253429198,1.195507807494071,2.2232820699550335,3.5703451978052447,2.259593194295031,3.6171092135983467
1569406396548284.0,3.3213752351738655,2.8543455522377537,1.2022433266397263,1.200113997699417,2.235669720018351,3.5668980806034325,2.2524295788968014,3.586511530885199
1569406396549284.0,3.3696053629886475,2.880855298821583,1.209282679766169,1.206555516173011,2.2506580791019415,3.563134187832358,2.250332059389733,3.5624833060482812
1569406396549284.0,3.4211783131331206,2.9132198707426498,1.2142871520723157,1.2126074505774609,2.2637798929324786,3.558510966431255,2.252188426410741,3.5457851586612636
1569406396570225.0,3.474825172510113,2.9480983717018323,1.2181354562812208,1.2156980659144083,2.274137484323972,3.553143649682004,2.2551913922172964,3.532111709866789
1569406396570225.0,3.529640203980748,2.986543694326475,1.2222058347902092,1.2185528158530836,2.282111014267476,3.5477182126073314,2.2613860512849144,3.526707493895456
1569406396572233.0,3.5834496584519635,3.022414731908231,1.2280480984274418,1.2232610713477965,2.2916939611644835,3.544846594923597,2.2697237916910953,3.5205708993246287
1569406396572233.0,3.6389424584654178,3.057760700604466,1.2355175548875703,1.2294709083625768,2.298297615680674,3.5460999010845073,2.2828790683235627,3.5108682547454557
1569406396584189.0,3.6924127176449573,3.0937405492575034,1.2431424349770648,1.2359032407666244,2.3042057167849292,3.5473959181424193,2.295015011262864,3.4977474123213237
1569406396584189.0,3.7456103318247695,3.1308333809709366,1.2481210388449349,1.244175834503467,2.309413447499129,3.546885578831544,2.3042953282805945,3.494026727923949
1569406396593164.0,3.7981391470149655,3.1657609726795606,1.2480454321557581,1.254159848104149,2.316948191210065,3.5495874656465856,2.304622948811411,3.4959432830577923
1569406396593164.0,3.8534590410324396,3.203674793204548,1.2468138112158915,1.2655758288818761,2.322758214653246,3.558575301390249,2.298450640724969,3.50207224551801
1569406396608125.0,3.9103802494716318,3.2420151774520183,1.247855080068883,1.2750375390598632,2.327126328118598,3.5743907382354974,2.2941787594122705,3.504204597645362
1569406396608125.0,3.9691640400410413,3.2809928917079345,1.2518611464175171,1.2790608048389578,2.3304548240607827,3.5946070813965614,2.2978042264233176,3.5152356964745506
1569406396609122.0,4.026995323069987,3.3200492127538337,1.2572301210084356,1.279271839437669,2.338404556340906,3.6187314491841978,2.300350568309112,3.5299549513116624
1569406396609122.0,4.0850385013717165,3.3629887273906682,1.2621325436119446,1.2786862980657032,2.34635099881335,3.646833617576802,2.300710179662309,3.5493835716829514
1569406396630066.0,4.141590434090421,3.4068298378140476,1.2646007268875166,1.27468910256102,2.3553742382581415,3.6802554781077745,2.2985138251768698,3.5642980095631773
1569406396630066.0,4.199171451504329,3.4548128031083962,1.265323915477665,1.2691947721111105,2.3662534588770137,3.7187990099524177,2.298715780602495,3.589732746158344
1569406396632065.0,4.256074615393766,3.505759478502498,1.2670546152679247,1.2654957341306232,2.379744752094321,3.760174291856425,2.3016589554303635,3.6229211419736593
1569406396632065.0,4.314003026762346,3.5604127476993255,1.270250099323493,1.2635184085338724,2.393045927703695,3.8014905539117128,2.309772741662102,3.6689617214948167
1569406396644067.0,4.373523117277407,3.6141734944020554,1.268443630801295,1.259521236087095,2.4102647060564975,3.844054510437016,2.317268851888362,3.7105913091772087
1569406396644067.0,4.4394280947791485,3.6698255215337,1.257040880816952,1.2531944754322537,2.4299059691202,3.8903515507278765,2.3237565473331303,3.749880073386953
1569406396659026.0,4.507885378373518,3.7274428671922,1.2407652167936527,1.246213781800482,2.455471130892768,3.942767930011891,2.3295637473185966,3.783279082636943
1569406396659026.0,4.578288569469457,3.7901734012828516,1.2254015002811571,1.2423978454057072,2.4835964111633486,4.000014454812056,2.342213036286133,3.8251716699033675
1569406396668003.0,4.649429314323178,3.854873703297491,1.2113881475499804,1.2434320556652092,2.513551581428189,4.060816345101963,2.360468508085051,3.865098560792677
1569406396668003.0,4.722136260472947,3.922185324979841,1.1998034073383694,1.2496475418706032,2.5412510155590273,4.122870990630856,2.383103318075987,3.9116654143063716
1569406396668961.0,4.791332161624406,3.9898868776771623,1.1912176795739484,1.2595683006527911,2.567947318572222,4.183276474778626,2.3994558173368215,3.9564224716330023
1569406396668961.0,4.857036870118826,4.060878021180655,1.1855049515173202,1.2716831541288427,2.5917428667719578,4.242106516145627,2.410185363479688,4.009816714262197
1569406396689905.0,4.919869194134357,4.133926032972267,1.1802266425894892,1.2825279966436023,2.617285407142027,4.301522470941892,2.4202846503677806,4.057198479364268
1569406396689905.0,4.983242919118804,4.210679774985047,1.1739331343983048,1.292829964090399,2.6445299221875977,4.3628693113525365,2.4352704082189183,4.103737452441242
1569406396691902.0,5.040356902244372,4.287781377704073,1.1677894545324896,1.3029582624419767,2.676300935291802,4.429533656978101,2.4513209798096653,4.138486739461611
1569406396691902.0,5.090756887382179,4.368313215887957,1.164119651971738,1.3124838197493067,2.709543513740633,4.499608542076404,2.4703599725009266,4.172667247061504
1569406396703906.0,5.1408662063870425,4.450312655560566,1.1644051926152537,1.3215425439598634,2.7451922312039994,4.569211667619275,2.4879330060243134,4.204391724357589
1569406396703906.0,5.193653833053885,4.53257090088223,1.1683090756919583,1.3315290251245835,2.7790269878980682,4.638689664380953,2.508350900666037,4.253316886281816
1569406396712844.0,5.2424315887557675,4.610795114363487,1.1733536214727915,1.3416710838978063,2.81193981451875,4.7105648887999205,2.5301318505281327,4.307112773506925
1569406396712844.0,5.293743947215881,4.688663667954385,1.178967366728247,1.3524807122919789,2.8440239466855792,4.784853677206357,2.554996169047405,4.369983452875047
1569406396727848.0,5.353138476457045,4.767675841626648,1.1840243437426763,1.363300100451729,2.8797012125281434,4.864253910492585,2.5820749286075046,4.429404413168544
1569406396727848.0,5.42358121942957,4.850656681137293,1.1894871151037867,1.3744298486798057,2.9169857891422115,4.949522939649746,2.614768297850936,4.497700157243386
1569406396729799.0,5.501378890997357,4.9311797527367025,1.1981807326579992,1.3841727660815553,2.9586908869122133,5.0400382206859,2.648662862564644,4.562784535459166
1569406396729799.0,5.582933743448681,5.008366691904739,1.21151970427062,1.3925545572785656,3.0021881214933703,5.13487262987371,2.6876571916139813,4.6326396467159645
1569406396750789.0,5.662460355843288,5.078615307823455,1.2263350400416801,1.3984621506602193,3.0492328847638723,5.2321524136793895,2.730471817392035,4.699925741242462
1569406396750789.0,5.743050231757569,5.143056928932039,1.2404197274272686,1.4030321030087078,3.097336883606452,5.329677469145409,2.776634408018957,4.780576637109002
1569406396751741.0,5.823295102167077,5.205994140475991,1.2542440958879977,1.40979637798056,3.1463659903485723,5.4278204733258,2.822284581244274,4.86226658463365
1569406396751741.0,5.901351709349933,5.274432820120496,1.270381009583288,1.4219375006002413,3.194317582993344,5.5262873187180475,2.873824809348414,4.956257688571789
1569406396773721.0,5.970721677103081,5.342754771110648,1.2900256609890057,1.4379623466228346,3.2452669244466,5.624759983084566,2.9272125426827205,5.050779792619479
1569406396773721.0,6.028123971542261,5.399933016629982,1.3134833019233167,1.4562116158997267,3.2951972269538925,5.72109412084654,2.982637917592935,5.152910331731666
1569406396774681.0,6.070678178422643,5.430703536825575,1.3365970708464756,1.4737699175304892,3.3442490894924846,5.813545861148033,3.037116695519067,5.236625392891298
1569406396774681.0,6.104777825062528,5.446479101226369,1.3577998097024553,1.4895071552940302,3.3862596426415026,5.902190808721995,3.0926326329067475,5.29072076487498
1569406396787644.0,6.1306118156741,5.462943452875536,1.378979654176874,1.501849934712097,3.4190582827637597,5.989655545842089,3.1406927996388396,5.309817266482851
1569406396787644.0,6.140000077965062,5.47334475794109,1.3984645306418266,1.512394027935737,3.4486491066672116,6.076541556020109,3.169529444800481,5.326411202664662
1569406396793628.0,6.140186165300278,5.47478621095884,1.410747287348359,1.5205873249715032,3.4872573210222977,6.166433850228879,3.17762682779905,5.339777526114515
1569406396793628.0,6.153351990710621,5.4868640399765365,1.417365634857654,1.5270819127442319,3.5305963073562387,6.261910896542048,3.1893869898621383,5.359030989368069
1569406396810584.0,6.178946255603312,5.511335289780445,1.422371064535366,1.534020218366551,3.57744377721827,6.358198951767731,3.205109421218659,5.36855225340508
1569406396810584.0,6.212814103390641,5.543473014775427,1.427760422717499,1.542844333818794,3.6238835177612883,6.451164044853044,3.2185455090890462,5.384098744622853
1569406396811581.0,6.251377760539212,5.578017075794312,1.4348143352210276,1.5515311747373843,3.668680002984333,6.543669404954249,3.231027106755471,5.405007119242826
1569406396811581.0,6.296378873188617,5.612800426001507,1.4429660683260124,1.5611910566261649,3.710584458813709,6.6326676515460905,3.2499250961847976,5.440035231945175
1569406396832558.0,6.345436309905701,5.645071230004667,1.4491248945286757,1.5715841987624959,3.7512228332654027,6.698828957062548,3.2682784688596938,5.475872304751124
1569406396832558.0,6.3872067281030445,5.670885615243034,1.4552466737769474,1.582061560688084,3.784843109315608,6.726676057508832,3.2875059014771963,5.5154982886183745
1569406396834520.0,6.409080998212648,5.671626527309026,1.4622162008020128,1.5920000554946145,3.817575397949968,6.74047548971027,3.3064482505313366,5.542079166431367
1569406396834520.0,6.41550071450354,5.631753208410128,1.465791601607413,1.5995885417921578,3.8530834470542437,6.770413081752348,3.3282301860806665,5.5603400712530275
1569406396847512.0,6.417816730264034,5.567640190379415,1.4621362736776653,1.6036570636246201,3.8933994966158707,6.815243931228103,3.352849027311899,5.56939410868183
1569406396847512.0,6.426380839008409,5.513328001125327,1.4558889025814568,1.6093953362506037,3.9364256856972313,6.861976185505568,3.3803779454352028,5.594309428780014
1569406396849481.0,6.433059257983847,5.464003197643685,1.451231331680208,1.6180027360372085,3.9833808534479993,6.906732605824385,3.403128494327889,5.6272773901719875
1569406396849481.0,6.4367625182797665,5.4044921973163955,1.4486751803446596,1.6296342900310734,4.028153722759576,6.947862289021292,3.4268882985209483,5.668604073921819
1569406396870463.0,6.440637895417384,5.335875279588051,1.446517307191508,1.6448159258522521,4.072220228253583,6.982763733534894,3.4524178866310278,5.705699926033815
1569406396870463.0,6.444931005576126,5.263147909663129,1.443271564277121,1.6651183562290908,4.113459738703596,7.009190707092756,3.4813582385785655,5.74344126066281
1569406396872418.0,6.454000334902141,5.188179396843424,1.4400635259200094,1.688318491689301,4.148611251443146,7.028562129857649,3.5116768121050765,5.7625511599741515
1569406396872418.0,6.460657031627203,5.106611586461073,1.4377570343276382,1.712985489884591,4.180399355870375,7.053561052663619,3.547099910694311,5.7796218196595595
1569406396892403.0,6.4557799405985445,5.0121262956573025,1.4343136261397804,1.738900773941792,4.2204660394577385,7.095254834471751,3.586433578031315,5.804382009442018
1569406396892403.0,6.456035661807593,4.920422542262001,1.4326271831147623,1.7656802665328293,4.266791190319189,7.151317623929319,3.6313089997143133,5.850495078099527
1569406396894359.0,6.465001558462627,4.840438513131309,1.434793336192435,1.7901683707942582,4.318814398291069,7.221057071107136,3.6772324827922573,5.9015254289926755
1569406396894359.0,6.478310635457289,4.770203499975433,1.4395866766645213,1.8140080704460486,4.37373613353146,7.30492912475639,3.7288334745837015,5.961277829128627
1569406396907324.0,6.499655097487365,4.710760820188492,1.4458990943427315,1.8389387190739994,4.429113370932325,7.39936166285212,3.7841139407541418,6.01837764809609
1569406396907324.0,6.5348632533222055,4.6608142967137205,1.4552424103362116,1.8659056036612678,4.477997480454703,7.493878603248182,3.8414364633147753,6.078316305498714
1569406396914306.0,6.575407993669087,4.609776425139121,1.4688154051000495,1.8940469637999082,4.525365442719056,7.584608792048953,3.895898074680867,6.1331615459840885
1569406396914306.0,6.6067639838968795,4.55602268173668,1.485182927234529,1.9238631924766016,4.57553937585343,7.678396282703559,3.951752715842923,6.190315718428574
1569406396930301.0,6.62671081236906,4.507521845901916,1.5021955398073852,1.954808967579008,4.632238246217588,7.775943671852954,4.007283391604013,6.235597451308649
1569406396930301.0,6.640012377609566,4.467240538295599,1.5202404731953851,1.9881575456725558,4.6934611531217785,7.872767578677532,4.065655186000187,6.269322866542271
1569406396932301.0,6.636828074637995,4.429054293139489,1.5379954538292127,2.0218136107227025,4.759791771956584,7.971689398406544,4.123468862103752,6.278353265736656
1569406396932301.0,6.612185137731505,4.389304809349178,1.556014206656828,2.052713354639592,4.82653728060042,8.071210499620351,4.180146643235577,6.286420349948365
1569406396953202.0,6.562612789346492,4.340689696229117,1.5735496898385921,2.0810936960815773,4.892548500723399,8.149153568123205,4.22981065163025,6.288497708950759
1569406396953202.0,6.498541815628163,4.280967204443515,1.5870621718567708,2.111281863019849,4.958259003520087,8.18839936411946,4.26470991379619,6.275101596343571
1569406396954200.0,6.4314782987652706,4.212785701034956,1.5955770355841292,2.1435112718507674,5.03056405661377,8.21233204197949,4.283796829590137,6.244413612277318
1569406396954200.0,6.3591384947727745,4.140461054694306,1.6027594019881184,2.177808192846942,5.106378786893832,8.248870650016352,4.306635926682878,6.225379358549159
1569406396966170.0,6.286471234003667,4.072047610464495,1.6087471697661249,2.214229564870728,5.18230240686724,8.302352657512985,4.334609264424368,6.219620052641959
1569406396966170.0,6.22500430890551,4.008848803861558,1.6108042800543505,2.2521022411659115,5.250055216592197,8.355172360575489,4.358123779726897,6.232944312316485
1569406396974148.0,6.1738965513891575,3.946414927795149,1.6075015049694885,2.2838728506282973,5.299749620443704,8.358828158005883,4.359331876402418,6.252064132416681
1569406396974148.0,6.132263815734198,3.890732172001799,1.6014992847889986,2.306918766955992,5.335133231473866,8.308210979435321,4.345031825320981,6.278774150767399
1569406396990122.0,6.0993474407407415,3.8456301178785055,1.5943832194778045,2.3245697518048853,5.379338610374109,8.261972720556853,4.334454361982401,6.296036669975432
1569406396990122.0,6.070689567528833,3.8089143283568303,1.5871611869281175,2.339434084394049,5.4353969745436475,8.23522153787075,4.333581294627433,6.30553603756627
1569406396990122.0,6.041188885268164,3.7765564062783827,1.579386642165979,2.3513259227695826,5.498507830843228,8.213103465074463,4.332803975698852,6.3028214031456615
1569406396990122.0,6.013605287781671,3.748462468358888,1.5704118792153994,2.3624651053245374,5.561824250535407,8.190887518226488,4.3310538274689145,6.298973581821776
1569406397012045.0,5.984444204468595,3.7189224869956012,1.562233152698545,2.37480850801417,5.621197280810837,8.153962709807164,4.331213476853107,6.295164714331569
1569406397012045.0,5.9401835230575175,3.6800838791360313,1.5577040339935797,2.3876906766143198,5.6773910363010565,8.093114563848928,4.337623977791513,6.300683924429351
1569406397013042.0,5.866912601592646,3.6293535886212123,1.556951333249264,2.399768205380441,5.736521985081303,8.01618536827066,4.344404325135446,6.304703536053554
1569406397013042.0,5.770741760317655,3.5712232311524024,1.555800372822063,2.41021694385817,5.793861666635347,7.93379877363681,4.350283241804648,6.308586374050753
1569406397026038.0,5.665617199760477,3.5079274539676555,1.5517593796127345,2.4168707703854673,5.850383532146696,7.860229315570792,4.355931780065565,6.301102424121808
1569406397026038.0,5.554855649915778,3.4408276727837785,1.5481794369813273,2.4245633087077496,5.909599538495484,7.809192512086693,4.3698502200756915,6.290982589356457
1569406397034987.0,5.437552876026203,3.3708732739459895,1.5444622564077515,2.4358972040778823,5.969633807966751,7.771657104764247,4.38612946755231,6.273256790900098
1569406397034987.0,5.315601544024559,3.294377435109507,1.538000566676366,2.445773482522236,6.014358854468599,7.727608791381525,4.395945950931422,6.257988990031677
1569406397049964.0,5.196587196467004,3.2134073773424694,1.530184319699914,2.45152286012248,6.039711647877538,7.6684344635474,4.392847822190039,6.246974305407618
1569406397049964.0,5.094076459273527,3.138174593048069,1.526015429250231,2.4548628968654738,6.043938667218259,7.59654975128143,4.385225363008298,6.2535814301100014
1569406397049964.0,5.008189921472381,3.0706408044767923,1.5255605686622264,2.4531231461741356,6.016219471089835,7.524171290369925,4.381720294447761,6.255832593348685
1569406397049964.0,4.931881383040766,3.0092909497015667,1.5248731485198628,2.4504760250789768,5.968192695380052,7.457022756770931,4.378691320741321,6.2476685018110825
1569406397071886.0,4.857754923546944,2.9513362871781155,1.5232985065511035,2.451666181330355,5.931543962748523,7.366496128823503,4.356955187837049,6.228434239610955
1569406397071886.0,4.781314167090044,2.8974018587197152,1.5240799713919522,2.455836971307849,5.9116898887674,7.233515297083181,4.317640972211032,6.209223867822976
1569406397072883.0,4.697306503287508,2.8476500424838167,1.5286341694180008,2.4619393420945004,5.903670901284681,7.0885113201979,4.276101257417857,6.190980678844834
1569406397072883.0,4.602325103872443,2.8023325359114746,1.5357385660851455,2.472523868087699,5.903676646216669,6.95467321842568,4.2268437203102485,6.189634457621927
1569406397086845.0,4.502876515103186,2.760728495962348,1.543205525922581,2.4894920526733384,5.914400331695855,6.833602068519914,4.162542064329322,6.202195161128778
1569406397086845.0,4.410052268736206,2.7242030347658623,1.5502221342172537,2.5120707539630933,5.9355685774922184,6.712350467041375,4.101450437273811,6.231711820200939
1569406397094861.0,4.324246519517624,2.691301648491019,1.5536166465078853,2.5377590748007997,5.963743915500685,6.570272038250699,4.045573188579036,6.262101610935759
1569406397094861.0,4.243608901700124,2.660590521785444,1.5482016285536713,2.5661711393917,5.997086321318409,6.411561300126534,3.9912807338546985,6.299292267649776
1569406397109785.0,4.167775136021818,2.6317529404375577,1.5357149928273037,2.5982203334234018,6.039260970655182,6.256248823379384,3.9404429703093795,6.337250304598787
1569406397109785.0,4.103860810077775,2.6060417506472144,1.5230019749937858,2.6354405817369275,6.088810734244503,6.117980406448812,3.895458903504431,6.384918228645927
1569406397110818.0,4.0577610366734875,2.580515896326511,1.5094110034490293,2.6736261137360553,6.143016919509294,5.992327730828016,3.8436468837095603,6.43167186020319
1569406397110818.0,4.028700031432315,2.557092129943847,1.4911588112842207,2.706875326720797,6.199735719561819,5.871821969010707,3.776027839631235,6.478193489922064
1569406397131771.0,4.009051252598766,2.536383089030325,1.4703549908171343,2.731474965304276,6.258621247452796,5.7589343667986475,3.701966674187269,6.520895407033967
1569406397131771.0,3.997258737601073,2.517588302667755,1.4518143082643304,2.7435080734199566,6.302790694822146,5.649594032292414,3.6341542175004347,6.56997906488577
1569406397132722.0,3.997096950701591,2.5034136620753014,1.436129855151187,2.74698405100093,6.320870611508272,5.53640205019277,3.5710962759507057,6.614395594293974
1569406397132722.0,4.008811355768268,2.4981243926938292,1.422231364994068,2.7542257925306224,6.331264633687689,5.419573696556198,3.512687673024832,6.6672602041230995
1569406397146718.0,4.029171177579613,2.4971346068034084,1.4089642565373957,2.7605650023974757,6.331722060200015,5.3036931823116715,3.4597600855498856,6.722900950923783
1569406397146718.0,4.0608470455464625,2.4975573060209992,1.3954475062575868,2.7554488279477147,6.292962641935458,5.18105753266083,3.415572467490255,6.781485135053071
1569406397154664.0,4.097776395828919,2.498429429135331,1.3836249041216087,2.7378960745154113,6.209405167185993,5.039236437027664,3.3782589394845943,6.826522485497288
1569406397154664.0,4.133460306502872,2.50487271458907,1.3752852521658037,2.7062889009344775,6.087140069120575,4.887786016088242,3.344571611553209,6.863278301252628
1569406397169662.0,4.16830839191785,2.5157595435982643,1.3670826962809062,2.664193621250411,5.949844999184603,4.738080437196506,3.308337996624412,6.892455152964593
1569406397169662.0,4.210067728913681,2.530195362134524,1.3553072098755634,2.6166318958926396,5.816887542526536,4.589854830489689,3.2749399872438376,6.931847176342622
1569406397170660.0,4.260460057659698,2.5478935414387878,1.341116310689283,2.566673764263698,5.67831304314208,4.4453263373121095,3.2449338135501646,6.979685180267396
1569406397170660.0,4.316467401343608,2.5709445123622507,1.326551264392604,2.5186647547659895,5.53551714462771,4.308443805297015,3.218658475423885,7.045389947560062
1569406397192602.0,4.372682227541797,2.5978528078709746,1.3125047932764133,2.4695689954882343,5.390336926750146,4.176293225893546,3.2004405435836802,7.119771878229237
1569406397192602.0,4.426855651642108,2.6306608681906805,1.3009879527765467,2.416742594451504,5.228776640454526,4.045200065600121,3.1934766506456436,7.1961987690797935
1569406397192602.0,4.471105938571577,2.6699939016310683,1.2926199145240576,2.361759127718427,5.053367942669053,3.919597940251798,3.193956813584907,7.2484425429281165
1569406397192602.0,4.502405005250184,2.717099205273442,1.2852383515048125,2.3030090233190013,4.877680847562206,3.7997113016209885,3.1976660516294197,7.278696150552424
1569406397206526.0,4.524328409671688,2.7681918442625046,1.275879000314102,2.2416292168104777,4.707326673774856,3.6811167129009483,3.1993403019605955,7.281919334865349
1569406397206526.0,4.544462261594995,2.8241837777788414,1.2660237079900838,2.180907479944614,4.542860676741246,3.5684774236251804,3.2058323052246176,7.270685300861685
1569406397214542.0,4.568553898228188,2.8838522561486477,1.2593925489360238,2.1228043213920427,4.384031062321786,3.4660346915488898,3.2171627179829043,7.257780330016032
1569406397214542.0,4.602558586715965,2.9498040413764017,1.2554933153626107,2.0681390230865984,4.232595914948348,3.3739569747535976,3.2353238273299385,7.2651331205445775
1569406397229477.0,4.644229220235228,3.0202011187306015,1.2500418515393803,2.0171466071779354,4.087772632544249,3.294311349237375,3.2565848326297004,7.281482694754729
1569406397229477.0,4.694703106554421,3.0929152879336694,1.2415096399505268,1.9687665226596989,3.9504055233780746,3.2269985836776662,3.2792032076002524,7.309379479197498
1569406397230461.0,4.750888994817236,3.1666293534130796,1.2299678408849373,1.9210609771368556,3.820852328908782,3.171736741577681,3.3024605987314786,7.337832657548787
1569406397230461.0,4.810282063132334,3.2466765334986403,1.2158108631873923,1.872354248375892,3.7003899030226117,3.1276383826612126,3.3312728426205584,7.363719200292397
1569406397252402.0,4.874772427118419,3.330283880094203,1.2011771602268733,1.8242552378952503,3.587818037771623,3.0845311790120538,3.3663797310099106,7.38632643312552
1569406397252402.0,4.948560848423557,3.417477879389704,1.1890428926559546,1.7787303711354574,3.4813305092341325,3.0319450709981552,3.4109722340715143,7.4197887361138966
1569406397253399.0,5.026759737072547,3.505819709518938,1.1788493243596179,1.7340561326980708,3.37834416752181,2.9768558882717957,3.461464756210432,7.451389084981357
1569406397253399.0,5.103944789817023,3.595109478566721,1.169766957310237,1.6895066575416435,3.27651527098238,2.9313532414507777,3.5167627436224183,7.470984433834198
1569406397266367.0,5.179604234175043,3.6851081411362543,1.1615839517342088,1.6481042442876992,3.176866045178882,2.8952517334717607,3.5698689984027436,7.455996607743279
1569406397266367.0,5.263937570527841,3.7788849676562837,1.1535654514308138,1.6109716297826528,3.0795888974349785,2.864485871168377,3.621036408851319,7.427700811818494
1569406397274344.0,5.358557528865467,3.8737567777625808,1.1460695301301715,1.5784618984242618,2.983760510365027,2.84088914360702,3.673106820503446,7.408980513158484
1569406397274344.0,5.462680872068562,3.971681579994188,1.142557706358783,1.548598774956716,2.8943722717464135,2.827012056304892,3.730959322556531,7.412416122708058
1569406397289306.0,5.571314207658896,4.070886306699309,1.1440827872056167,1.5192205677285588,2.8146587174424234,2.822167604777837,3.789000416829026,7.426594353757148
1569406397289306.0,5.680662707395068,4.171485392467546,1.1490916813794958,1.490994160557736,2.743210096819743,2.825537453827979,3.843498395261285,7.4567152444192875
1569406397290302.0,5.7872888626642505,4.269303736789068,1.1542431376094262,1.4649952725645665,2.674668270512567,2.834191217815436,3.889661775814771,7.495438290545158
1569406397290302.0,5.891875054497866,4.365460561025245,1.159941895218212,1.4421757070750214,2.6066599089516864,2.8459307281014308,3.936739349553731,7.536598717061993
1569406397312243.0,5.998243303075683,4.460333061894553,1.1692474690640946,1.423658879454867,2.54186504391447,2.8636298140176155,3.98635288917226,7.558562063259258
1569406397312243.0,6.111795659704209,4.556537156374613,1.1836541795115398,1.408412460546578,2.4814057198850765,2.887301776497079,4.03427739962518,7.567080503314691
1569406397313276.0,6.227649434901534,4.652714305405212,1.201942299175996,1.3943491131577357,2.4242475261906495,2.9161600699758132,4.078769776693321,7.565061595237464
1569406397313276.0,6.34896457720364,4.749376902335127,1.2227365819474092,1.3814089046020874,2.3714749167270304,2.9507697412733944,4.129517515195472,7.576451673519377
1569406397326206.0,6.479627280958374,4.844830861891497,1.243703699708934,1.3705274145912645,2.3263045210717843,2.9937623006531924,4.1875082698160835,7.6082986153723855
1569406397326206.0,6.618279096049027,4.938807707969435,1.2655953930173958,1.3606972035356322,2.289444244347478,3.0466123622774264,4.256704041835084,7.666773380697996
1569406397335181.0,6.7553278217503845,5.019670363183451,1.2874408015066667,1.35196362431199,2.2578414760226617,3.108221159922568,4.3333408549563845,7.738178532125796
1569406397335181.0,6.8891357492972505,5.082249031428352,1.3077834471147698,1.3464480879433656,2.230428473760655,3.17526051751085,4.413509710058095,7.817051481222582
1569406397349200.0,7.026239924808095,5.135787608413268,1.3259703566051733,1.344815867573907,2.208559205323557,3.2435904082340756,4.491481200600115,7.892161060016387
1569406397349200.0,7.172341162048616,5.198107468972207,1.3429433556185881,1.3448779244904843,2.1920143339171143,3.3133301715869754,4.570129471830603,7.9809084462310365
1569406397350140.0,7.323859054595291,5.270974142448017,1.3586301601655217,1.3446981501310515,2.183332501848733,3.3901046738110003,4.647607476917617,8.085273419650587
1569406397350140.0,7.480884367873462,5.350093915280798,1.3741469072751735,1.3457000224043982,2.1822476192796585,3.4741538373769796,4.725897904290657,8.211330089463384
1569406397372083.0,7.642123608785518,5.432722070395778,1.3916048018535492,1.3487438793620534,2.1868342154979534,3.5613852148339222,4.796728944246016,8.34007429483743
1569406397372083.0,7.808628164908328,5.523254992097725,1.4134231049894423,1.355089919117429,2.1955986895110997,3.6497767097708325,4.862164277424197,8.472618663541489
1569406397373081.0,7.979980440273489,5.621208413563425,1.4376168444893684,1.366126181108332,2.2094235549183843,3.7408486638327125,4.930391840323989,8.612028256124127
1569406397373081.0,8.155863250124103,5.727279883153495,1.4625019656029319,1.3800093955342088,2.228646278716478,3.8350053562055892,5.006165572111358,8.764457075351435
1569406397386045.0,8.327771160767556,5.83706510008045,1.487852817116155,1.3915588864151365,2.25454623487401,3.932138250894489,5.0862480065540145,8.902532184372248
1569406397386045.0,8.497702903833849,5.9479973723386985,1.5130431791717731,1.4016342679770657,2.285692439078801,4.03202357213726,5.1700984482107035,9.027100162800327
1569406397395058.0,8.669895535287846,6.056103158876249,1.5336040624801046,1.415215411272512,2.322521098690225,4.135541062341858,5.246585468548027,9.151238107930276
1569406397395058.0,8.839773309651328,6.165684755808987,1.548943979370125,1.4322389775768403,2.363095043543871,4.240577142277727,5.301809593232323,9.289781804999404
1569406397410019.0,9.00329851583442,6.280122085997917,1.5598634664306261,1.4494587159757664,2.404882810260372,4.341292108304028,5.316217687581088,9.433414877592433
1569406397410019.0,9.170269534828291,6.401087690897977,1.5679799217329242,1.4680240813321594,2.4465052927590603,4.4398012579483375,5.2991211732760295,9.592977808938402
1569406397410019.0,9.346796627490725,6.525683592782606,1.5766203629378195,1.4896614509140849,2.4947517920326585,4.544476242464582,5.279304109623781,9.763147927367552
1569406397410019.0,9.53398087942664,6.653866519588955,1.5879147111997762,1.5151434134728556,2.5504892530480503,4.655153347418895,5.271397629480336,9.947924924048667
1569406397431952.0,9.72834510337061,6.784550240508738,1.5998309667785338,1.5438483251882078,2.613362568364998,4.770863234347824,5.269234728251428,10.145445494432193
1569406397431952.0,9.928080579099339,6.921926991591345,1.6132238948940048,1.5766684047993957,2.6814516644912363,4.893037845909076,5.273156356315589,10.363117871877717
1569406397432919.0,10.127978740625517,7.06443926527019,1.6283180953219565,1.612015973905815,2.7551531514699605,5.020643407755397,5.280111026419198,10.584608041611666
1569406397432919.0,10.318866020198172,7.207570823051967,1.6452414239829862,1.6468382018951542,2.832438120631939,5.1525652782598765,5.286878714245255,10.803276159304353
1569406397447922.0,10.48515162491131,7.343473349092535,1.6632581397506383,1.6797674505217404,2.9135169138978187,5.2902596507721595,5.291413786800615,10.984904503940083
1569406397447922.0,10.619661732623852,7.463692458311068,1.6817627868562206,1.712179049800163,2.9944202562485027,5.4310731492616044,5.299927093422758,11.090945181430689
1569406397454922.0,10.704124204597536,7.543937666604301,1.7007011819390807,1.7410461072824894,3.07193218295015,5.571122196399109,5.311042005901305,11.130605323073192
1569406397454922.0,10.730508354044224,7.581405741695874,1.7199196870785967,1.764013266085757,3.1454656279862747,5.70708992897529,5.326060862459966,11.166076393104033
1569406397469879.0,10.715857444802321,7.600470778303671,1.7367876804877642,1.7814609032435549,3.2187756201476176,5.833925072268209,5.345281177086514,11.20796752892941
1569406397469879.0,10.660167530723006,7.613508448182509,1.7545869678162498,1.796043163099204,3.2920912468690866,5.953044382423748,5.36715314725046,11.241813787333449
1569406397470863.0,10.537299048144707,7.611406489224193,1.7762793805385813,1.8107723214529257,3.370593462597018,6.075375030582925,5.378068271661538,11.235429512944968
1569406397470863.0,10.362808099460288,7.600518621439471,1.8022603397144166,1.8274744783739487,3.4540731849126844,6.203229466875728,5.37604743191586,11.176039743079556
1569406397491763.0,10.202363721317052,7.600577678843405,1.8323830245627335,1.8465191383563684,3.542926247506303,6.330876980105667,5.363054428531274,11.098801534759575
1569406397491763.0,10.090348989071526,7.619594579133388,1.8658066299564708,1.8687386120097569,3.6364640473411565,6.45765760701446,5.33940791400127,11.012181247496605
1569406397492759.0,10.015996400526427,7.653344416217139,1.899534031912232,1.8932496165532051,3.735195076484061,6.587940799204047,5.308780773167619,10.898924875740756
1569406397492759.0,9.96514933701183,7.698233765686309,1.9311617230179494,1.919201584976827,3.8350371186737813,6.72119360084324,5.283708988876552,10.771790179522196
1569406397507017.0,9.917028511007844,7.744840417079498,1.9588409610883892,1.9459162005740107,3.9369504037963554,6.856603188921492,5.27001167594226,10.647500867806684
1569406397507017.0,9.867847293448797,7.794446697958395,1.9860833522464034,1.976100123664673,4.042105451587541,6.994933273459693,5.264587219659916,10.521154314687553
1569406397514996.0,9.817242985188651,7.847213386276109,2.0126761183836974,2.010126509073585,4.151261249031134,7.133619606743119,5.262585152069198,10.373054467261309
1569406397514996.0,9.72863861295263,7.87981550772418,2.0317783438258536,2.0453600778795757,4.258216274368086,7.267924002461519,5.26865058977692,10.198083631895313
1569406397529954.0,9.593357941393034,7.87431798241773,2.041246732656731,2.079383282489357,4.359858355974186,7.385080267590731,5.278450216740323,10.001380279255205
1569406397529954.0,9.463665650631242,7.843038406161842,2.044628929331057,2.1143053432342747,4.4582249090656205,7.469110532354957,5.286823530590945,9.795506233520564
1569406397530659.0,9.366448579189838,7.797945206272205,2.0411735194763323,2.1491601262978017,4.560371184391854,7.524068838378222,5.282688203772002,9.600839139148372
1569406397530659.0,9.27979732550983,7.74890149500407,2.034674301947243,2.1832997864924866,4.6662337387973984,7.569411041174523,5.268105958283216,9.413575022979664
1569406397552716.0,9.17947755267598,7.692570561469128,2.0302616831903335,2.2197728862890185,4.777946291324495,7.623775358907565,5.257012684630545,9.232320629265407
1569406397552716.0,9.067671788958146,7.612205305608662,2.0290959385750384,2.258248734616341,4.89355912422428,7.690781103719251,5.256153069298461,9.062829485221547
1569406397553703.0,8.956583949450382,7.507308539223292,2.0315390722868485,2.294522744842807,5.0050645569120515,7.764759776208986,5.26043570527658,8.909381766356825
1569406397553703.0,8.859085103829003,7.406813720025175,2.039289948995547,2.3291765332578285,5.103718410019226,7.833803336950451,5.262962517013851,8.761158253928315
1569406397566859.0,8.771391894062885,7.327908593269597,2.0521455327210867,2.362673588679818,5.189630320665194,7.881683802475771,5.255645547672497,8.607574152599494
1569406397566859.0,8.684498646417756,7.271916277302193,2.068798542955635,2.392250153051013,5.263598595019278,7.889984788847647,5.2360384377744795,8.444492669144342
1569406397574543.0,8.597905220733095,7.236278820772215,2.0887325925295426,2.4161453373199304,5.323427131701193,7.826054529881946,5.190614009612614,8.28891379173359
1569406397574543.0,8.505087906367322,7.210106585894865,2.110099532660516,2.4365480069639505,5.366262633329565,7.693187200098674,5.118786759400463,8.144787815162804
1569406397589796.0,8.395587467886784,7.1745985090929265,2.123902008938332,2.4534541548642728,5.401010660732629,7.545179240148351,5.040062074573119,8.016854961349393
1569406397589796.0,8.268143963986484,7.128195783103295,2.1271411248062604,2.4699147806427155,5.421110148582041,7.414253237422109,4.970970026055171,7.907024600492055
1569406397590498.0,8.132264926439829,7.089419696419517,2.125253956518953,2.489978137318369,5.4196073813832255,7.307225696154878,4.912304355879126,7.816890356607199
1569406397590498.0,7.984818157258835,7.039671152685387,2.112752331279991,2.5030100830744053,5.406047433111777,7.215983363042944,4.855903296645685,7.742132781151957
1569406397612737.0,7.824410739921207,6.949704767963108,2.0817611005338956,2.498755220744405,5.386493678650787,7.110211532249247,4.7878839907071695,7.685367881187847
1569406397612737.0,7.674059296519476,6.84241365937697,2.042597546745616,2.4891784840130238,5.361413953517005,6.974876290059249,4.711435511295578,7.6296264512444365
1569406397613598.0,7.533696593945054,6.743681176002936,2.0056432011337213,2.4830930777673945,5.338997545988281,6.829248530114174,4.632284636606962,7.557569815553872
1569406397613598.0,7.391467184731502,6.659587516225053,1.972728317457543,2.478349601560027,5.323533313954037,6.695276136821551,4.555272638674104,7.466519204334184
1569406397626696.0,7.261635503073775,6.590506864213194,1.9420811920041396,2.4725408494390075,5.308374065747118,6.578307396689909,4.488464952036076,7.366572169922067
1569406397626696.0,7.137867384248133,6.529039899447808,1.911760843750155,2.462008972368137,5.27750401967652,6.474661447327228,4.435987132056361,7.258217278538557
1569406397635415.0,6.995615799653587,6.466199583078832,1.8855506644131788,2.4465035315037924,5.233920129953136,6.382357524647038,4.394183840887959,7.151839058668861
1569406397635415.0,6.8413662433976,6.403747155522569,1.8648118992967637,2.4321754086225185,5.194284477021986,6.29070949225692,4.363861598426651,7.053487633099225
1569406397650396.0,6.690470514585683,6.342704918055819,1.8441990298058977,2.4230975670794597,5.158168763788587,6.191531585466854,4.338904851357472,6.967073765112523
1569406397650396.0,6.552225336190839,6.278145213387236,1.8211090517003312,2.4195715337544583,5.124101575031411,6.078892388217358,4.315486276669835,6.894944777335982
1569406397650396.0,6.431048448431874,6.210210147451693,1.7985573522507567,2.4171373893384462,5.093025628611514,5.9459969437959055,4.293680059565323,6.83177482664785
1569406397650396.0,6.316904186825012,6.14175454376035,1.7792007136734456,2.411293013230029,5.047824736411668,5.810634412476197,4.279246436025631,6.761830396347668
1569406397672575.0,6.203171567275999,6.07206167424942,1.7596067271570444,2.4002864610493257,4.969619872265724,5.67756416305927,4.275685708411718,6.69836220361857
1569406397672575.0,6.09433472231105,5.997136637462782,1.7340443842781024,2.378597991629673,4.85421722632737,5.533713600020342,4.285691572509818,6.649743906267616
1569406397673508.0,5.992448931725832,5.916479191805562,1.7029183794514926,2.3456591553900785,4.713527659055571,5.38647934000754,4.307613987416916,6.610662782169022
1569406397673508.0,5.906006001689735,5.8431901460463065,1.6741572585057234,2.310038892992887,4.563664539361959,5.2489897397303515,4.341899878020877,6.573857645255771
1569406397695523.0,5.8383633261011685,5.784556833895831,1.6491075973407516,2.2731361401170336,4.416166863859072,5.127464531481826,4.382933245879157,6.542779099464028
1569406397695523.0,5.786052275052924,5.73760962501729,1.6237580898990307,2.232704834079161,4.273526891867019,5.016647159771468,4.432643769116292,6.508189932401048
1569406397696217.0,5.749853670357675,5.699358026590466,1.5991553635413434,2.1933458517364937,4.1375995936256675,4.9046432323191125,4.4920901679334095,6.465237893923346
1569406397696217.0,5.723130892520341,5.660868404585197,1.5771649370075695,2.158742605251025,4.012750859237205,4.794214112744414,4.559242225186025,6.425031910854627
1569406397710369.0,5.697358321541114,5.599703536973264,1.556474328079796,2.125789492638902,3.8946429319080256,4.694254720999912,4.625490335887991,6.385766283354676
1569406397710369.0,5.6765726715684135,5.513832197028965,1.5351992352887711,2.091355712970419,3.7777764409262238,4.605739037340705,4.689697176989092,6.334359940273061
1569406397710369.0,5.6652209134420755,5.427270094496851,1.514391299585743,2.0572434254866523,3.6674563011430377,4.5272114561751335,4.753963045944773,6.283835980098415
1569406397710369.0,5.665883908806844,5.349374348016107,1.4948956105625784,2.0243008582315456,3.569576028882898,4.456852457080959,4.8251697098393675,6.244780506920757
1569406397732416.0,5.677153762100759,5.273967704558957,1.473674886155231,1.9924038116860117,3.482024309480025,4.3975545719851015,4.905561157919269,6.2115705587174
1569406397732416.0,5.692589697794702,5.193403785657938,1.4525153193533684,1.9634221493323165,3.3976117444564053,4.352642613965172,4.996993962914378,6.18197696281461
1569406397733118.0,5.711297121469681,5.111504973381098,1.4363438760581382,1.9353075535217532,3.309967650635412,4.320156057294305,5.091642171967061,6.1666707707672845
1569406397733118.0,5.737314150645252,5.040163739375377,1.4258190338996286,1.905955076691831,3.2198027348344453,4.298681814748703,5.188137610867774,6.165430725392649
1569406397756102.0,5.768720758952947,4.979305886280855,1.419726419228554,1.8792530776386427,3.131980831175952,4.292708821681773,5.28663865070056,6.171596002532162
1569406397756102.0,5.804423800018826,4.929166783911737,1.4191574931805273,1.8571220736475533,3.0504312789288393,4.302534603706253,5.391380338743552,6.181722664826356
1569406397756102.0,5.833882138552963,4.891693139475434,1.423353489604738,1.8364787269285898,2.9751239413941057,4.321736153963344,5.502862465623824,6.186022833704893
1569406397756102.0,5.842486498421697,4.860322247151442,1.4303817380963053,1.8153067319572995,2.9039899604104016,4.348997912254843,5.620654513699108,6.166367211035874
1569406397770310.0,5.838400713167575,4.830900947752652,1.4404077858585231,1.7955690008253284,2.8374383615934065,4.3887575893144115,5.734874118281138,6.126539760670912
1569406397770310.0,5.844950171533619,4.810758391273773,1.4553623846376722,1.7791818230085943,2.779701564524445,4.440217242869342,5.835402927474916,6.091123018411528
1569406397771057.0,5.867895981799059,4.804562358361932,1.474166829397734,1.7649911847059125,2.7338679085565807,4.498547777753846,5.922987101942706,6.069176974159141
1569406397771057.0,5.909789932816366,4.809460550289163,1.4955721648822085,1.7519606132246461,2.698395396471843,4.5635397454151105,6.014649058857324,6.053709687006387
1569406397792254.0,5.972401283879104,4.8219942674152,1.5167379471780589,1.7389895735743843,2.6724936947687494,4.638802063133886,6.112689917402748,6.037550599718914
1569406397792254.0,6.053464090884084,4.841615894010323,1.5347629479982081,1.7261606030823216,2.655509608935512,4.725517063806568,6.2128980999557335,6.021945826906774
1569406397792958.0,6.149436050964655,4.867072155645773,1.5520767171121168,1.7142548546866299,2.645642250578381,4.8218674712137375,6.306248419221331,6.015404191622071
1569406397792958.0,6.256651313259127,4.898041667750071,1.5733452322550707,1.7002662326028373,2.6430421631147105,4.922251546209266,6.392605786025644,6.014885393273137
1569406397815552.0,6.372530517518747,4.933459381014109,1.596322900329259,1.6844645341895375,2.6509616836515777,5.025807948840478,6.47092223481749,6.0069703304847595
1569406397815552.0,6.499372336407292,4.980670065693104,1.6160271790878278,1.669803633383153,2.668596604071501,5.133368672515653,6.537565829282289,5.992357417872146
1569406397816260.0,6.637336934767232,5.04515075463156,1.6299934377235414,1.654098730369339,2.693170711760523,5.243016604118183,6.586914376405256,5.969359359934059
1569406397816260.0,6.788915105905535,5.127983247506059,1.642109863355895,1.63783471356902,2.7202227646335184,5.3547705722258625,6.622176211220982,5.933761223497645
1569406397829738.0,6.9496206319375995,5.228280444681706,1.6544784895299849,1.6229903770842766,2.7515301004469026,5.471995894751028,6.64517675252862,5.888064588897959
1569406397829738.0,7.117940950949579,5.345544699796467,1.6661584374282132,1.6098833809014501,2.787068740825687,5.598446695612034,6.662698607001985,5.834968271160482
1569406397830561.0,7.296909136034062,5.479138282269571,1.6773920630177046,1.6008217842707204,2.8273458829789586,5.734254581260204,6.677043458664426,5.77892455782866
1569406397830561.0,7.4867354291870045,5.62854099602032,1.6895758377448098,1.5988765462978185,2.875087138473545,5.879507173144684,6.689523050248766,5.727780508644356
1569406397852798.0,7.683341381519786,5.787453327998259,1.7033507423678957,1.6043643902593419,2.9314363650419666,6.036947531010468,6.705742310270244,5.685516637892533
1569406397852798.0,7.889572035062762,5.953907973662619,1.7196167107210907,1.6158824638383606,2.9942583677289747,6.203513451988612,6.740450890637223,5.654892009534209
1569406397853527.0,8.108236200026637,6.129763493867215,1.737547893130338,1.631173270658096,3.0659852862485897,6.376271546442798,6.796022982848103,5.630361463358744
1569406397853527.0,8.338889923326436,6.315817667811587,1.756243956484235,1.6508791340491742,3.1445653137401983,6.556273246975894,6.87007842036406,5.610878515483743
1569406397875740.0,8.578092669428605,6.511969458698243,1.7747033931399514,1.6766182466500015,3.228657454242724,6.742552616075152,6.956546259350465,5.599427855360211
1569406397875740.0,8.822049386356493,6.718753512493777,1.7935990116709577,1.7087435250066012,3.3146320086052166,6.928838931310496,7.053088363182497,5.604783635986075
1569406397876439.0,9.063278981452333,6.92967980452695,1.8138099768959532,1.74519848299186,3.3980176243972897,7.108240500568156,7.157990740139749,5.625671467485644
1569406397876439.0,9.295368880409605,7.14185218121335,1.8367398037559735,1.7850184888803557,3.4762034193896603,7.278503834018813,7.271887927891752,5.658569998313872
1569406397890437.0,9.510947135105308,7.33944074484356,1.8587196939499087,1.8272350890220102,3.5540516002655544,7.447619572379734,7.382787856545117,5.697439624225824
1569406397890437.0,9.686317409859154,7.483982294024682,1.8757519219356993,1.8683346584286513,3.633729810920154,7.618530120828909,7.473569878643474,5.750046611693003
1569406397890437.0,9.814127490402889,7.573968956312618,1.886456136086639,1.9043900612056033,3.717088303528199,7.7734863036062025,7.54754449670863,5.809709169749428
1569406397890437.0,9.939341143774714,7.661203291163302,1.8941466216693608,1.9379691191394566,3.80124390675094,7.911387591070319,7.620887752551406,5.874565791465419
1569406397912636.0,10.074673831730774,7.766326638266832,1.9036111141954544,1.9730945089898955,3.8876282352012175,8.057823614974055,7.684347026360972,5.946849591412402
1569406397912636.0,10.179245687213355,7.860015279391217,1.915802479458223,2.0109758568230123,3.9772186671744842,8.220022305763555,7.73227317467965,6.032414221552286
1569406397913616.0,10.229905611064142,7.913318089190785,1.9291779356711205,2.049628016704297,4.067290766026096,8.390181372495999,7.768369415758559,6.121370208299272
1569406397913616.0,10.256824141882301,7.932892964482627,1.9441684929352439,2.0874866955580176,4.155770136038572,8.564619510705414,7.801134273240045,6.206121458361379
1569406397935320.0,10.300427658313644,7.9461289455756665,1.9607320968004995,2.1232373200897334,4.245073970781273,8.73850472978268,7.8314909574732825,6.285195034221257
1569406397935320.0,10.371333669011086,7.976244742372518,1.9813356820655752,2.1595951204893433,4.332579105547086,8.880429380906557,7.840940501002697,6.370503936415453
1569406397936278.0,10.454316741524542,8.027086271413813,2.0064200071814065,2.199757415230094,4.416771812711266,8.962516090646597,7.804320564875409,6.450504543852983
1569406397936278.0,10.534285250629782,8.087514759892011,2.0334928512227206,2.2426946455276617,4.499801139830343,9.016425057699884,7.73407858054429,6.526498134841212
1569406397958352.0,10.600943021762788,8.135699752160146,2.0609206658955808,2.2864836836858147,4.589747437971045,9.085597733301576,7.6592200887450295,6.587960774931591
1569406397958352.0,10.66334743195654,8.166818079378826,2.0905352627459526,2.3329245692602307,4.6854079127715185,9.173539174778472,7.588339519010264,6.629894333564431
1569406397958352.0,10.73195115651633,8.195063045058673,2.1231775232263144,2.382899246990868,4.781891219594475,9.263874758149017,7.5115808500288335,6.668386068119097
1569406397958352.0,10.786874100747594,8.212353636936138,2.156043729630301,2.4345880261517956,4.870771842620441,9.345235479232361,7.421473668589311,6.720816806584853
1569406397972326.0,10.818923179251744,8.210259056018085,2.1856926883819123,2.4845985419508376,4.954986458910155,9.42817423910798,7.328542664973653,6.778276043991904
