timestamp,emg1,emg2,emg3,emg4,emg5,emg6,emg7,emg8
1570179628253986,8,2,0,-2,-1,-1,1,8
1570179628253986,-1,-1,-4,0,-1,1,1,6
1570179628254955,-2,-1,0,0,-2,-2,-4,-4
1570179628254955,0,-1,0,0,-2,0,0,5
1570179628256868,0,0,0,-1,0,0,-1,0
1570179628256868,0,0,0,0,-1,0,0,0
1570179628258141,-2,0,0,0,0,-2,0,-3
1570179628258141,-1,-1,0,0,-2,-1,0,-1
1570179628264776,-3,-1,0,0,-1,-2,1,-6
1570179628264776,-1,-1,0,-2,0,-1,-3,-7
1570179628272755,-2,1,-2,-2,1,0,-1,4
1570179628272755,-2,0,1,0,0,-3,-1,2
1570179628279739,-2,-1,-1,-1,-1,1,2,0
1570179628279739,-1,-1,-2,-2,-1,-1,-1,-1
1570179628296691,2,0,1,0,-1,0,0,0
1570179628296691,-2,-1,-3,-1,0,-2,0,-1
1570179628301915,-5,0,-1,-3,0,-1,-2,-6
1570179628301915,2,1,0,-1,-3,-2,-1,0
1570179628325616,-2,-2,0,-1,0,0,0,-2
1570179628325616,2,0,-1,0,1,2,0,-5
1570179628331600,-5,-3,-2,0,1,-1,-2,-1
1570179628331600,2,-1,0,-1,-1,-1,-1,1
1570179628364563,-2,-1,-2,-3,0,0,0,-4
1570179628364563,-1,-1,-2,1,-2,0,-3,-1
1570179628365507,-1,0,0,-1,-1,-2,0,1
1570179628365507,-1,-2,0,-1,0,-1,0,1
1570179628366502,-2,-3,0,1,0,0,1,0
1570179628366502,-1,-1,-1,-2,0,0,1,2
1570179628377894,0,-1,-1,1,-1,0,-3,-1
1570179628377894,0,1,-1,1,-1,0,-1,-2
1570179628379669,-1,-2,-2,-2,0,-1,0,-1
1570179628379669,-6,1,2,1,0,-1,0,-5
1570179628383458,-3,-1,-1,0,0,-1,-1,-4
1570179628383458,0,-3,-2,-2,-1,0,2,2
1570179628392493,0,1,2,0,-1,1,2,12
1570179628392493,3,-2,-1,-1,-2,-2,-1,8
1570179628406397,1,-1,-1,-1,1,-1,1,0
1570179628406397,1,1,-2,-1,-2,-1,-2,0
1570179628415373,0,0,-2,-1,0,0,-1,-5
1570179628415373,0,-1,1,1,-1,-1,-1,-4
1570179628446302,-7,0,1,1,0,0,-1,-5
1570179628446302,3,-1,0,0,-1,-2,-4,9
1570179628447287,-2,1,1,0,0,-1,-3,-5
1570179628447287,3,0,-1,-3,0,0,1,0
1570179628452455,5,1,1,-3,-2,-1,0,4
1570179628452455,-4,-2,-1,-2,1,2,2,-9
1570179628454399,-6,-2,-1,-1,-2,-3,6,-18
1570179628454399,2,2,0,1,2,-2,-5,1
1570179628475606,-5,-2,0,-1,0,-1,-4,-14
1570179628475606,0,-2,-1,0,-1,-1,2,6
1570179628476212,1,0,1,0,1,-1,1,-5
1570179628476212,-2,0,-2,0,-2,1,1,2
1570179628497333,0,0,-2,-2,-2,1,1,1
1570179628497333,1,1,1,0,1,1,3,11
1570179628499149,0,0,0,0,0,1,-2,3
1570179628499149,-2,-1,-1,-1,0,0,1,-6
1570179628512321,1,-1,-1,0,1,1,-1,9
1570179628512321,-1,0,0,1,-1,-1,-2,-1
1570179628519095,-1,0,-2,-2,-1,1,-2,-3
1570179628519095,2,-1,-2,-3,-3,1,1,7
1570179628535056,1,0,-2,-1,-2,-2,0,0
1570179628535056,-4,0,0,-2,0,0,-1,-7
1570179628537046,3,0,-1,-1,0,0,0,7
1570179628537046,-2,-2,-1,-1,0,-1,3,-6
1570179628558062,0,-1,0,1,-1,-2,0,-2
1570179628558062,-4,1,-2,0,-1,-2,-5,-23
1570179628559555,-6,-2,-1,1,-2,-1,2,-11
1570179628559555,2,0,-3,-2,0,-1,0,0
1570179628572004,-1,-2,-1,-1,0,1,-2,-2
1570179628572004,-1,-1,1,0,0,-3,-8,-4
1570179628579081,1,-1,-3,-1,-1,0,2,6
1570179628579081,1,0,-2,0,-1,-3,-4,3
1570179628595201,-2,0,1,0,-1,-3,-2,-3
1570179628595201,0,-1,-3,0,-2,1,5,6
1570179628596887,0,-1,-1,0,-1,0,-4,-5
1570179628596887,-2,0,-1,-1,0,0,0,-1
1570179628617831,0,-1,-1,-1,0,0,-3,3
1570179628617831,-2,1,0,0,-1,-1,1,-5
1570179628618828,3,0,0,0,0,-1,1,8
1570179628618828,-5,-1,2,2,0,1,-4,-14
1570179628631797,3,0,-1,-1,-1,0,1,6
1570179628631797,2,-1,0,-3,0,0,-2,5
1570179628638959,0,0,-1,-1,-1,0,-2,0
1570179628638959,-5,0,-1,-1,-2,1,15,-21
1570179628655825,-7,-1,-1,0,-1,-1,4,-30
1570179628655825,4,0,0,3,0,1,3,15
1570179628656726,0,1,-2,-1,0,-1,-5,-8
1570179628656726,0,0,1,1,0,1,0,9
1570179628677907,0,-1,-3,-3,0,-1,-1,-4
1570179628677907,1,1,-2,-1,0,-1,0,-2
1570179628678674,-2,-3,-4,-1,-2,-4,-3,-3
1570179628678674,0,0,0,-1,-1,-1,-2,2
1570179628691743,9,2,1,2,0,-2,-12,18
1570179628691743,0,0,1,-1,0,-2,-3,-3
1570179628698943,1,0,1,-1,-1,0,-1,10
1570179628698943,0,-2,0,0,-2,-2,-4,2
1570179628714603,-1,0,0,-1,-1,0,2,6
1570179628714603,-3,-1,-2,-2,-2,1,0,-4
1570179628716790,-1,1,-1,0,1,-1,-1,-1
1570179628716790,0,0,-1,-3,-1,0,2,4
1570179628737727,0,-3,-6,-1,-1,3,8,5
1570179628737727,1,0,0,2,-2,-1,2,10
1570179628739508,-3,-1,-1,-2,-2,-1,0,-3
1570179628739508,-2,-2,-1,0,-2,-2,-6,-7
1570179628752473,-4,-1,-1,-1,0,1,3,0
1570179628752473,-3,-1,-1,0,0,0,0,-6
1570179628766641,2,-2,-1,0,0,0,4,7
1570179628766641,0,-1,-2,0,-1,-2,-5,-8
1570179628775566,-1,0,0,0,-1,-1,-4,-12
1570179628775566,0,-1,0,0,0,-1,-2,-1
1570179628776996,-11,-4,0,0,1,1,0,-7
1570179628776996,2,2,0,0,-1,-4,0,0
1570179628797351,-1,1,0,-2,-4,-1,-5,-2
1570179628797351,7,-1,-1,-1,-1,0,-1,2
1570179628799814,0,0,0,-1,-1,1,0,2
1570179628799814,-6,-2,-1,-1,1,-1,-4,-3
1570179628812313,-2,-6,0,-1,0,-1,1,13
1570179628812313,-3,-1,-1,-3,-2,0,1,-8
1570179628819411,3,0,1,0,-2,0,-2,2
1570179628819411,-4,0,-1,0,-1,1,3,-2
1570179628835473,2,1,-1,0,0,-1,1,3
1570179628835473,-5,-4,-1,0,1,-1,-1,4
1570179628836552,2,-2,1,0,-1,-1,0,2
1570179628836552,5,6,-1,-1,0,-2,-2,-1
1570179628858288,2,0,1,0,2,3,1,0
1570179628858288,0,3,2,0,-1,0,-1,-2
1570179628859543,8,5,2,0,-2,-5,-7,-2
1570179628859543,-6,-10,-2,-1,-2,-1,0,3
1570179628872289,-8,-3,0,2,1,-3,-1,-4
1570179628872289,5,3,-2,-2,-1,-2,-1,-7
1570179628886388,-6,-2,-2,-1,-2,1,10,-17
1570179628886388,-6,-8,3,0,2,-1,-5,8
1570179628895277,25,36,-2,-5,-5,1,-4,-2
1570179628895277,9,1,-1,-2,-1,-2,0,-1
1570179628897084,-16,-6,-1,-3,-1,-5,2,-2
1570179628897084,9,0,0,0,1,4,-1,8
1570179628918029,-15,-13,1,2,0,-5,1,2
1570179628918029,-4,5,0,0,-2,-3,-1,0
1570179628919027,-26,-20,0,3,2,6,0,4
1570179628919027,41,31,-5,-5,-6,2,-7,-12
1570179628931046,1,-13,0,-2,-3,-13,-6,0
1570179628931046,-29,-22,-1,2,2,-2,0,-9
1570179628939971,5,7,2,0,0,-2,-4,7
1570179628939971,19,11,-6,-4,-3,-5,-1,0
1570179628955081,-14,-5,-3,-3,-2,3,-2,-6
1570179628955081,-4,1,2,2,1,4,1,0
1570179628956923,16,2,-3,0,-3,-6,-7,-2
1570179628956923,-2,0,3,0,1,4,4,7
1570179628977875,9,1,-5,-2,1,1,0,-7
1570179628977875,-10,-9,0,2,0,-1,0,-6
1570179628978997,-29,-2,0,2,1,-3,-8,-1
1570179628978997,12,13,0,0,1,5,2,-1
1570179628991992,9,-11,-2,1,-2,-3,1,-1
1570179628991992,13,11,4,0,5,12,-5,14
1570179628999815,-3,1,0,-3,-4,2,4,6
1570179628999815,-14,-7,0,0,8,1,3,0
1570179629014774,-1,-3,3,2,-8,-6,-1,7
1570179629014774,19,27,1,-1,0,-6,3,-2
1570179629020859,19,-1,-8,-5,0,16,0,-3
1570179629020859,-20,-12,2,1,-1,-7,6,-4
1570179629037709,-1,8,3,3,6,6,1,-3
1570179629037709,3,-11,-7,-5,-6,-10,-4,-1
1570179629043740,-30,-16,0,0,1,2,0,-1
1570179629043740,-36,6,8,4,2,2,2,0
1570179629051670,36,4,-8,-8,-4,-3,-3,1
1570179629051670,3,5,0,1,-2,2,0,-2
1570179629060647,45,19,0,-2,0,-3,-3,-7
1570179629060647,-51,-36,-4,-1,0,-2,-2,2
1570179629074659,38,24,7,1,2,0,2,9
1570179629074659,-61,-36,-8,-4,-2,-2,-6,-8
1570179629076873,11,7,0,-1,0,-1,0,-1
1570179629076873,11,-3,-2,-2,-3,-6,-3,0
1570179629097594,-11,-1,2,1,1,4,1,0
1570179629097594,15,1,-3,0,-2,-1,1,-3
1570179629099544,0,3,1,1,-1,-2,-1,3
1570179629099544,7,1,-1,-2,-2,0,-5,-2
1570179629111589,-23,-10,-3,1,1,-1,-3,-2
1570179629111589,10,4,2,1,1,0,2,0
1570179629127523,-3,-1,2,0,-3,-5,-1,2
1570179629127523,8,-1,-2,-1,-1,-1,-3,2
1570179629135446,-15,-4,0,-1,0,2,0,-9
1570179629135446,1,0,-1,0,-3,-2,-2,0
1570179629136445,6,3,-1,-1,-1,-2,-1,-3
1570179629136445,4,-2,-1,-3,-2,-2,-3,-4
1570179629157390,-6,-5,-2,1,-2,0,-1,8
1570179629157390,4,1,1,-3,0,1,-3,0
1570179629159383,-3,-2,0,-1,-1,-1,-2,-1
1570179629159383,1,3,1,0,0,1,12,-14
1570179629171471,-9,-1,1,0,1,-3,0,6
1570179629171471,4,1,0,-1,-1,0,1,-1
1570179629180331,2,2,-2,0,0,0,0,11
1570179629180331,2,-1,0,0,0,1,-3,-11
1570179629195287,-4,-2,-2,-3,-1,1,1,-2
1570179629195287,2,-3,2,-1,-1,0,-1,-1
1570179629196445,1,-2,0,-1,-2,-4,-3,-3
1570179629196445,2,-3,-1,-2,-1,-1,-5,4
1570179629217229,-6,-3,0,-1,0,1,1,-3
1570179629217229,5,3,-2,-1,0,1,-2,6
1570179629219224,-2,-1,0,0,0,-1,-1,-3
1570179629219224,2,1,0,1,-1,0,-2,9
1570179629231198,-5,-2,-1,1,1,-2,-7,-7
1570179629231198,1,0,0,-1,-1,-1,2,-2
1570179629240173,4,0,0,0,-2,-1,-1,3
1570179629240173,1,-2,-2,-1,-2,-1,-3,4
1570179629255133,-4,-1,-1,-1,-1,1,2,-8
1570179629255133,0,0,0,-1,0,0,-1,1
1570179629256428,-2,0,0,0,1,-1,-2,-4
1570179629256428,2,0,-2,0,-1,-3,-1,10
1570179629278071,-6,-3,1,0,-1,-2,-3,-6
1570179629278071,7,0,-1,0,0,0,0,8
1570179629279064,1,-2,1,-1,0,0,1,3
1570179629279064,-1,-1,-1,1,-1,-1,-1,-4
1570179629300243,-4,-2,-1,-1,-1,2,-1,-2
1570179629300243,0,0,-1,-1,-1,-4,0,-3
1570179629302010,-3,0,0,0,1,0,0,1
1570179629302010,1,-1,-1,-1,-1,0,-1,-1
1570179629315128,-1,-1,-1,0,0,0,1,2
1570179629315128,1,0,0,0,1,1,-2,-1
1570179629316961,0,0,0,0,-2,1,1,1
1570179629316961,0,-1,0,-1,0,-1,-2,10
1570179629337157,-1,-1,0,-1,-2,0,-1,-1
1570179629337157,-3,-1,-1,-2,-2,-1,1,3
1570179629344103,1,-2,1,0,-1,-1,1,-1
1570179629344103,1,-1,-2,-1,-2,0,-1,-1
1570179629360040,-1,-1,-1,-2,1,0,1,2
1570179629360040,-2,1,-1,0,1,-1,0,-7
1570179629361844,-2,-1,-3,-3,-1,0,-1,6
1570179629361844,-1,-2,-1,1,1,-2,-3,-3
1570179629382790,0,-1,1,-2,-1,0,1,1
1570179629382790,-1,-2,-1,-2,-2,-1,0,-2
1570179629383876,0,0,-1,-1,1,0,1,1
1570179629383876,1,0,-1,-3,0,-1,-2,-10
1570179629396808,0,-1,-2,1,1,0,0,1
1570179629396808,0,1,0,-2,-2,0,-2,-2
1570179629405728,-2,0,-1,-2,-1,-2,-1,-4
1570179629405728,0,0,0,-1,0,-1,0,2
1570179629420736,-2,-3,-1,-3,-2,0,-1,-2
1570179629420736,0,-2,-2,0,1,1,1,-1
1570179629421685,1,1,1,-1,-3,1,1,-1
1570179629421685,0,1,2,1,0,-2,1,0
1570179629442847,-2,1,0,3,0,-2,0,-1
1570179629442847,0,-2,-2,-1,-1,-2,1,1
1570179629444622,-1,-2,-2,-3,2,-1,0,-1
1570179629444622,1,-1,-2,0,-1,2,0,1
1570179629456813,-7,-2,-2,-2,-3,1,15,-22
1570179629456813,2,0,-1,0,-1,-1,-5,5
1570179629465573,-1,0,-1,1,0,-1,-1,-4
1570179629465573,-1,-2,-1,-3,-1,-1,-3,4
1570179629480526,2,-1,-1,-2,-1,0,0,3
1570179629480526,-6,-1,-2,-2,-1,-1,-5,-13
1570179629481521,-2,-1,0,-2,-1,-4,-6,-9
1570179629481521,-8,-1,-3,-3,-3,0,7,-38
1570179629502687,0,-1,-1,1,-2,-3,-6,1
1570179629502687,-1,1,1,-2,-1,-1,-2,-1
1570179629504468,-1,-1,1,2,-1,-1,-1,8
1570179629504468,1,0,-2,-1,1,2,0,6
1570179629516554,-2,0,1,1,-1,-2,-8,-4
1570179629516554,1,-1,-2,-1,0,3,4,6
1570179629525413,-2,-1,-2,-2,1,1,5,-8
1570179629525413,2,1,0,1,0,-1,-1,13
1570179629540419,3,0,-2,-2,0,-1,-1,5
1570179629540419,1,-1,2,0,-1,-1,-2,0
1570179629541602,1,0,-2,0,1,0,1,7
1570179629541602,-1,0,0,1,0,0,-3,2
1570179629563082,1,0,-1,-2,-3,-1,-3,6
1570179629563082,-1,-1,1,0,-1,-2,1,-3
1570179629564329,-1,-2,0,-1,-2,-1,-2,-2
1570179629564329,1,-1,0,-1,0,-1,0,3
1570179629576412,-1,-1,-2,-2,1,-1,0,-1
1570179629576412,1,0,-1,0,0,1,0,2
1570179629585253,1,2,-2,-1,0,1,-2,3
1570179629585253,-3,-3,-1,0,0,0,0,0
1570179629600420,-3,-1,1,-1,2,0,-2,-6
1570179629600420,-1,-1,0,0,0,1,0,5
1570179629601563,1,-1,-1,-1,0,0,-1,-2
1570179629601563,1,0,-2,0,1,-1,-1,1
1570179629623176,-2,-1,-1,-1,0,-2,-2,-5
1570179629623176,1,-1,1,-1,0,0,3,6
1570179629624227,-1,-1,-1,0,0,-1,-2,-2
1570179629624227,-1,-1,-1,-3,-3,-1,-1,-1
1570179629636315,0,1,0,-1,-1,1,-2,4
1570179629636315,-1,2,1,2,0,0,-1,6
1570179629645083,3,-1,-1,-1,0,-1,0,2
1570179629645083,-1,1,-1,1,1,-2,0,-4
1570179629659213,2,-1,-1,0,-1,-1,0,6
1570179629659213,-2,1,-1,-2,-1,-1,-1,-7
1570179629668033,0,0,0,0,-1,0,-1,2
1570179629668033,1,1,1,-2,0,0,1,1
1570179629683048,-3,-2,0,1,0,0,-1,-3
1570179629683048,-4,-1,-1,-1,0,-3,-2,-4
1570179629684321,-4,-3,-1,-3,-1,-1,0,-11
1570179629684321,2,-2,-1,-1,-1,0,1,4
1570179629696101,0,0,0,2,0,0,-3,0
1570179629696101,0,-3,-2,0,-1,0,-2,-4
1570179629704925,-2,-1,-1,1,0,1,0,0
1570179629704925,-2,-2,1,0,-2,-1,-2,-1
1570179629719897,3,0,0,0,0,0,-3,8
1570179629719897,1,-1,-2,0,-1,0,1,-1
1570179629721881,-1,0,0,0,0,0,-2,-1
1570179629721881,0,-1,0,0,-2,0,1,-2
1570179629742964,6,-1,-1,0,-3,-1,3,10
1570179629742964,-2,-2,-2,-1,-2,0,-3,-7
1570179629744494,3,-1,0,0,-2,-2,0,10
1570179629744494,7,2,0,0,-2,-3,-17,10
1570179629755903,-1,2,1,1,1,-2,1,7
1570179629755903,2,1,0,-2,0,0,4,13
1570179629764814,-7,-2,-3,-3,-2,-1,1,-9
1570179629764814,1,0,1,0,2,3,4,-4
1570179629780723,0,-2,-2,-3,-1,-2,-1,-2
1570179629780723,2,0,-2,-1,0,2,-2,4
1570179629781850,-4,-1,0,-1,-1,1,-1,-6
1570179629781850,-4,-1,-2,-2,-1,0,2,-2
1570179629802892,-3,-2,-1,-1,-1,-2,0,-7
1570179629802892,0,0,-1,-1,0,-2,2,3
1570179629804657,3,0,-3,-1,-1,0,-2,5
1570179629804657,-7,-2,0,-1,-1,-1,-1,-11
1570179629825659,-1,0,-2,0,0,-1,-2,-3
1570179629825659,-1,-2,-1,-1,1,-1,-2,-6
1570179629831779,0,0,0,-1,0,-1,-1,-1
1570179629831779,0,0,1,-1,-1,-1,2,2
1570179629839561,-5,-2,-1,0,0,0,0,-4
1570179629839561,-1,-1,1,0,-1,-2,-2,-6
1570179629841556,-2,-2,-2,-1,-2,-2,-1,-3
1570179629841556,-1,0,-1,0,-2,-1,0,-2
1570179629862502,-1,-1,-2,-3,-2,1,3,0
1570179629862502,-3,-1,-1,-1,-2,-2,5,-9
1570179629864685,-2,0,1,1,-1,-2,-4,-5
1570179629864685,-1,-1,-1,-2,-1,-1,0,0
1570179629885575,-2,1,0,-1,1,-1,-2,6
1570179629885575,0,0,0,-2,-1,0,0,-4
1570179629886875,1,0,-1,-1,0,0,1,1
1570179629886875,-1,-1,-3,0,0,-1,0,-1
1570179629899622,-1,-2,-2,0,-1,1,1,-7
1570179629899622,-1,-1,-1,1,0,0,-1,8
1570179629906388,-2,0,2,1,0,0,-4,-11
1570179629906388,2,0,-1,0,0,0,-1,3
1570179629922345,0,-1,-1,0,0,0,-1,1
1570179629922345,-1,0,-2,-1,-1,-1,-1,4
1570179629924340,-1,-1,-1,0,-1,0,1,7
1570179629924340,-2,-1,0,0,0,-1,1,-4
1570179629945290,-2,-1,1,2,0,-1,-2,-6
1570179629945290,1,0,0,-2,-2,0,-3,-1
1570179629946280,0,-1,-2,-2,-1,1,2,2
1570179629946280,-3,-1,-1,0,-1,1,2,-5
1570179629960484,3,2,3,2,0,-3,-4,1
1570179629960484,1,-1,-1,-1,0,-2,-1,2
1570179629961239,0,-1,-2,-2,-1,0,0,1
1570179629961239,-3,-1,0,-1,-3,0,-2,-3
1570179629983181,-1,0,-1,-2,-1,1,-1,-1
1570179629983181,0,0,1,0,0,0,-4,-5
1570179629984400,2,0,-1,-1,0,0,0,11
1570179629984400,0,-1,0,-2,1,-1,0,2
1570179630005124,0,-2,-2,-3,-1,-1,1,-2
1570179630005124,-1,0,0,1,-1,0,-2,-5
1570179630007195,-3,-1,-1,0,-1,-1,1,-2
1570179630007195,0,1,-1,-1,-1,0,0,6
1570179630019272,-1,0,-1,-1,0,-1,-1,-3
1570179630019272,-5,-1,-1,0,0,0,1,-5
1570179630026327,-3,0,-2,1,-1,-2,-3,1
1570179630026327,2,-3,-2,-1,-1,-2,1,2
1570179630043073,4,0,-1,0,-2,1,1,3
1570179630043073,-5,-1,-2,-1,-1,-2,0,0
1570179630044245,-3,0,0,0,0,-1,-1,-11
1570179630044245,-2,1,-2,1,-1,-2,-1,-3
1570179630065203,-1,0,0,-2,-1,0,-1,0
1570179630065203,4,1,0,-2,1,1,-7,11
1570179630066955,0,-2,0,-2,-1,-1,1,4
1570179630066955,-1,-1,-1,-1,-2,0,0,2
1570179630079975,-2,0,-1,-2,0,-2,-4,3
1570179630079975,-2,-3,0,0,1,1,2,-5
1570179630086597,0,-1,0,0,-2,0,1,1
1570179630086597,1,1,2,1,1,-1,-4,-2
1570179630103041,-4,-3,-2,0,-1,0,2,-7
1570179630103041,1,-1,-1,-2,0,-1,1,2
1570179630103967,1,0,-1,-1,-1,-1,0,-1
1570179630103967,-3,-2,-1,-1,-1,0,0,-5
1570179630124978,-2,-2,1,-2,-1,-2,-1,-2
1570179630124978,2,0,-1,1,-2,-1,-1,-5
1570179630126880,1,1,0,0,1,1,2,12
1570179630126880,7,0,-1,-1,-2,0,2,12
1570179630139892,2,-1,0,-1,-1,-1,-1,7
1570179630139892,-2,0,0,0,0,-1,-1,-5
1570179630146766,-1,-1,-1,0,2,-1,0,-9
1570179630146766,-3,-1,1,1,0,-1,0,3
1570179630162905,1,-1,1,0,0,0,0,1
1570179630162905,0,0,-2,-1,-1,-1,-1,-1
1570179630164696,4,0,-1,-2,0,0,-1,-2
1570179630164696,-5,-2,0,-3,1,-1,0,-2
1570179630185641,0,0,-2,1,1,0,-1,-1
1570179630185641,-1,-1,-1,0,-2,-1,1,0
1570179630186903,-1,1,-2,-1,0,0,-1,-6
1570179630186903,-1,-2,-2,-1,0,-1,1,-6
1570179630199636,-2,1,1,1,-1,-2,-2,-7
1570179630199636,2,-1,-2,-2,-1,-1,0,7
1570179630206588,-1,-2,-1,0,-1,-2,0,2
1570179630206588,-5,-1,-2,-4,-2,0,14,-18
1570179630222687,-3,-1,-2,-2,0,-1,-4,-2
1570179630222687,-2,1,1,1,0,-1,-1,-4
1570179630224540,0,-2,0,-3,-3,-2,-4,5
1570179630224540,0,-1,0,0,-2,-1,-4,4
1570179630245479,-5,-3,-1,-1,0,-1,-1,-18
1570179630245479,-2,0,-2,-1,0,0,1,7
1570179630246475,-3,-1,-2,-2,-1,0,3,-3
1570179630246475,2,1,1,1,-1,1,-3,5
1570179630259445,-3,0,-1,0,1,0,2,5
1570179630259445,-1,-1,0,-1,-1,-1,-4,-5
1570179630266430,4,0,0,1,-1,-1,-1,0
1570179630266430,-2,0,-1,0,0,-1,-4,3
1570179630282595,2,-1,-2,-2,0,0,0,1
1570179630282595,-2,-2,-2,0,-1,1,2,-3
1570179630284381,-1,-1,-1,-1,-1,1,0,2
1570179630284381,-1,0,0,1,-2,-1,-5,-5
1570179630305560,-1,0,-1,0,-3,0,2,1
1570179630305560,1,1,0,0,-1,-2,-2,-3
1570179630307000,-1,0,0,-2,-1,-1,-1,-1
1570179630307000,1,-1,-2,0,0,-2,-3,2
1570179630319475,0,-1,-1,-2,0,1,1,1
1570179630319475,0,-1,0,-1,-1,0,-2,-1
1570179630326397,-1,-2,0,-2,-3,-1,-6,-8
1570179630326397,1,-2,-1,-2,-1,-1,2,2
1570179630342419,0,-1,-2,0,-1,0,-2,9
1570179630342419,3,-1,0,-1,1,-2,0,1
1570179630344216,-2,1,0,2,-1,-1,0,-5
1570179630344216,-1,-1,-1,0,0,-1,-2,0
1570179630365390,-1,-1,0,-1,-3,-1,10,-10
1570179630365390,-4,1,-1,-2,-1,-2,-8,1
1570179630367154,-2,-1,1,1,-2,-2,-1,2
1570179630367154,1,-1,0,-1,0,1,0,1
1570179630379122,3,1,-1,1,0,1,-2,5
1570179630379122,-1,-1,-1,0,-1,0,2,-4
1570179630388102,0,-1,-1,-1,-1,-1,0,3
1570179630388102,-1,-1,0,0,0,-2,-4,1
1570179630403112,0,-1,1,1,-2,-2,-3,-1
1570179630403112,-1,-2,0,-1,-1,-1,1,-1
1570179630404456,0,-1,-1,-1,1,0,-2,3
1570179630404456,0,-2,-2,-2,0,1,1,-2
1570179630425177,-2,-1,-1,-2,0,-1,-3,0
1570179630425177,-1,-1,0,-1,-1,-1,2,2
1570179630427078,-4,-1,-2,0,-1,-1,3,-10
1570179630427078,4,2,0,0,-2,-1,1,8
1570179630439013,0,-1,-1,-1,0,-1,-2,1
1570179630439013,2,-1,1,-1,-1,0,-1,4
1570179630447944,-3,-1,-1,-1,1,0,-2,-6
1570179630447944,1,1,-2,-1,1,-1,0,-1
1570179630463002,-8,0,0,0,-1,-1,-4,-14
1570179630463002,2,-1,-1,-1,-1,0,1,5
1570179630463897,2,1,-1,-1,0,1,1,3
1570179630463897,-3,1,-1,0,-2,-2,-3,-5
1570179630484962,-1,-2,0,-1,-1,-1,2,-1
1570179630484962,-2,-1,-2,-1,1,0,-1,-1
1570179630484962,1,-2,0,-1,-1,-2,-2,-1
1570179630484962,-2,-2,-1,0,1,0,-1,-4
1570179630506998,1,-1,0,0,0,-1,0,4
1570179630506998,-2,0,0,0,-2,0,-1,-5
1570179630507781,4,-1,-2,0,-1,0,-1,10
1570179630507781,0,-1,-2,0,0,0,0,6
1570179630521787,0,1,-2,-1,-1,-1,-3,-6
1570179630521787,5,-2,-3,0,0,-1,2,11
1570179630522746,-4,-2,0,1,0,0,-1,-5
1570179630522746,-4,-1,0,-1,0,-1,0,-8
1570179630544678,2,0,-1,-1,-1,0,1,6
1570179630544678,-3,1,-1,-1,1,-3,-2,-8
1570179630551838,-2,-1,-1,-1,-1,0,-2,-5
1570179630551838,2,-1,0,0,-1,0,0,4
1570179630566924,-2,1,-2,-1,1,0,0,-7
1570179630566924,1,-1,-1,-1,0,-2,-3,-14
1570179630567633,0,1,1,1,0,-2,0,1
1570179630567633,-2,-1,1,-1,-2,-2,-2,-4
1570179630582048,-1,0,-1,0,0,-1,0,2
1570179630582048,-2,-1,1,1,-1,-1,-1,-2
1570179630582584,3,0,-1,0,1,-1,2,0
1570179630582584,0,0,-1,-1,-1,0,0,6
1570179630604570,0,-2,-2,-2,0,1,-1,-2
1570179630604570,-1,0,-1,-1,-2,0,0,2
1570179630605520,-1,-2,0,-1,-1,-1,-2,0
1570179630605520,-1,-1,-1,1,1,-1,1,2
1570179630627486,1,-1,-2,-1,1,-1,0,1
1570179630627486,-4,0,-1,-3,1,1,-1,-1
1570179630627486,0,1,0,0,0,-1,1,0
1570179630627486,-2,0,-1,-2,1,-2,-1,-8
1570179630642420,3,-2,-1,0,-1,-1,1,4
1570179630642420,0,0,-1,0,-1,-2,0,1
1570179630642420,-3,0,1,0,-2,0,-1,-2
1570179630642420,1,-2,0,0,-2,0,-3,-5
1570179630664409,-1,-1,0,0,-3,-1,-2,3
1570179630664409,0,-1,0,0,-1,0,1,2
1570179630665363,-2,0,-2,0,1,-1,-2,-2
1570179630665363,-1,-1,0,-1,0,0,0,0
1570179630687299,0,-1,-1,-2,-2,0,-1,10
1570179630687299,-4,-3,-1,0,-1,0,1,-7
1570179630687542,3,-1,-1,-1,1,1,1,7
1570179630687542,-2,1,0,0,-1,-1,-1,-6
1570179630710332,0,-1,0,-1,0,0,-2,-1
1570179630710332,-1,0,1,0,-3,-2,1,0
1570179630711233,-3,0,0,0,-2,1,0,-3
1570179630711233,-1,-1,0,2,-1,-1,-1,4
1570179630724203,0,0,-1,0,0,-1,-1,-2
1570179630724203,-2,0,-1,1,-1,1,-2,-4
1570179630725198,5,1,1,0,0,0,1,3
1570179630725198,-1,-1,0,-1,-1,-1,0,-3
1570179630747142,-1,0,1,-1,1,-1,0,-1
1570179630747142,-1,-1,-1,-1,0,0,-1,-5
1570179630747142,-1,-2,-2,0,-2,-2,-3,4
1570179630747142,1,0,-2,-3,-2,0,0,-2
1570179630762105,-2,0,0,-1,-2,-1,0,-3
1570179630762105,1,-1,0,0,-2,0,0,0
1570179630770127,-2,-1,0,-2,0,-3,-1,-3
1570179630770127,-2,0,-1,-1,-1,-1,-3,-1
1570179630785037,-4,-2,0,0,0,-1,-3,-3
1570179630785037,2,0,-1,-1,0,-2,0,6
1570179630785037,-5,0,2,-1,-1,-1,0,-2
1570179630785037,-3,-2,-2,0,0,-1,-3,-1
1570179630807220,0,-1,-2,-1,-1,1,1,-2
1570179630807220,-2,-1,-3,1,0,0,-1,1
1570179630807976,-1,0,-3,0,-1,0,-2,-3
1570179630807976,0,1,0,1,-1,-1,1,1
1570179630822151,1,0,2,-1,1,0,-1,0
1570179630822151,0,0,-1,-1,0,-1,1,2
1570179630822935,1,-1,0,-1,0,0,2,1
1570179630822935,2,0,-1,-1,1,0,1,6
1570179630844881,1,-1,-2,-2,-2,-1,-1,1
1570179630844881,0,1,1,-2,0,0,-3,-2
1570179630844881,1,0,0,0,-2,-1,-1,1
1570179630844881,-3,0,0,0,0,0,-1,-6
1570179630866999,2,0,-3,-1,1,-1,-1,2
1570179630866999,-3,-2,-2,-2,1,-1,-2,-1
1570179630867826,-2,0,0,0,-1,-1,-3,-5
1570179630867826,-1,-1,-1,-1,-1,0,0,0
1570179630881885,0,-1,0,1,0,0,0,1
1570179630881885,1,-1,0,0,1,1,3,-1
1570179630889897,-2,-1,0,0,1,-2,0,-3
1570179630889897,0,-2,-1,-1,-1,-2,-2,3
1570179630904825,3,0,-1,0,-2,0,3,18
1570179630904825,0,0,-3,-2,-2,-1,-2,-3
1570179630904825,2,-1,-1,0,0,-1,0,2
1570179630904825,0,-1,-1,1,0,0,4,5
1570179630927057,-2,0,0,0,-1,1,-4,-15
1570179630927057,1,1,-2,0,-3,-1,1,4
1570179630927654,-1,1,-1,-1,1,0,-1,0
1570179630927654,-2,-1,-1,0,-1,1,-2,-5
1570179630943617,-2,0,0,-1,2,-2,-1,-2
1570179630943617,-2,-2,0,0,0,0,1,0
1570179630944610,-2,0,-1,0,-2,1,-1,-4
1570179630944610,0,0,1,0,-1,-2,-2,0
1570179630964653,-2,-2,1,2,-2,-3,1,1
1570179630964653,-2,0,1,-1,0,0,0,-3
1570179630965555,0,-1,-1,-2,-1,-2,1,5
1570179630965555,-2,0,-1,-1,-1,0,-1,-3
1570179630995622,0,-1,-1,-2,0,-1,-2,0
1570179630995622,-5,0,-1,0,1,-1,-4,-9
1570179630996476,1,-1,0,0,-1,-1,0,0
1570179630996476,1,2,-1,0,-1,1,2,5
1570179631002509,0,-2,-2,-1,-1,-1,0,-9
1570179631002509,0,1,1,0,0,1,1,0
1570179631002509,1,0,-1,-1,0,-1,-1,0
1570179631002509,-2,-1,-1,-1,0,-2,0,-3
1570179631024579,1,-1,-1,-1,-2,-2,-1,2
1570179631024579,2,0,1,1,-1,-3,1,3
1570179631025484,-2,1,-1,-2,-2,0,0,-4
1570179631025484,1,0,0,-1,0,-1,-1,0
1570179631046816,-1,1,-1,0,0,0,1,1
1570179631046816,-2,-2,-1,-2,-2,-1,-2,-6
1570179631054321,0,-1,-2,1,0,-1,-1,0
1570179631054321,-1,-2,-2,1,-1,-2,-3,-3
1570179631062294,2,0,-1,-2,0,1,0,6
1570179631062294,0,0,0,-1,-1,1,-1,0
1570179631062294,-2,0,1,-1,0,-1,-2,-2
1570179631062294,-4,-2,-2,1,0,0,-3,5
1570179631084472,3,1,0,0,0,1,1,-3
1570179631084472,1,-2,0,0,0,-2,0,5
1570179631085242,-1,-1,-3,-1,-1,0,0,-2
1570179631085242,-1,-1,-1,-1,1,-2,0,-1
1570179631107292,-4,-1,-1,-1,0,-2,-3,-6
1570179631107292,0,-1,-1,-2,-1,-1,0,1
1570179631114329,0,-2,0,-1,-1,-2,0,1
1570179631114329,1,1,1,-2,-1,-1,-1,-5
1570179631122141,-2,-1,-3,0,-1,0,-2,2
1570179631122141,1,-1,-3,-1,-1,1,-1,0
1570179631123133,-3,-2,-2,-1,0,-1,-2,-2
1570179631123133,2,0,0,0,-3,0,0,2
1570179631144290,-2,2,-2,-1,-1,-2,0,0
1570179631144290,1,-2,-1,-2,1,-1,-2,3
1570179631145528,0,-1,-1,2,1,-1,1,0
1570179631145528,0,-1,-2,-1,2,-1,-1,-1
1570179631167226,-1,1,-1,-1,-3,1,-2,-3
1570179631167226,0,-1,-1,-2,-2,-1,0,1
1570179631168025,-2,-1,0,-1,-1,0,0,-2
1570179631168025,0,-1,-1,-1,0,1,1,-1
1570179631181109,-2,0,-1,0,-1,-1,-1,-2
1570179631181109,0,-1,-1,-1,1,0,-1,0
1570179631189955,2,-1,-1,0,0,-1,1,-1
1570179631189955,-2,-1,0,-1,-3,1,0,-1
1570179631203920,-1,-1,-1,-1,1,1,2,-1
1570179631203920,0,-1,-1,1,-2,0,-1,0
1570179631205080,1,2,-3,-1,-1,1,-2,2
1570179631205080,-2,-1,0,-2,-2,1,-1,-3
1570179631227047,0,-2,-1,-1,-1,-2,0,-1
1570179631227047,-2,0,1,0,-2,-2,-1,-2
1570179631227856,0,-1,1,0,0,0,-1,0
1570179631227856,0,-2,-1,0,-1,0,0,0
1570179631241982,0,-1,-1,-1,-1,1,-3,1
1570179631241982,0,0,-1,1,-1,0,0,-1
1570179631242815,-4,-1,-1,0,-1,0,-2,-3
1570179631242815,4,0,1,-1,0,0,1,2
1570179631264908,-3,0,0,-2,0,0,0,-3
1570179631264908,0,0,0,1,1,0,0,0
1570179631264908,-1,0,1,-1,-1,0,-1,0
1570179631264908,-1,-1,0,0,-1,-3,1,-1
1570179631286696,-2,-2,-1,0,-3,-1,-2,0
1570179631286696,-1,0,-1,-2,1,0,-2,-8
1570179631287700,3,0,-1,-3,-1,0,0,1
1570179631287700,0,-1,-1,-1,-1,-2,-2,-2
1570179631301795,-1,0,0,0,0,-2,-1,1
1570179631301795,0,0,-2,-1,-1,2,2,6
1570179631302744,0,-1,-3,-1,-1,0,-1,1
1570179631302744,-1,0,0,-1,0,0,-1,0
1570179631324646,0,1,-1,0,-2,-3,0,-2
1570179631324646,2,0,-1,-2,-1,-1,2,-1
1570179631331786,-3,-1,-1,0,-2,-3,-2,-7
1570179631331786,-1,0,0,0,-1,0,-1,2
1570179631347534,0,1,-1,-1,0,-2,1,-1
1570179631347534,-1,-2,1,0,-1,-1,-3,-2
1570179631347534,-1,-1,-1,-1,-1,-2,-2,1
1570179631347534,-1,0,-2,-1,0,0,-2,1
1570179631362493,1,-2,-1,-1,0,-1,0,-1
1570179631362493,-1,-1,0,-2,-2,-1,0,-1
1570179631362493,-1,1,-1,-1,0,-1,0,-1
1570179631362493,-1,1,-1,2,-1,-1,-1,-1
1570179631384659,1,-1,0,-1,-3,-1,0,2
1570179631384659,-2,1,0,2,-1,0,-2,-2
1570179631385442,1,0,-1,-2,0,0,0,5
1570179631385442,-1,2,-1,0,-1,-1,0,1
1570179631407423,-4,-2,-1,-1,0,2,0,-4
1570179631407423,2,-1,-2,-2,-1,-1,1,-1
1570179631407423,0,1,0,1,-2,-1,1,5
1570179631407423,0,-1,-2,-1,0,-2,-1,-2
1570179631421341,-2,1,0,-2,0,1,0,-4
1570179631421341,3,-1,0,-1,-1,-1,0,4
1570179631429340,1,-1,-2,0,0,1,2,3
1570179631429340,-5,-1,-1,-1,0,-2,-1,-9
1570179631445271,2,1,-1,0,-2,-4,-1,6
1570179631445271,0,-1,0,-1,0,-1,-1,-11
1570179631445271,-1,-1,0,1,-2,0,-1,-1
1570179631445271,0,0,0,0,-2,1,-1,0
1570179631467357,0,-1,-2,-2,-1,0,0,0
1570179631467357,0,0,0,-1,2,-1,0,4
1570179631467357,-2,-2,0,-1,0,-1,-2,-3
1570179631467357,1,-3,0,-1,-2,-1,-1,4
1570179631481439,1,-1,-2,1,0,0,-1,1
1570179631481439,-3,-1,-2,0,-1,-1,0,2
1570179631489309,-1,0,0,-2,-1,0,0,-4
1570179631489309,2,0,-2,-2,0,0,0,4
1570179631504319,2,0,0,-1,0,0,0,2
1570179631504319,0,-1,0,0,-3,0,0,4
1570179631505116,-5,-2,-1,-1,-1,-1,-3,-5
1570179631505116,-7,0,0,-2,-1,0,-2,-14
1570179631527278,3,0,0,0,0,1,1,7
1570179631527278,0,-1,-1,0,-2,0,0,7
1570179631528056,0,1,0,0,1,-1,0,-1
1570179631528056,0,-1,-1,-1,0,0,1,-3
1570179631541254,-1,0,-1,-1,-1,-1,-1,-6
1570179631541254,-7,-1,0,-1,0,0,-5,-1
1570179631550115,-1,-1,-1,-1,-3,-1,-1,-2
1570179631550115,0,0,-1,-1,-2,0,-2,-4
1570179631565014,-1,-1,0,0,0,1,1,-1
1570179631565014,0,-1,-1,0,-2,-2,0,-3
1570179631565014,1,1,-1,0,-1,0,0,2
1570179631565014,-1,1,0,0,0,-1,-1,2
1570179631586998,-1,-1,-1,0,-1,-1,0,-2
1570179631586998,-2,-2,1,0,1,-2,0,-6
1570179631587890,-2,-1,0,-1,0,1,-1,1
1570179631587890,1,-1,-2,-2,0,-1,0,0
1570179631601854,-2,1,-1,0,-1,-2,-1,-1
1570179631601854,7,-1,-1,0,0,-1,-1,3
1570179631609903,0,0,-1,0,1,0,0,-4
1570179631609903,1,-2,1,2,-1,0,1,7
1570179631624864,-1,-1,0,-1,0,0,0,-1
1570179631624864,-4,0,-1,-1,0,-1,0,-2
1570179631624864,-2,-1,-1,-1,-2,-2,-3,-5
1570179631624864,0,0,1,-1,0,-1,-1,-4
1570179631646886,-1,-1,-1,0,-3,0,-1,1
1570179631646886,0,-1,-1,-3,-2,-1,-1,-1
1570179631647937,2,0,-2,0,1,-1,0,0
1570179631647937,-2,0,-2,0,0,-1,0,0
1570179631661691,0,-1,-2,0,0,-1,-1,0
1570179631661691,-1,1,-1,-1,1,1,0,-1
1570179631669671,-1,-1,-1,0,-1,0,1,2
1570179631669671,0,-1,-1,-3,-1,0,-1,0
1570179631684804,-2,-1,-1,-1,-1,2,-1,-1
1570179631684804,-1,-1,-1,0,-2,-1,0,0
1570179631685631,1,0,0,-1,-1,0,-2,-1
1570179631685631,-3,-1,-1,-1,0,-1,-1,2
1570179631706571,0,-2,-1,0,0,0,1,2
1570179631706571,-4,-2,-1,-2,-1,-1,-1,-8
1570179631707751,3,0,1,-1,-1,-1,2,5
1570179631707751,-1,-1,0,-1,-1,1,0,-4
1570179631721675,-1,-1,0,-2,-1,-1,-1,-4
1570179631721675,0,0,-2,1,-1,-1,-3,-4
1570179631729671,6,-1,-1,0,-1,-1,4,12
1570179631729671,-4,-3,-1,1,-1,0,-5,-7
1570179631744683,-1,0,-1,-2,1,-1,-1,-3
1570179631744683,1,1,0,-1,1,1,0,0
1570179631745479,-5,0,0,0,-2,-2,-4,-13
1570179631745479,1,-2,-1,0,-1,0,1,3
1570179631766606,-2,0,-2,0,0,0,-3,-5
1570179631766606,1,0,-1,-2,0,1,-2,10
1570179631774537,0,0,0,0,0,1,0,1
1570179631774537,-2,-1,0,0,-1,-3,1,0
1570179631789534,-1,-1,0,0,-3,-1,-1,5
1570179631789534,-1,0,0,0,0,0,-1,-10
1570179631797329,-1,0,-1,0,-1,1,4,15
1570179631797329,3,0,-1,1,-1,0,-1,3
1570179631804316,-2,0,-2,2,0,-2,-2,-3
1570179631804316,1,1,0,-1,0,2,4,4
1570179631805309,-6,-2,-2,-2,-1,-1,5,-22
1570179631805309,2,0,0,-2,-1,-2,-9,5
1570179631826395,4,-1,1,0,-1,-2,-1,11
1570179631826395,3,-1,-2,-2,-3,0,2,8
1570179631834233,-1,-1,-3,-2,-1,-1,0,-2
1570179631834233,0,0,0,1,-1,-1,4,-1
1570179631850204,-2,-2,0,0,-1,-1,-1,-6
1570179631850204,-2,-1,-2,0,0,-3,-2,-2
1570179631851190,1,-1,0,0,-1,1,-2,4
1570179631851190,0,-2,-2,0,0,-2,0,-4
1570179631864149,0,-1,0,0,-1,-2,-1,1
1570179631864149,-3,-1,0,-1,-1,-1,0,-8
1570179631865147,-4,0,-1,-2,-1,0,-3,-6
1570179631865147,-1,-2,-3,-1,0,0,0,0
1570179631887138,-2,0,0,-1,-1,2,0,-9
1570179631887138,3,-1,-2,1,0,-1,-2,4
1570179631887138,0,0,1,-1,0,-2,-2,-4
1570179631887138,-2,-2,-1,-3,0,0,-1,-4
1570179631910270,1,1,-3,-3,-1,-2,0,4
1570179631910270,-1,0,0,0,0,0,4,14
1570179631911031,0,-1,-2,-1,0,-1,-4,4
1570179631911031,-3,0,-1,-2,0,0,1,-4
1570179631925037,5,0,1,-1,1,0,0,6
1570179631925037,-1,1,0,-1,-2,0,-2,-8
1570179631925037,0,-1,-1,-1,0,0,-1,-1
1570179631925037,3,0,-1,0,-1,0,1,8
1570179631947297,-5,-2,0,-1,0,0,-2,-14
1570179631947297,4,-2,-1,-1,-1,-2,1,9
1570179631947926,1,-3,1,1,1,-2,-4,4
1570179631947926,-2,2,-2,1,0,0,-1,-6
1570179631969871,-2,-2,-2,0,-1,0,-1,-4
1570179631969871,-2,-1,0,1,-2,-2,0,-1
1570179631970868,-2,-2,-1,1,-2,-1,2,0
1570179631970868,0,0,1,-1,-2,1,1,-1
1570179631984942,-3,-1,-1,-1,-1,-2,-3,-3
1570179631984942,-4,-1,-1,-2,-1,1,-1,-5
1570179631984942,0,0,-1,-1,-2,0,-2,0
1570179631984942,0,1,-2,0,1,0,-2,-3
1570179632007020,2,-1,-1,-1,-1,-1,0,1
1570179632007020,-3,-2,-1,0,-1,-1,-3,-4
1570179632007768,0,0,1,0,-1,-2,-1,0
1570179632007768,-2,-3,-1,-3,-1,0,1,-2
1570179632030706,2,-1,1,0,-1,0,2,2
1570179632030706,-6,-1,-1,-1,1,1,-1,-8
1570179632030842,5,1,-1,0,-1,-2,0,5
1570179632030842,-1,-1,0,0,-1,0,-2,2
1570179632044719,-2,-1,0,-2,0,-1,-2,-4
1570179632044719,-8,-4,-2,-2,-2,-1,9,-28
1570179632045667,-2,-1,-1,-1,-1,2,5,-7
1570179632045667,2,-1,-1,-1,-2,-2,-1,-2
1570179632075587,-3,-2,0,-1,-1,0,1,5
1570179632075587,5,-1,0,1,-2,-1,-1,13
1570179632075587,-3,-2,-1,-1,0,1,-1,-5
1570179632075587,2,0,-2,-3,-1,-1,1,0
1570179632090599,-3,1,-1,0,0,-1,3,-3
1570179632090599,2,0,2,1,-2,-2,-3,0
1570179632090599,0,-2,-3,0,-1,0,-1,4
1570179632090599,-1,-2,-1,2,-1,-2,-4,1
1570179632112587,-1,-1,-3,-1,-1,-2,-2,1
1570179632112587,1,1,0,-1,0,0,-2,2
1570179632113485,-2,0,0,-1,-1,-1,-2,-1
1570179632113485,-3,0,1,2,1,0,0,-3
1570179632127463,1,-1,0,-1,1,0,-1,-1
1570179632127463,0,1,-1,0,-2,-1,-2,3
1570179632127463,-3,-2,-1,-2,0,-2,2,-5
1570179632127463,-5,-2,-2,-2,0,-2,-1,-7
1570179632150422,3,2,-1,1,-1,0,-1,6
1570179632150422,0,-1,-1,-2,0,-2,-5,5
1570179632151383,-1,-1,-1,-1,-1,-2,-3,-3
1570179632151383,-4,-2,-2,-2,-2,-4,-5,-16
1570179632164470,-2,-2,-2,0,-1,0,1,-3
1570179632164470,-1,1,-1,0,-2,-1,1,-1
1570179632165353,1,0,-1,-1,-2,-1,0,4
1570179632165353,1,0,1,-2,-1,0,0,3
1570179632187310,1,-1,1,-3,-2,-2,-1,3
1570179632187310,-2,-1,-2,-1,0,1,-2,-7
1570179632187310,1,0,2,0,0,0,-2,-1
1570179632187310,1,-1,-1,0,0,-1,2,3
1570179632217434,1,-2,-2,-1,0,-1,-1,1
1570179632217434,1,-2,-1,-1,0,0,0,2
1570179632218206,1,0,1,-1,0,-2,-2,7
1570179632218206,0,-3,-1,0,-1,0,-4,-7
1570179632224397,-1,0,0,-1,-2,0,-1,-2
1570179632224397,-1,1,-2,-1,-1,-1,0,-1
1570179632225196,1,-1,0,-1,-1,0,-1,-3
1570179632225196,2,1,0,-1,-1,1,1,7
1570179632247160,0,-1,-3,-1,-2,-1,-1,-3
1570179632247160,1,-1,-2,0,0,-2,-2,0
1570179632248124,0,1,-1,0,-1,-2,0,-2
1570179632248124,-1,2,0,2,-2,-2,-13,8
1570179632270397,9,1,0,0,0,1,4,30
1570179632270397,-1,0,-1,-1,1,0,0,1
1570179632271065,-1,0,-2,0,1,-2,-3,1
1570179632271065,-1,-2,-1,-1,0,0,3,1
1570179632284227,-3,0,0,-2,-1,1,-3,-10
1570179632284227,-1,0,0,1,-1,-1,-1,0
1570179632285028,-1,0,-1,-1,-1,1,2,1
1570179632285028,-1,0,0,-1,-1,0,0,-7
1570179632307259,-2,-2,0,1,1,-2,0,-2
1570179632307259,-3,-1,-2,-1,-3,-1,-2,-15
1570179632307964,-2,-1,0,0,-1,-2,-2,-6
1570179632307964,0,0,-1,-1,0,0,3,3
1570179632329909,-2,1,0,0,-1,0,-3,-4
1570179632329909,2,-2,0,-1,1,-1,-2,3
1570179632331060,0,0,-1,0,0,0,-1,-2
1570179632331060,0,-1,-2,-1,0,-1,0,-1
1570179632343908,-1,-1,-1,0,-1,-2,0,-2
1570179632343908,0,-1,0,-2,-1,0,0,2
1570179632351862,-1,-2,-2,-3,-1,0,-1,0
1570179632351862,-1,-2,-2,1,-1,0,2,1
1570179632366978,-2,1,1,1,-1,2,1,1
1570179632366978,3,2,0,0,-1,-1,2,9
1570179632367814,3,0,1,2,0,-2,-11,12
1570179632367814,3,0,0,1,0,-2,-1,2
1570179632389890,-2,-1,-1,0,-2,-2,-1,-4
1570179632389890,-2,0,0,-2,0,0,-3,-2
1570179632390743,0,0,-2,0,0,-1,6,-1
1570179632390743,-2,-1,-1,0,-2,-1,0,3
1570179632403940,-2,-1,-1,-2,-2,-3,-5,-15
1570179632403940,-1,-1,2,0,0,0,3,-2
1570179632411964,3,0,0,-1,-1,0,0,3
1570179632411964,1,0,0,-1,-1,0,-1,2
1570179632427204,0,-1,1,0,0,0,-2,-2
1570179632427204,-1,0,-3,0,-2,0,-1,-1
1570179632427643,-2,-1,-2,-2,-2,1,0,-7
1570179632427643,0,1,-2,0,0,-2,-3,-2
1570179632450619,1,-1,-3,1,0,-1,2,4
1570179632450619,3,0,-1,-1,-1,-2,-1,5
1570179632450619,0,-1,-1,-2,-1,0,0,1
1570179632450619,1,0,0,-2,0,1,1,-1
1570179632463770,-2,-1,-2,-1,0,-2,0,-5
1570179632463770,-2,-3,-2,-1,0,-3,-3,-15
1570179632471627,-2,-1,0,-1,0,2,1,-1
1570179632471627,-1,-2,0,-1,-1,0,1,-3
1570179632487693,-3,-1,1,0,0,1,-1,4
1570179632487693,2,-1,-3,-2,-1,0,-2,-1
1570179632488485,3,1,-1,0,0,-3,1,8
1570179632488485,-2,1,0,1,-2,-1,-1,-5
1570179632517591,1,0,-2,-1,0,-3,0,4
1570179632517591,-2,-1,-2,0,-2,0,2,3
1570179632518406,-4,0,0,0,-2,0,0,-5
1570179632518406,0,0,-1,-1,0,0,1,5
1570179632523490,-2,-2,0,-1,1,-1,-1,-2
1570179632523490,-1,0,0,0,1,-1,-3,1
1570179632532443,1,-1,0,0,-1,0,-1,-2
1570179632532443,-3,-2,0,0,-2,-1,0,-4
1570179632546508,4,-1,0,-1,0,-1,-1,1
1570179632546508,-3,1,0,-1,1,-1,-2,0
1570179632554509,-2,0,-1,-2,-2,0,-1,-3
1570179632554509,0,0,0,-2,-1,2,-1,1
1570179632570386,-4,0,0,0,0,1,-1,-5
1570179632570386,7,0,-1,0,-2,-1,-12,28
1570179632571491,-1,0,-1,0,0,0,1,5
1570179632571491,-2,-1,-2,0,0,-1,1,-5
1570179632584226,3,-1,-1,-1,-2,-2,-1,7
1570179632584226,-5,0,-1,0,-1,0,3,-9
1570179632592211,1,-1,-1,1,0,0,-2,-3
1570179632592211,3,1,0,-2,1,-1,-1,5
1570179632607412,-1,-1,-2,-1,1,1,0,-3
1570179632607412,-6,1,0,0,-1,0,0,-10
1570179632608164,0,-2,-1,-1,-2,1,-1,-2
1570179632608164,-4,0,-2,-1,1,-2,0,-5
1570179632630742,0,0,-1,-3,0,0,0,-2
1570179632630742,-1,-1,-1,-2,-2,0,2,0
1570179632631099,0,1,2,0,-1,-1,-2,3
1570179632631099,-1,1,1,0,1,-1,-1,1
1570179632653093,-4,-1,-2,-1,0,-1,0,-4
1570179632653093,-1,0,0,-2,0,-2,2,-11
1570179632653093,1,0,-2,0,0,-1,-7,6
1570179632653093,0,-1,1,1,-2,0,2,9
1570179632667322,-1,0,-2,-1,0,0,-1,-5
1570179632667322,-2,-1,0,0,-1,1,4,-6
1570179632668016,-2,2,-2,-1,1,-1,3,-4
1570179632668016,-1,-1,0,-1,-2,0,-1,-2
1570179632690138,1,1,-1,0,-3,0,-3,5
1570179632690138,2,-2,0,-1,1,-1,0,6
1570179632690950,-2,-2,0,-2,0,-1,0,-6
1570179632690950,-3,-3,-1,-1,0,0,-1,0
1570179632711883,-1,-1,-1,-1,0,-1,0,-3
1570179632711883,-2,0,-1,0,-1,0,-2,-1
1570179632719160,3,1,-2,0,1,-1,3,5
1570179632719160,-3,0,-2,-2,-1,-1,0,-11
1570179632726895,2,0,2,0,-2,0,-4,1
1570179632726895,1,0,-2,0,0,-1,0,3
1570179632727842,-2,0,0,-3,-2,-2,-1,-4
1570179632727842,4,1,1,2,-1,2,3,20
1570179632749956,-2,-2,0,-1,-1,0,-1,-9
1570179632749956,0,-2,-1,-2,-1,1,-1,2
1570179632751112,-2,-2,0,0,-1,0,-2,-6
1570179632751112,0,-2,-2,-2,-2,0,0,-5
1570179632771907,-1,0,-1,-2,-1,-1,0,1
1570179632771907,2,1,1,0,-1,-2,-1,7
1570179632779906,-3,-2,0,0,-1,-1,2,-8
1570179632779906,0,0,-1,0,-2,-3,-3,-2
1570179632786793,0,0,-1,-1,-2,-2,-1,2
1570179632786793,-3,1,1,-1,-1,-1,1,-9
1570179632787680,-1,-2,-2,0,1,-1,-1,1
1570179632787680,-1,-1,-2,-1,0,-2,-2,-1
1570179632809746,1,-2,-1,1,0,0,1,2
1570179632809746,-1,-2,-2,-1,-1,-2,-1,-1
1570179632816810,-5,-1,-1,2,0,-1,-2,-11
1570179632816810,-1,-1,0,-1,0,-2,-1,-3
1570179632832783,0,-2,-1,-1,-2,-1,1,0
1570179632832783,-1,-2,-2,0,0,0,1,10
1570179632833569,0,-1,0,0,-2,-2,-2,-9
1570179632833569,-2,0,0,0,0,-1,-2,-9
1570179632847523,0,0,-1,1,0,-1,0,2
1570179632847523,-1,-2,-1,-2,-2,0,1,1
1570179632847662,1,-2,1,-1,-2,-1,0,5
1570179632847662,-1,-1,-1,0,-1,1,1,-1
1570179632870556,-3,1,-1,0,0,-1,-4,-1
1570179632870556,-1,1,0,-1,-1,2,2,-2
1570179632870556,0,-1,2,-3,-1,-1,0,1
1570179632870556,1,0,-1,-1,-2,-1,1,2
1570179632892402,-8,-2,-2,0,-2,0,2,-11
1570179632892402,0,-3,-2,-1,-1,0,-1,-2
1570179632893405,1,0,-2,1,1,-2,0,3
1570179632893405,-1,-1,0,-1,0,-1,-1,0
1570179632907362,-3,0,0,-1,0,-1,-1,1
1570179632907362,-3,-1,0,-1,-1,-1,-2,-9
1570179632908360,0,1,-2,0,-1,-1,-1,5
1570179632908360,0,-1,0,1,-1,0,1,0
1570179632930510,0,0,-1,0,-1,-1,0,4
1570179632930510,2,-1,0,-1,-1,-2,-2,-5
1570179632931385,-1,1,0,0,-2,1,2,3
1570179632931385,3,-1,0,-2,-1,-1,2,15
1570179632952536,1,-1,-1,0,0,-1,2,2
1570179632952536,-3,-1,-2,-2,1,1,-5,-4
1570179632953239,-2,-1,-2,0,-1,0,-3,-2
1570179632953239,-1,0,-3,-1,-1,1,-1,-3
1570179632967354,0,-1,0,-2,-1,1,0,0
1570179632967354,1,-1,-1,0,1,0,2,6
1570179632968203,-3,-2,-1,-2,-1,0,-2,-2
1570179632968203,-1,-1,0,-1,0,0,-6,2
1570179632989408,1,0,-2,2,-1,-2,-1,0
1570179632989408,-1,-1,-2,1,1,-1,0,-2
1570179632998121,0,0,0,0,0,-1,-3,4
1570179632998121,0,-1,-1,-1,0,0,1,-2
1570179633013100,-1,0,-1,-1,1,0,-3,-4
1570179633013100,2,0,0,0,-1,-1,-2,1
1570179633014079,-2,0,1,-1,-2,0,3,-2
1570179633014079,-2,-1,0,-2,-2,-1,0,-2
1570179633026186,1,-2,-1,0,0,0,-1,0
1570179633026186,-1,0,-3,-1,-2,0,1,1
1570179633035021,0,-1,-1,-1,-2,1,0,1
1570179633035021,-1,-1,0,-1,-1,-1,0,1
1570179633050198,2,-1,0,-2,0,0,-3,1
1570179633050198,1,-1,-1,0,1,-1,-1,-1
1570179633051976,2,1,-2,0,-1,0,0,-2
1570179633051976,3,0,0,0,1,2,4,20
1570179633072920,-1,-1,-1,-2,-2,-3,2,-2
1570179633072920,1,-2,0,0,-2,-1,0,6
1570179633073917,0,0,0,1,1,1,0,-3
1570179633073917,-1,-1,0,-1,0,0,0,-5
1570179633085892,-3,-1,1,0,0,-1,-1,-4
1570179633085892,5,1,-1,-1,0,0,0,11
1570179633094861,-3,-1,-1,-1,0,0,-1,-4
1570179633094861,1,0,1,-1,0,-1,-1,-4
1570179633109827,0,-2,0,0,-1,0,0,5
1570179633109827,-3,0,1,-1,-1,-2,-3,-7
1570179633111814,0,-1,-2,-1,0,0,0,1
1570179633111814,-3,-2,0,-1,-2,0,4,-12
1570179633132762,0,1,-1,-1,-1,0,0,1
1570179633132762,-1,0,-2,-1,1,-1,1,-2
1570179633134046,1,0,0,1,0,-1,-2,5
1570179633134046,-2,-2,-2,-1,-1,-1,-1,-7
1570179633146775,-6,-1,-1,-1,0,0,-2,-11
1570179633146775,2,-1,-1,0,-1,0,-1,3
1570179633155700,-3,-3,-1,-2,0,-2,-1,-17
1570179633155700,1,0,-1,0,0,0,-1,5
1570179633170659,-2,0,0,0,-1,-1,-1,-11
1570179633170659,0,-1,0,-1,-1,-1,0,2
1570179633171726,-1,0,0,-1,-2,0,-1,-5
1570179633171726,0,-2,-3,-1,-1,-2,-1,-1
1570179633192606,0,0,-2,1,-2,1,3,10
1570179633192606,-3,-1,0,0,-1,0,1,-2
1570179633194600,2,-1,0,-3,1,1,-1,7
1570179633194600,-1,-1,-1,-1,1,-1,-5,-4
1570179633206729,-1,-3,1,-1,-1,-1,-2,-6
1570179633206729,-2,1,-1,-1,-3,-1,-1,-3
1570179633221877,2,-1,-1,-2,0,0,0,5
1570179633221877,2,1,0,-1,0,0,0,-3
1570179633230561,2,1,-1,0,1,1,-1,6
1570179633230561,-4,0,-1,2,1,0,-4,-4
1570179633231961,-2,-2,0,1,-1,-3,-3,0
1570179633231961,-2,0,-1,0,1,0,-1,-1
1570179633252438,6,0,-1,0,1,1,2,17
1570179633252438,-3,-1,-1,-1,-1,-3,-4,-3
1570179633254506,2,0,-1,-1,0,0,2,3
1570179633254506,-1,-1,-1,-2,0,-1,-3,-2
1570179633266618,-1,-1,-2,0,-1,-1,-1,-5
1570179633266618,-7,-3,0,-1,0,1,-3,-22
1570179633275379,6,0,-1,1,-1,-1,2,20
1570179633275379,0,0,0,-1,-1,-2,-2,-2
1570179633290669,-1,0,1,-1,0,-1,-4,-5
1570179633290669,3,0,-3,0,0,0,0,5
1570179633292063,-7,0,-1,-2,0,-1,-3,-11
1570179633292063,1,-1,0,0,-4,-2,-2,0
1570179633312499,1,-2,-2,-1,0,-2,2,0
1570179633312499,1,-1,-1,-1,-1,0,-1,5
1570179633318375,-2,-1,-1,-1,0,2,1,-4
1570179633318375,-2,1,-2,0,-2,0,1,-1
1570179633326251,-1,1,0,-2,-2,-1,-1,3
1570179633326251,0,-1,-1,0,-1,-1,1,0
1570179633335226,-5,-4,-3,-2,-1,0,11,-12
1570179633335226,-1,-2,0,1,1,0,-3,1
1570179633350354,-4,-3,-2,0,-2,-2,1,-15
1570179633350354,1,0,-1,-2,0,0,-4,4
1570179633352107,-1,0,-1,0,0,-2,0,2
1570179633352107,0,0,-1,0,0,-1,1,2
1570179633372292,1,-1,-1,0,-2,0,-1,6
1570179633372292,1,0,2,-1,0,-1,5,1
1570179633374114,-4,-1,-1,-1,-3,-3,-8,-7
1570179633374114,0,-2,-1,-2,-2,-1,-1,0
1570179633386086,3,0,0,-1,2,-1,-2,5
1570179633386086,1,-1,-1,-2,-3,-2,-1,1
1570179633395056,5,-1,0,-2,0,-1,1,14
1570179633395056,-5,1,1,1,0,1,0,-6
1570179633410066,-4,-1,-1,-2,-2,1,-3,-7
1570179633410066,0,-1,-1,-2,0,1,0,5
1570179633412115,-3,-1,0,-2,0,-3,-4,-2
1570179633412115,-1,1,-2,-2,-1,0,2,0
1570179633432132,0,-2,0,1,-1,-2,-3,-3
1570179633432132,-2,-1,1,1,-1,-2,-2,-11
1570179633439993,-1,0,-2,2,2,0,-1,2
1570179633439993,0,0,0,-1,0,0,1,-2
1570179633447050,0,0,-1,1,-1,1,0,5
1570179633447050,1,0,0,-2,-1,-2,-2,-3
1570179633455583,0,0,0,-1,-1,0,-1,-1
1570179633455583,-2,-4,0,-2,0,-2,-1,1
1570179633470430,-3,3,-3,-2,-2,-2,-1,-4
1570179633470430,3,-1,-1,0,0,1,0,-2
1570179633471437,1,2,1,0,1,1,0,9
1570179633471437,0,-1,-1,-1,0,0,-2,-9
1570179633492295,-3,0,-1,-2,-1,-1,-1,-3
1570179633492295,-7,-2,-1,1,-1,-1,4,-12
1570179633494293,5,2,0,-1,-1,-1,-11,10
1570179633494293,2,0,-1,-1,0,0,1,5
1570179633506458,1,-2,1,-1,0,0,3,3
1570179633506458,-2,1,-1,-1,0,-1,0,-4
1570179633515236,0,-3,-1,-2,-2,-1,3,-1
1570179633515236,-1,0,-1,-1,-1,-1,-2,-5
1570179633530450,4,-1,-1,1,0,-1,-3,5
1570179633530450,2,1,0,1,0,0,-1,6
1570179633531324,-3,2,1,0,-1,1,0,-7
1570179633531324,2,-2,-2,-1,-2,-2,-1,4
1570179633553136,-1,-1,-2,-1,-2,0,2,-4
1570179633553136,-4,-3,-1,0,0,0,-2,1
1570179633554494,3,0,-2,0,-1,-1,2,3
1570179633554494,0,1,0,1,2,-1,1,16
1570179633566313,0,0,-2,-1,-2,0,1,-2
1570179633566313,0,-2,-1,-1,1,1,1,3
1570179633575077,-5,-2,-1,0,-2,2,7,-20
1570179633575077,-1,-1,0,-1,-1,-2,-7,-1
1570179633590253,0,-1,-1,-2,0,-1,0,-2
1570179633590253,1,0,-1,-1,-2,-2,1,4
1570179633592033,-5,-2,-1,-2,1,1,2,-8
1570179633592033,-2,-1,-1,-2,0,0,1,-3
1570179633613029,-2,-1,2,0,-1,0,-2,-3
1570179633613029,0,-2,1,-2,-3,1,-4,-1
1570179633614268,0,-1,-2,1,-1,-2,-4,0
1570179633614268,-1,-1,-2,0,-2,0,1,-6
1570179633635064,1,0,-1,0,2,0,-3,3
1570179633635064,-1,0,-1,-2,0,-2,-2,2
1570179633636925,1,-2,0,-1,-1,-3,0,0
1570179633636925,0,-1,-1,-2,-1,0,-1,-4
1570179633649969,-1,-1,-3,-2,-2,-1,2,-3
1570179633649969,-5,0,-2,-1,1,-3,-5,-15
1570179633651918,2,0,-1,0,0,0,-1,7
1570179633651918,-1,-1,0,-2,-1,-1,0,-8
1570179633672973,-5,-2,0,-1,0,-1,-2,0
1570179633672973,3,0,-1,-1,0,0,0,4
1570179633673818,0,0,0,-2,-1,-1,-4,5
1570179633673818,-2,-1,-2,-1,-1,1,0,-2
1570179633694791,1,-1,0,-1,0,0,-2,-1
1570179633694791,-2,-1,-1,1,-1,-1,0,0
1570179633696752,-1,-1,0,0,-2,0,1,-5
1570179633696752,0,0,-1,1,-2,-2,-2,1
1570179633709715,0,0,-2,0,0,0,1,3
1570179633709715,4,-3,-2,-1,-2,1,11,3
1570179633711711,-2,1,-1,0,-1,-3,-6,-1
1570179633711711,-1,-1,-1,-2,0,0,-2,-8
1570179633739828,2,0,0,-1,-2,-1,0,2
1570179633739828,-1,0,0,0,-1,-1,3,1
1570179633741631,-3,-2,0,-1,-1,0,0,-6
1570179633741631,-1,0,0,-1,-1,-1,0,6
1570179633754997,-1,-1,0,-1,1,-1,-1,-2
1570179633754997,-3,-2,0,-3,-2,-1,-7,-14
1570179633761695,1,-1,0,-1,-2,0,0,3
1570179633761695,1,-2,0,0,1,0,1,1
1570179633770604,0,-1,0,0,-1,-2,-3,-3
1570179633770604,-1,0,0,0,-1,-1,-4,0
1570179633771794,2,-1,-1,1,0,-2,-2,-1
1570179633771794,-1,0,-1,0,-1,-1,2,-1
1570179633792687,-2,-1,0,-2,-1,-2,-2,0
1570179633792687,1,-1,0,-1,1,0,-1,4
1570179633794495,-4,0,-1,0,0,-1,-3,-9
1570179633794495,2,0,-1,-1,-2,-1,0,4
1570179633815438,-3,-1,-1,-1,-2,-2,-1,-2
1570179633815438,1,-1,1,1,0,0,0,3
1570179633816795,4,1,0,-1,0,-1,-13,11
1570179633816795,-3,-2,-1,-1,-2,1,-2,-7
1570179633829444,-1,0,-1,0,1,-1,1,5
1570179633829444,-3,-1,-2,-1,-2,-1,-4,-19
1570179633836376,0,0,0,-1,0,1,6,-1
1570179633836376,0,0,1,-1,-1,-2,-1,-2
1570179633852341,3,0,0,0,-2,1,-2,2
1570179633852341,-2,0,-2,-1,-2,-1,-2,5
1570179633854370,-2,-1,-1,-1,-1,0,3,-4
1570179633854370,3,0,0,1,-1,-1,0,4
1570179633875559,-4,-1,-1,1,-1,-2,1,-7
1570179633875559,3,0,-1,2,1,-1,-1,9
1570179633876271,-1,0,-2,-2,0,-1,-1,-1
1570179633876271,-1,-1,-1,-1,0,1,3,0
1570179633889396,2,-1,1,0,0,1,-2,1
1570179633889396,1,0,-1,-2,-1,1,-1,3
1570179633896217,-3,-2,1,0,-1,-2,0,-3
1570179633896217,-4,-1,-1,0,-1,-2,-2,-5
1570179633913298,4,0,-3,-1,-2,0,3,6
1570179633913298,0,0,-1,0,1,-1,1,6
1570179633914172,-2,-1,-2,-2,0,1,6,0
1570179633914172,4,0,1,0,1,-1,-13,1
1570179633934125,1,1,2,-1,1,0,1,7
1570179633934125,-2,0,1,-1,-2,0,-3,2
1570179633943099,-1,-2,0,0,1,-1,1,1
1570179633943099,-1,0,-1,0,-1,-3,3,-1
1570179633949080,-3,0,-1,-1,2,0,-2,-5
1570179633949080,-1,0,0,0,0,-1,-2,-2
1570179633956062,0,-2,0,-1,0,-1,-2,1
1570179633956062,-1,-1,-2,-1,0,-2,1,2
1570179633973013,0,-2,-2,1,0,1,0,0
1570179633973013,-5,-1,-1,-2,-2,-2,0,-13
1570179633974009,1,1,0,-1,0,-1,-1,-2
1570179633974009,-2,0,1,2,0,1,0,-2
1570179633995251,-3,-1,-2,-3,0,-2,0,-5
1570179633995251,1,-1,0,0,-1,0,0,5
1570179633996955,2,0,-1,2,-1,-1,-1,1
1570179633996955,-1,0,-1,-4,-2,-2,-3,-5
1570179634009547,0,-1,0,0,-1,0,0,-1
1570179634009547,-1,0,0,1,1,0,2,4
1570179634015944,0,1,-3,0,-1,1,3,-3
1570179634015944,-1,0,-1,0,1,-2,-9,0
1570179634032932,-2,-1,-1,-2,-2,-1,0,-2
1570179634032932,1,0,0,-2,0,0,1,1
1570179634033849,-3,-3,-1,-3,-1,2,2,-2
1570179634033849,-1,0,-1,-1,0,2,4,0
1570179634054835,-1,0,-1,0,0,-1,-2,-5
1570179634054835,0,0,-2,0,1,-1,-4,4
1570179634056792,-1,1,0,0,-1,-1,-3,-4
1570179634056792,1,-1,0,1,-1,-3,0,1
1570179634069757,0,-1,0,0,1,-2,-3,0
1570179634069757,-2,-1,1,0,-2,-1,1,-2
1570179634076062,-1,0,0,0,-2,0,-1,0
1570179634076062,-1,0,-2,-2,-1,0,2,-4
1570179634092690,-2,0,0,-1,-1,-1,3,-2
1570179634092690,1,-1,-2,-2,-1,-1,-3,5
1570179634093805,4,0,0,-1,0,-1,3,29
1570179634093805,0,0,1,0,0,-1,1,4
1570179634114632,1,-1,-1,0,0,-1,-2,-5
1570179634114632,-3,-2,-2,-1,-2,0,-1,-3
1570179634116867,-1,1,-1,-1,-1,0,7,-13
1570179634116867,0,-1,-1,-1,-1,-2,-4,1
1570179634128593,1,0,1,1,0,-1,0,2
1570179634128593,-2,-1,-1,0,-1,-1,1,-3
1570179634137569,-5,-1,-2,1,-1,1,-1,-10
1570179634137569,-3,-2,0,-2,-2,1,3,-4
1570179634152528,4,1,0,1,0,-1,-5,5
1570179634152528,1,0,-1,-2,-1,-1,-2,0
1570179634154523,1,-1,-1,-1,-2,-1,-5,0
1570179634154523,-4,-1,1,0,0,1,-1,-6
1570179634174472,-5,-2,-1,-2,-3,-1,-5,-16
1570179634174472,0,-1,0,0,1,-1,2,3
1570179634176508,0,0,-1,0,-1,-1,-4,1
1570179634176508,-3,-2,0,-2,-1,0,-1,2
1570179634188434,-1,-2,0,-2,0,-1,4,-4
1570179634188434,2,0,0,-1,-2,1,0,5
1570179634197627,-4,0,0,1,2,-2,-3,-8
1570179634197627,1,-1,-2,0,0,-2,4,-2
1570179634212369,3,2,-2,1,0,-1,-13,7
1570179634212369,-2,0,-2,0,-1,-1,-3,-1
1570179634214364,3,-3,-1,-2,0,-1,0,5
1570179634214364,0,-1,0,-1,-1,0,3,3
1570179634235346,-3,0,0,0,-1,0,2,4
1570179634235346,0,0,-1,-1,0,0,0,-4
1570179634236323,-1,0,-1,0,-1,-1,-4,1
1570179634236323,0,0,-2,0,-1,1,-2,-1
1570179634248474,1,1,-1,0,-1,0,4,4
1570179634248474,-3,-1,-1,0,0,-1,-5,-19
1570179634257250,-4,-2,1,-3,-2,-2,-1,-2
1570179634257250,1,-1,-2,-1,-1,-1,1,2
1570179634272552,-1,-1,-3,-1,-2,-1,2,0
1570179634272552,1,-1,0,-1,0,0,-1,0
1570179634274205,0,-1,0,-1,0,-1,0,3
1570179634274205,1,-1,-1,0,-1,1,0,-9
1570179634295233,3,-1,0,0,-1,-2,-14,6
1570179634295233,0,0,-2,1,-1,-1,2,5
1570179634297220,-2,-2,0,-2,-1,0,-2,-9
1570179634297220,-3,-1,0,-1,1,0,0,2
1570179634317444,0,-1,-1,0,-1,0,5,-4
1570179634317444,0,0,1,-1,-1,0,2,1
1570179634319319,1,-2,-1,0,0,-2,-2,2
1570179634319319,-1,0,-1,0,-1,0,1,1
1570179634332914,-4,-1,-1,-2,-1,0,3,-5
1570179634332914,-2,-3,-2,-1,1,0,-2,-7
1570179634334428,0,1,-2,1,-1,-1,2,5
1570179634334428,-2,-1,-2,-1,0,-1,-2,2
1570179634354657,-2,0,1,0,0,-1,2,-3
1570179634354657,2,0,1,-1,-2,1,0,0
1570179634356648,-4,-1,0,-1,-1,0,0,-5
1570179634356648,1,-3,-1,0,-1,-1,-1,2
1570179634369194,-2,-2,-1,-1,0,0,1,3
1570179634369194,-1,0,-2,0,-1,0,0,0
1570179634378249,0,2,0,-1,0,0,-1,4
1570179634378249,0,-1,-1,-2,-3,1,3,7
1570179634392216,4,1,0,1,1,-2,-14,0
1570179634392216,1,0,-1,-2,-1,-1,1,1
1570179634394404,-1,1,-2,2,0,0,-1,-1
1570179634394404,-1,-1,-2,0,-1,-2,-2,-3
1570179634415154,-3,-1,0,-1,-1,1,4,-3
1570179634415154,-1,-1,0,1,1,-1,0,1
1570179634416251,-1,-1,0,-1,-1,-2,-2,7
1570179634416251,0,1,0,-2,0,0,2,6
1570179634429118,-3,-2,1,-3,-1,-1,0,-4
1570179634429118,-4,-1,-2,1,-1,0,-2,-5
1570179634438155,10,0,-2,0,0,1,5,11
1570179634438155,1,-2,-1,-1,-1,1,-1,-1
1570179634452350,0,-1,-1,-1,0,-3,3,0
1570179634452350,-2,-1,0,-1,-1,-1,-2,-3
1570179634454441,-4,1,0,0,0,1,1,-6
1570179634454441,0,-1,1,0,-1,0,-2,-7
1570179634475200,-1,0,0,0,0,1,1,-2
1570179634475200,3,-1,-1,-1,0,-2,1,11
1570179634476396,0,-3,1,-2,0,-3,-2,-7
1570179634476396,1,1,1,-1,2,-1,-1,2
1570179634489250,-3,0,-1,-2,-3,0,2,-4
1570179634489250,0,-1,0,-2,1,0,1,-1
1570179634497521,4,0,-2,0,-1,-2,-12,7
1570179634497521,-1,0,-2,-1,-1,-1,-1,-8
1570179634512106,3,1,0,1,1,1,0,11
1570179634512106,0,-1,-2,-2,-1,0,0,0
1570179634514174,-3,-1,0,0,-1,1,2,-6
1570179634514174,-1,-2,-2,-1,0,0,-1,-4
1570179634535113,-4,-1,-1,-1,-1,-1,-2,-7
1570179634535113,3,-2,1,1,-1,0,0,7
1570179634536110,-6,-1,0,-2,-2,-2,1,-2
1570179634536110,5,2,0,-1,0,-1,-1,12
1570179634549633,-4,-1,-3,-1,-2,0,3,-5
1570179634549633,-1,1,-1,0,0,-2,-2,-2
1570179634558053,0,0,0,-1,0,0,2,-5
1570179634558053,-2,-1,-1,0,1,0,0,-3
1570179634573012,0,-1,-1,-2,-1,-1,0,1
1570179634573012,-2,0,-2,0,-1,1,0,2
1570179634575007,1,-1,-3,-2,0,0,-2,-8
1570179634575007,-3,-1,-1,0,-1,-2,0,0
1570179634594954,-4,-2,-2,-1,-2,1,12,-16
1570179634594954,0,0,0,-1,-1,-4,-1,0
1570179634597038,-4,-3,-1,-1,-1,-1,-1,-14
1570179634597038,-1,0,-1,1,0,-1,-2,1
1570179634617895,-1,-1,-1,0,0,-1,-3,-3
1570179634617895,0,1,0,0,-1,0,0,-2
1570179634618889,0,-1,0,-1,-1,-1,0,1
1570179634618889,-1,-1,0,0,-2,-2,1,-6
1570179634632851,4,0,0,-1,0,-1,-8,7
1570179634632851,-1,2,-1,0,-1,-1,-2,-5
1570179634634914,0,-1,-3,1,0,-1,-1,2
1570179634634914,-1,0,-1,0,-1,-1,-1,4
1570179634654795,0,-1,0,1,0,-2,-2,2
1570179634654795,-1,-1,1,-3,0,-1,-1,0
1570179634656787,-1,-1,-2,-2,0,-1,2,0
1570179634656787,-1,-1,0,-2,-1,0,0,0
1570179634677731,-1,0,-3,-1,-1,0,-1,-1
1570179634677731,1,-2,-1,0,-1,-1,-2,-1
1570179634683718,-1,-1,-1,1,0,1,0,31
1570179634683718,4,-1,-2,-2,0,0,-1,-1
1570179634692868,0,0,-1,-1,-1,-2,-1,0
1570179634692868,1,0,-1,1,-2,1,-3,3
1570179634693879,-2,0,1,-1,0,1,0,-5
1570179634693879,-1,0,0,0,-1,0,-1,5
1570179634716728,0,1,1,-1,0,-1,0,1
1570179634716728,-2,-2,-2,-2,-1,1,2,-6
1570179634716966,1,1,-3,0,-1,0,-1,-5
1570179634716966,-3,0,0,0,-2,0,1,-4
1570179634737899,0,-2,0,-2,0,-2,-1,-4
1570179634737899,-4,-2,-2,-1,0,1,0,-4
1570179634738895,3,0,0,0,-1,-2,-1,-1
1570179634738895,-1,-1,0,0,-1,0,-3,1
1570179634751993,-1,-2,-1,0,-1,0,-2,3
1570179634751993,2,0,-1,-1,-1,-1,-4,4
1570179634759335,-2,-1,0,-1,-2,0,-2,-4
1570179634759335,-3,-1,-1,0,0,-2,0,-7
1570179634774803,1,0,-1,0,0,0,2,15
1570179634774803,1,0,1,-2,1,-1,1,2
1570179634776795,0,-1,-1,0,-1,-2,1,1
1570179634776795,2,1,-2,0,-2,0,-3,-10
1570179634797743,-2,-2,-1,-1,-1,1,-3,-6
1570179634797743,-1,-1,-1,0,0,0,-1,-1
1570179634799331,2,1,0,0,0,0,-4,13
1570179634799331,1,-2,-1,-2,-1,0,0,5
1570179634812186,-2,1,-1,1,-1,-1,-1,-2
1570179634812186,0,0,-2,-2,-2,1,-2,2
1570179634818801,1,0,2,0,0,-2,2,-4
1570179634818801,-3,-1,1,0,-1,-1,0,-3
1570179634834925,0,0,0,1,-1,-1,-1,-4
1570179634834925,-1,-2,-2,-1,-2,0,3,-1
1570179634836751,0,-2,-2,0,-1,-1,-1,-7
1570179634836751,0,-1,-1,-1,1,-1,-1,1
1570179634857698,1,1,0,-1,0,1,1,1
1570179634857698,-1,0,0,-2,-1,-2,-1,-1
1570179634858693,-1,-1,-1,-1,-2,0,-1,-3
1570179634858693,-5,0,-1,-1,-2,0,-1,-1
1570179634871661,-1,-2,-1,-3,-1,-1,3,-2
1570179634871661,0,0,-2,0,-1,-1,-1,1
1570179634878667,-2,0,0,-1,0,-1,1,-4
1570179634878667,-2,0,0,-2,-1,-2,3,4
1570179634895599,4,1,0,0,-1,-2,-15,0
1570179634895599,-1,0,-1,0,0,-2,-2,3
1570179634896594,-2,-2,-1,-1,-3,-1,3,2
1570179634896594,0,0,-1,1,0,-1,1,-1
1570179634917552,-3,-2,-1,-1,0,-3,2,-4
1570179634917552,-1,-2,0,2,0,1,-1,-5
1570179634919533,-1,-1,0,-1,1,-2,-5,-1
1570179634919533,1,-1,-1,0,-2,-1,0,-2
1570179634932496,0,1,-1,-2,-2,1,1,4
1570179634932496,2,-2,-1,0,-1,-1,0,-3
1570179634940477,-2,-1,0,-1,-2,-2,3,-3
1570179634940477,0,-2,1,-2,-2,1,1,2
1570179634955436,-2,0,0,-2,-1,0,2,-1
1570179634955436,-1,-3,-1,0,-1,-2,2,-2
1570179634957615,-2,-2,-2,-1,1,-1,-2,0
1570179634957615,-1,-1,0,-1,0,-1,-3,-1
1570179634977381,0,-3,-1,-1,-2,1,2,6
1570179634977381,-9,-3,0,-1,-1,1,6,-33
1570179634979371,-1,-1,0,1,0,1,0,-2
1570179634979371,1,0,-1,0,1,-1,-2,2
1570179634992552,2,-1,-2,1,-1,-1,1,7
1570179634992552,0,0,-2,-1,0,-1,0,4
1570179634998320,-1,-1,-1,-1,0,1,0,-2
1570179634998320,-2,-2,0,0,0,0,0,-3
1570179635015399,-2,-1,0,0,-2,-1,-1,-9
1570179635015399,1,0,0,0,0,-1,-3,6
1570179635016684,0,0,-1,-1,-2,0,-4,-2
1570179635016684,0,-1,-1,-2,1,-1,-3,2
1570179635037309,-1,0,0,-2,1,-1,0,-4
1570179635037309,0,1,0,1,-2,0,-2,3
1570179635043198,-2,-1,-1,0,-1,-1,-1,-4
1570179635043198,1,-1,-2,1,0,1,4,4
1570179635052174,-3,-1,-1,1,0,0,1,-2
1570179635052174,5,0,0,-2,0,0,-1,13
1570179635058157,0,1,-1,-1,0,-1,1,-1
1570179635058157,-4,0,-1,0,-2,-1,-2,-10
1570179635075223,0,-2,-2,-1,0,-1,-3,-9
1570179635075223,-4,0,2,0,0,0,0,3
1570179635076110,2,-1,-1,-1,-1,-1,0,2
1570179635076110,0,-1,0,-1,-1,-2,1,-2
1570179635097054,-3,-1,1,-1,0,1,-1,-3
1570179635097054,-1,-1,-2,0,0,-1,-1,0
1570179635099049,-1,-1,0,-1,0,-1,-2,1
1570179635099049,-3,0,0,0,-1,-3,-1,-5
1570179635111017,0,0,-3,0,-1,-1,0,-1
1570179635111017,-1,1,-1,0,0,-2,-2,0
1570179635125977,1,1,-2,-1,-1,0,3,6
1570179635125977,-1,-2,0,0,1,0,-2,1
1570179635134954,0,0,-3,0,-1,0,-1,2
1570179635134954,0,0,0,0,-1,0,0,-2
1570179635136948,-2,-1,-1,-1,-1,0,-1,-3
1570179635136948,-1,1,0,-1,-2,1,0,-3
1570179635157891,-1,-2,0,-1,0,-1,-1,0
1570179635157891,0,0,-1,-2,0,-1,-1,-2
1570179635158889,1,-2,-1,-2,-1,-1,1,4
1570179635158889,2,0,1,0,-1,-2,-4,1
1570179635171854,0,0,-1,0,-1,-1,1,0
1570179635171854,3,-2,-3,-2,-4,0,3,8
1570179635180193,-4,0,1,1,1,-1,-7,-12
1570179635180193,-2,-1,-2,0,-1,-1,-2,3
1570179635194793,-1,0,0,1,0,1,-1,-3
1570179635194793,0,-1,0,0,0,0,-1,-4
1570179635196787,-2,1,-1,-1,-1,1,3,-4
1570179635196787,1,0,-1,-1,-1,0,2,0
1570179635217742,-2,-2,0,-1,0,-1,0,-3
1570179635217742,-1,0,-1,-1,0,0,-1,0
1570179635218731,1,0,0,0,0,0,-2,1
1570179635218731,-5,-1,-3,-1,-2,0,-1,-19
1570179635231709,6,-1,-1,-2,-2,-3,-2,9
1570179635231709,0,0,-1,-1,0,-1,-2,0
1570179635239673,-1,-2,0,-2,0,0,-2,-1
1570179635239673,0,-2,-2,-2,0,-1,0,0
1570179635254639,0,0,0,1,-1,1,4,0
1570179635254639,-2,-1,-1,0,-2,0,-2,-6
1570179635256630,0,-1,-2,0,-2,0,0,2
1570179635256630,3,-2,1,1,-1,0,-2,-2
1570179635277620,-1,-2,-1,-2,-2,-1,-1,2
1570179635277620,0,0,3,1,0,0,-2,2
1570179635279570,-1,-2,-1,0,0,0,-2,1
1570179635279570,0,0,0,-2,-1,0,2,3
1570179635291618,-2,-1,-3,0,-1,-1,6,-11
1570179635291618,2,1,1,-1,-1,-2,-8,1
1570179635300601,1,-2,-1,-1,0,-2,2,-2
1570179635300601,-1,-2,0,-1,0,-1,-2,4
1570179635315477,-5,0,0,0,-1,0,-1,-10
1570179635315477,-4,1,-1,2,0,-2,3,2
1570179635316471,0,-1,1,0,0,1,0,0
1570179635316471,-1,1,-3,0,0,-2,-1,2
1570179635337487,1,-2,0,-1,0,0,-3,2
1570179635337487,1,-2,-2,0,-2,-2,1,-2
1570179635339407,-4,0,-1,0,-1,-1,-2,-5
1570179635339407,1,-1,-3,0,0,-2,1,11
1570179635351376,-1,0,-1,1,1,-1,-1,5
1570179635351376,-3,0,-1,0,1,1,0,-1
1570179635360351,1,-1,2,-2,-1,-1,3,-16
1570179635360351,-1,2,1,-1,0,1,-2,-2
1570179635382292,1,0,0,-2,-1,0,-3,2
1570179635382292,0,0,-1,-3,0,-1,0,1
1570179635384308,-1,-1,-1,1,-1,-1,-2,3
1570179635384308,-2,-2,0,2,0,-1,1,0
1570179635405232,0,0,0,0,0,-3,-2,-1
1570179635405232,0,-2,1,0,0,0,0,-3
1570179635406280,0,0,-3,-2,1,-2,1,2
1570179635406280,-2,-1,1,0,0,0,0,-3
1570179635411214,-1,-1,-2,-1,0,-1,-3,-10
1570179635411214,-5,-2,-1,-1,-2,-2,-4,-5
1570179635420191,0,0,-1,0,-1,-1,-2,5
1570179635420191,0,-1,0,0,-2,-2,-1,-1
1570179635435167,-2,-1,-1,-1,0,0,1,-1
1570179635435167,1,0,-2,-1,0,0,1,2
1570179635437146,-3,1,-2,-1,-2,-1,0,-4
1570179635437146,-1,1,2,0,-1,-1,-2,-6
1570179635457091,4,-1,-1,-2,1,-2,-2,1
1570179635457091,-2,0,-1,2,0,-1,-2,-4
1570179635459086,-1,-1,1,-1,-1,0,1,3
1570179635459086,0,-2,-3,-1,-1,0,2,1
1570179635471380,-1,-1,-1,0,0,-1,-2,4
1570179635471380,-1,2,-2,-1,-1,0,1,0
1570179635480142,0,-1,0,1,0,0,-1,-2
1570179635480142,1,-1,-2,0,-1,-2,0,0
1570179635494991,-5,-1,-1,-1,-3,1,0,-1
1570179635494991,0,-1,-1,0,-1,-1,-1,-3
1570179635496985,-1,-1,-1,1,-2,2,-1,0
1570179635496985,2,-1,-1,-1,0,0,1,2
1570179635517929,1,1,-2,1,0,0,0,0
1570179635517929,0,0,1,0,-1,-1,-1,-1
1570179635518926,3,2,1,-1,-1,-1,2,18
1570179635518926,-5,-5,-1,-2,-1,-1,8,-15
1570179635539870,2,0,0,-1,-3,-2,-7,8
1570179635539870,1,-1,0,1,0,-3,-3,1
1570179635541864,-2,-1,-2,-2,0,0,-2,-10
1570179635541864,-2,-1,-2,-1,-2,0,0,-2
1570179635553832,-2,-1,2,0,1,2,2,2
1570179635553832,-1,0,0,0,1,0,0,-2
1570179635560814,1,-2,-3,-1,0,-1,-2,-2
1570179635560814,1,2,-1,-1,0,-1,-2,4
1570179635577867,-1,0,-2,0,-2,-3,-1,-1
1570179635577867,1,-2,-2,-2,-1,1,0,5
1570179635578766,-2,0,2,0,0,-1,1,-4
1570179635578766,1,-1,0,0,0,0,-2,4
1570179635599710,-2,-1,0,0,-2,-1,1,1
1570179635599710,-2,-2,0,1,0,-1,3,-5
1570179635601965,0,-1,-2,0,2,-1,-1,1
1570179635601965,1,-1,-1,-1,0,0,-2,-2
1570179635614669,0,-1,0,0,-1,-1,2,0
1570179635614669,-2,0,-1,-1,0,-2,-2,-2
1570179635616667,0,0,2,0,0,-1,-1,-4
1570179635616667,1,0,-1,0,-1,-1,-2,8
1570179635637609,0,1,-2,-1,1,3,1,-3
1570179635637609,-3,-1,0,-2,0,-1,1,3
1570179635638606,1,-3,0,-2,-2,-2,-3,-1
1570179635638606,3,1,1,0,-1,-1,-1,8
1570179635659550,0,0,0,1,0,-1,-2,-1
1570179635659550,2,-1,-2,-2,-1,1,0,-2
1570179635661550,-4,-2,-1,0,-1,1,1,-5
1570179635661550,-2,0,-1,0,-1,1,0,-7
1570179635674519,3,-1,-2,-1,-2,0,1,11
1570179635674519,-1,1,1,1,-2,1,-4,-11
1570179635676505,1,1,0,0,-1,-1,0,2
1570179635676505,4,0,0,0,1,-1,-13,14
1570179635697452,-5,-3,-2,-2,-1,-1,2,-6
1570179635697452,0,-1,-1,-2,1,2,0,-2
1570179635703433,1,-1,-1,1,-1,-1,-1,0
1570179635703433,-3,-1,-1,-1,-1,0,3,-4
1570179635720388,1,-1,0,-1,-1,-1,-1,0
1570179635720388,3,0,-1,0,-2,-2,1,17
1570179635721384,-1,0,-1,-2,-1,-1,1,-7
1570179635721384,1,-1,0,-1,-1,0,2,0
1570179635734351,0,1,2,0,0,-1,-2,-7
1570179635734351,0,-1,-3,-2,0,-1,-1,2
1570179635742707,0,-1,-3,-1,-1,1,0,2
1570179635742707,-4,1,-1,1,-1,-2,1,-8
1570179635757977,0,-1,-2,0,-1,-1,-3,-2
1570179635757977,0,3,1,-1,-2,-2,0,-4
1570179635759283,-2,-2,-2,-1,-1,0,0,-4
1570179635759283,0,-1,-2,-2,-2,-1,-1,2
1570179635780227,-2,-1,-1,-1,0,-1,-1,-2
1570179635780227,-1,-1,-2,-2,-2,0,1,-4
1570179635782224,-1,-1,0,-3,0,0,-1,2
1570179635782224,-2,1,0,-1,0,0,1,-4
1570179635794353,-2,-1,-1,-2,0,1,0,2
1570179635794353,-1,0,-1,0,0,1,1,6
1570179635801355,-1,-1,-1,0,-2,-2,-2,-1
1570179635801355,-1,-1,0,-1,-2,1,2,-3
1570179635817128,1,-1,0,0,-1,-3,-3,3
1570179635817128,0,-2,0,-1,-1,-1,2,-9
1570179635823116,-3,-1,-1,0,0,-2,3,2
1570179635823116,-1,-1,-1,-1,-2,-1,0,6
1570179635840068,-2,-1,-1,-1,0,1,1,-8
1570179635840068,-1,-2,0,0,-2,1,-1,0
1570179635842062,1,0,-1,2,-1,1,0,-2
1570179635842062,-1,0,-1,1,1,0,-1,0
1570179635854200,1,1,0,0,-1,0,-1,1
1570179635854200,-3,0,0,-1,0,-1,-1,-4
1570179635861025,-3,0,-2,-2,0,-1,-5,-13
1570179635861025,-4,-1,-1,1,-1,-1,-2,-10
1570179635877967,0,1,1,1,-1,-1,-2,4
1570179635877967,1,0,0,0,0,-2,-1,0
1570179635879283,0,-3,0,0,-2,-2,1,1
1570179635879283,0,-1,-1,-4,-2,-3,-1,0
1570179635899911,-3,-1,-2,0,0,-2,0,-5
1570179635899911,-4,-2,-1,-2,-2,1,12,-13
1570179635901910,1,0,-1,1,1,-1,-4,3
1570179635901910,0,0,-2,-1,-1,0,2,-1
1570179635914870,0,0,0,0,0,0,1,7
1570179635914870,-3,0,-1,1,-1,-2,-3,-7
1570179635920854,4,0,1,0,0,0,-1,4
1570179635920854,0,-2,-1,-1,1,-2,0,0
1570179635938805,-1,-1,-2,-3,-1,-1,1,-7
1570179635938805,0,0,0,0,2,0,-4,3
1570179635940100,-2,1,1,0,-2,-1,-2,-3
1570179635940100,3,0,-1,0,0,0,-4,3
1570179635960747,-2,0,1,0,-1,1,2,1
1570179635960747,2,-2,-1,-2,0,-2,-3,4
1570179635961743,3,-1,-1,-1,-2,0,1,12
1570179635961743,3,0,0,2,0,0,-3,2
1570179635974714,-1,-1,-4,0,-1,-1,-4,-15
1570179635974714,0,-1,-1,1,-1,0,-1,5
1570179635981690,-2,1,-2,1,0,0,1,-3
1570179635981690,-3,-2,1,-1,-2,-1,0,-6
1570179635997649,-4,-1,-2,-1,-1,1,-3,-9
1570179635997649,2,1,-1,1,-1,0,-3,7
1570179635998648,2,0,1,-1,0,0,0,4
1570179635998648,-1,-1,-1,-2,1,0,-1,1
1570179636019638,-1,-2,-1,-2,-2,1,-2,-2
1570179636019638,-1,0,0,-2,0,-1,-4,6
1570179636021584,-1,0,1,0,-1,0,-1,-1
1570179636021584,-2,1,-3,1,-2,0,1,-3
1570179636033738,4,1,0,-1,-2,0,0,8
1570179636033738,1,-1,-1,-1,-1,-2,-3,1
1570179636042552,-2,-1,-1,-2,0,-1,-1,-2
1570179636042552,-3,-2,2,-1,-2,-1,0,1
1570179636057675,0,-1,0,1,0,-2,3,1
1570179636057675,0,0,1,-1,-2,-1,1,-2
1570179636059484,-1,0,0,-2,-2,0,0,-3
1570179636059484,-1,-3,-1,0,0,-1,-1,-5
1570179636080426,-1,-1,-1,0,1,0,1,3
1570179636080426,0,0,1,0,-1,-3,-2,-5
1570179636081424,-3,0,-2,0,0,-2,-3,-7
1570179636081424,2,0,1,-1,-2,0,3,6
1570179636093733,0,-1,1,0,-1,-1,0,2
1570179636093733,1,-1,0,-3,-1,-1,-1,1
1570179636103459,-1,0,-2,0,-2,0,1,-2
1570179636103459,1,0,-1,-1,-2,-2,0,3
1570179636117330,-1,-1,0,-1,1,1,-3,-6
1570179636117330,-5,0,1,0,-1,1,0,-11
1570179636119324,6,2,1,1,0,-1,-13,21
1570179636119324,-1,-1,-3,-1,0,0,0,-2
1570179636140300,2,-2,0,-1,-1,-1,-1,5
1570179636140300,-2,-2,-2,-1,1,-1,0,-2
1570179636141264,-3,-2,-2,-1,-3,-1,4,-6
1570179636141264,-4,-1,-1,-1,0,-1,-2,-6
1570179636153241,-1,0,0,-1,-1,0,-2,1
1570179636153241,2,-1,-1,0,-1,0,1,2
1570179636162538,-2,1,-2,-1,0,0,1,-4
1570179636162538,1,-1,0,-1,1,-1,0,4
1570179636177511,-2,1,0,1,-1,-1,2,-1
1570179636177511,5,-1,-1,-1,0,-1,1,6
1570179636179162,-2,0,0,-2,0,0,2,-1
1570179636179162,-1,-1,1,1,-1,-1,-2,-2
1570179636200111,-1,-1,-1,-1,0,0,0,0
1570179636200111,-5,0,-2,0,-2,0,-2,-5
1570179636201104,2,-4,-2,0,1,-1,-1,3
1570179636201104,0,-3,1,0,0,-2,0,4
1570179636214073,1,-1,-2,-1,-1,-1,-1,-5
1570179636214073,0,0,-2,0,-1,-2,-1,-3
1570179636223327,0,-1,-1,-2,0,1,1,-1
1570179636223327,-2,-1,-1,0,-1,1,-2,-3
1570179636238006,-2,-2,1,-1,0,-3,-3,1
1570179636238006,-1,-2,-1,0,-1,-1,0,-2
1570179636240001,0,-1,1,1,-2,-1,1,-1
1570179636240001,0,0,-1,-1,0,-1,6,3
1570179636259946,-1,0,0,-1,0,-1,-1,-1
1570179636259946,0,-1,-1,-2,-2,0,1,0
1570179636261941,0,-2,0,-2,-1,0,-2,2
1570179636261941,-1,-2,-2,1,-2,0,-2,-6
1570179636273910,0,0,1,0,0,-2,2,3
1570179636273910,0,0,0,-2,2,-2,-2,-2
1570179636282884,-5,0,-2,0,0,-1,1,-12
1570179636282884,-1,2,0,-1,-1,-1,-2,0
1570179636297846,-2,0,-1,-2,0,0,-1,-3
1570179636297846,-1,-2,1,1,-3,0,-1,3
1570179636298845,-4,-1,-2,-2,-2,-2,0,-9
1570179636298845,2,1,0,-1,0,0,1,8
1570179636320927,1,-1,-1,1,1,-1,-1,8
1570179636320927,0,-1,0,-2,-1,0,-2,-14
1570179636326768,-4,1,1,0,2,-1,0,-4
1570179636326768,2,-1,-2,-1,-1,-2,-1,3
1570179636333749,0,-1,-1,0,-1,1,1,0
1570179636333749,-1,-2,-1,1,-1,-1,0,3
1570179636342725,0,-2,0,1,-1,1,-1,2
1570179636342725,-1,-2,-1,0,0,-1,-1,-6
1570179636357690,-3,-2,0,-2,-1,1,1,-2
1570179636357690,-2,1,-2,-1,-1,1,2,-1
1570179636358682,2,0,-2,-1,-1,-1,-2,3
1570179636358682,-4,0,-1,0,-3,1,3,-10
1570179636380060,4,-1,-2,-1,-1,-3,-9,3
1570179636380060,0,-2,-3,-1,0,-1,3,7
1570179636381621,-2,0,-1,-1,-1,1,1,-1
1570179636381621,0,1,-1,-1,-1,-1,1,-2
1570179636393592,1,0,-1,0,-2,-1,2,-3
1570179636393592,-2,0,0,1,0,-1,-3,-3
1570179636402571,1,-1,-1,1,1,-2,-1,8
1570179636402571,2,0,-1,-1,-1,1,0,7
1570179636425504,-2,0,-1,-2,-1,0,0,-3
1570179636425504,2,-2,0,-1,0,-1,-1,4
1570179636426502,1,-1,0,0,-2,-1,2,1
1570179636426502,-2,-1,-2,-1,0,0,-3,-4
1570179636440465,-1,1,-1,-1,-1,0,1,-1
1570179636440465,-1,1,0,-1,-2,1,1,-2
1570179636441461,-2,0,1,-2,-2,0,-4,-7
1570179636441461,0,-1,-1,-2,-1,-1,-3,0
1570179636453433,0,-2,-1,1,-1,-1,2,0
1570179636453433,-2,0,-1,1,-1,0,-2,0
1570179636462407,1,0,-1,-1,-2,-1,-1,1
1570179636462407,-1,1,0,0,-1,0,-2,0
1570179636477379,-1,-1,-2,-1,-2,-1,2,1
1570179636477379,-1,-1,-1,-2,-1,-2,-1,-3
1570179636479365,4,1,1,1,0,-1,-16,14
1570179636479365,-4,-2,0,0,-1,0,-3,-3
1570179636500350,0,-2,-1,-3,0,-1,-1,-1
1570179636500350,2,-2,-1,0,0,-1,0,2
1570179636501451,-7,-2,-1,-1,-1,-2,2,-19
1570179636501451,4,-1,-2,-2,1,-2,1,10
1570179636522250,1,0,-1,0,-1,-1,-2,4
1570179636522250,0,-1,0,-1,-1,-1,-1,1
1570179636524311,0,0,0,-1,0,3,3,10
1570179636524311,-3,-1,0,1,-2,-1,-2,-9
1570179636537820,0,1,-3,0,0,0,2,-3
1570179636537820,-1,-1,0,-1,0,0,1,3
1570179636539201,1,-1,-2,-1,-1,1,3,-4
1570179636539201,-3,0,0,-1,-2,-2,1,-5
1570179636560143,0,0,2,0,-1,0,-2,2
1570179636560143,-2,1,-1,-1,-1,0,-3,-4
1570179636561204,0,-1,-1,0,0,-2,1,0
1570179636561204,1,0,-1,-2,0,-1,0,2
1570179636582091,-5,-2,0,-2,-1,-4,-5,-14
1570179636582091,-4,0,-1,0,0,-1,0,-5
1570179636584080,2,-1,-1,-2,-1,-1,4,3
1570179636584080,-3,-1,1,1,0,0,0,0
1570179636597045,1,2,-1,0,-1,-1,-1,4
1570179636597045,-3,0,0,0,1,-1,-2,-2
1570179636605108,1,1,-2,-1,-1,-1,2,1
1570179636605108,-4,-2,-1,-2,-1,-1,-4,-5
1570179636619990,-8,-2,-2,-1,-1,2,11,-19
1570179636619990,2,0,-1,-1,-2,1,0,2
1570179636621980,0,0,-1,-1,0,0,2,3
1570179636621980,4,0,-1,1,-1,-1,0,10
1570179636642927,-2,-1,-1,-1,0,0,0,0
1570179636642927,-1,0,-2,-2,0,-3,-1,1
1570179636643953,-3,-1,-1,-1,0,-2,0,-3
1570179636643953,-1,0,1,0,-1,0,2,-7
1570179636657152,2,0,0,0,-1,0,-2,9
1570179636657152,0,0,-2,0,0,-1,-1,1
1570179636663867,1,0,-2,-1,0,1,-3,1
1570179636663867,0,0,-2,-1,-1,-1,-2,-2
1570179636679827,1,0,-1,1,-1,0,-1,-3
1570179636679827,0,-2,2,-2,2,-1,-1,2
1570179636681819,-1,-1,0,0,-1,-1,1,-2
1570179636681819,0,-1,-1,-1,-2,-2,-2,-4
1570179636702761,-1,-1,-2,0,0,-1,-3,3
1570179636702761,0,-1,-2,1,-2,1,1,-3
1570179636704759,0,-1,-1,-1,-2,-1,0,-2
1570179636704759,-1,-1,-1,-2,-1,1,-1,0
1570179636716724,0,-1,-1,-1,-1,-2,-1,3
1570179636716724,-1,-2,-1,-2,-1,0,2,1
1570179636723705,-5,-2,1,1,1,-2,-2,-8
1570179636723705,4,1,-1,0,-1,-1,0,5
1570179636739670,-2,-2,1,-1,0,0,-2,-7
1570179636739670,-1,-1,-2,1,0,0,-1,3
1570179636742222,-3,0,0,-1,-1,0,0,-5
1570179636742222,-1,-2,-2,-3,0,2,13,-7
1570179636762604,3,-1,1,0,2,0,-5,3
1570179636762604,0,1,0,-1,-2,0,2,5
1570179636764596,-1,1,-1,0,-1,0,1,4
1570179636764596,-3,-1,-2,0,0,-1,0,-5
1570179636776563,0,0,-1,0,-2,0,-3,1
1570179636776563,-1,-1,-1,-1,0,0,-2,-8
1570179636791532,-3,0,-2,-1,0,-1,-1,-9
1570179636791532,0,0,0,-1,-1,-1,-4,0
1570179636799509,3,-1,-1,-1,-1,-1,3,3
1570179636799509,0,0,0,0,0,-1,-4,-3
1570179636801541,1,-2,0,0,1,-1,1,1
1570179636801541,-2,-1,0,1,1,-1,-4,-3
1570179636822441,-2,0,-1,0,-2,-3,0,0
1570179636822441,0,-2,-2,-2,-1,0,1,-2
1570179636824437,0,-1,-1,-1,-2,0,-1,-1
1570179636824437,-1,-2,2,0,0,0,-4,-2
1570179636836405,1,-2,-1,-2,0,-2,0,-1
1570179636836405,1,-1,-1,-1,3,-1,1,1
1570179636845471,-5,-2,-2,-4,-2,0,9,-14
1570179636845471,1,2,0,-2,0,-1,-7,5
1570179636860345,-5,2,-2,-1,0,-2,-3,-17
1570179636860345,-3,-1,0,1,-3,0,0,-2
1570179636861339,1,-3,-2,0,1,-2,2,5
1570179636861339,-1,-1,-2,0,-1,0,-1,2
1570179636882287,-2,0,1,-1,-1,-1,-1,-1
1570179636882287,1,0,-2,0,-1,-1,0,-1
1570179636884278,0,0,-1,1,-1,-1,-3,-2
1570179636884278,-1,-1,-1,1,0,0,-1,-3
1570179636897243,3,0,-1,-1,-1,0,1,6
1570179636897243,0,0,0,-2,0,-1,-2,6
1570179636904229,0,2,2,-1,-1,-2,-4,3
1570179636904229,4,-2,0,-1,-2,-2,0,9
1570179636920180,1,-1,-1,-1,-1,-1,1,-5
1570179636920180,-4,-1,1,-1,-2,-1,1,-6
1570179636921178,1,0,-2,-1,0,-1,-1,0
1570179636921178,-3,-1,-2,0,0,0,-2,-1
1570179636942130,-2,-2,-1,-1,-1,1,2,3
1570179636942130,2,0,0,0,-1,0,-6,1
1570179636944117,-1,0,-1,0,-2,-1,-4,-1
1570179636944117,0,0,-2,0,-1,-2,0,0
1570179636957325,-1,-2,0,-1,0,0,2,3
1570179636957325,-2,1,-2,-1,-1,0,-1,-8
1570179636964069,-1,-1,1,0,0,0,2,11
1570179636964069,-6,0,-1,-2,0,1,9,-9
1570179636980021,-2,-2,-1,1,-1,-3,-2,-1
1570179636980021,-3,-3,-1,1,0,-2,1,-6
1570179636982015,3,-1,-1,1,-1,0,-6,1
1570179636982015,-1,-1,-3,-2,-3,0,1,-1
1570179637002962,0,0,0,1,0,3,0,2
1570179637002962,2,1,0,1,-2,-1,3,8
1570179637003956,-4,-2,-3,-1,-1,0,0,-9
1570179637003956,1,0,2,1,0,-4,-2,-2
1570179637015935,-1,0,-2,-1,0,0,0,-1
1570179637015935,2,1,0,-2,-2,0,1,4
1570179637025032,-2,1,-1,-1,0,0,-2,-1
1570179637025032,-2,1,1,-1,0,-1,-4,-8
1570179637039861,1,0,0,0,0,0,0,11
1570179637039861,-3,0,-1,-1,-2,0,1,-1
1570179637041857,1,1,0,0,-2,0,-2,4
1570179637041857,0,-1,-1,-1,-1,0,-2,-4
1570179637070782,-1,-1,0,-2,0,-1,1,0
1570179637070782,0,0,0,-1,1,-2,0,-1
1570179637071777,-4,-3,0,-2,-1,2,7,0
1570179637071777,3,2,-1,0,-1,-1,-4,3
1570179637075809,-4,-1,-1,-2,-2,-3,-2,-6
1570179637075809,0,-1,0,-1,0,0,-3,2
1570179637092720,2,0,-1,-3,0,-1,0,3
1570179637092720,1,-1,-2,-2,1,-1,2,6
1570179637099702,1,0,-1,-1,-1,1,-2,1
1570179637099702,-4,-3,-1,-1,-1,0,0,-9
1570179637101800,-1,-1,0,-1,-1,0,-2,0
1570179637101800,-1,-1,1,0,0,1,0,5
1570179637122698,1,0,0,-1,-2,-3,-2,-12
1570179637122698,0,-1,-1,-1,0,-2,-1,0
1570179637124637,3,0,-1,-1,-2,-1,0,2
1570179637124637,0,-1,-1,-1,1,0,0,-1
1570179637136601,-4,0,-2,-1,-1,-1,-2,-13
1570179637136601,3,0,-1,1,0,-1,2,6
1570179637145579,-1,-1,0,0,0,-2,-1,-2
1570179637145579,-3,-1,-2,-1,-2,-1,-2,-5
1570179637159541,-1,1,-2,0,0,1,1,7
1570179637159541,-3,-1,1,0,-1,-1,3,-10
1570179637161536,3,1,0,1,-1,-3,-11,9
1570179637161536,1,0,1,-2,0,0,0,-1
1570179637182485,2,-2,1,-1,-3,-1,2,8
1570179637182485,-1,-2,0,-1,-1,1,0,-2
1570179637184474,-2,-2,-1,0,-1,0,2,0
1570179637184474,-1,-1,0,0,-1,0,0,0
1570179637196441,0,-1,-1,0,1,-2,-5,0
1570179637196441,-1,-2,-1,-1,0,0,-1,-3
1570179637205420,2,0,0,0,0,-1,-4,-10
1570179637205420,0,-1,0,1,0,-1,0,4
1570179637220383,-3,1,-2,0,-1,-1,1,-1
1570179637220383,2,-2,0,-2,0,0,-2,10
1570179637221376,-1,-1,-2,-2,0,1,1,-5
1570179637221376,-2,-1,-1,-1,-1,0,-1,-4
1570179637242506,0,2,2,0,-1,-1,-1,-1
1570179637242506,1,1,-2,0,-2,0,-2,1
1570179637244319,-2,-1,-2,0,1,0,-1,-2
1570179637244319,-1,-2,0,1,-1,-1,-1,-1
1570179637256285,-1,0,-1,0,-1,0,0,-2
1570179637256285,-1,0,-1,-2,-2,-2,0,-2
1570179637265267,0,1,0,-1,-2,-1,1,1
1570179637265267,-4,-1,-2,0,0,-1,-2,-8
1570179637280219,-2,-2,0,0,-2,-1,-2,-3
1570179637280219,1,1,1,-1,0,0,-2,1
1570179637281217,0,0,0,1,0,-1,2,1
1570179637281217,5,2,0,0,0,-2,-16,16
1570179637302164,2,1,0,-1,-1,0,0,-1
1570179637302164,1,0,0,0,-1,0,-2,-2
1570179637304155,-2,-1,-1,0,-1,-1,0,3
1570179637304155,1,-1,-2,0,-1,0,4,-1
1570179637316123,0,-2,-1,-1,0,-1,2,3
1570179637316123,0,-1,-1,-2,-1,-1,-2,4
1570179637325099,-3,-3,-1,-1,0,0,0,-7
1570179637325099,-5,-2,0,-2,0,-1,1,-9
1570179637340057,1,-1,-2,-2,-2,0,0,4
1570179637340057,0,-1,-1,1,0,0,1,3
1570179637342052,0,1,-1,0,-3,-1,0,-1
1570179637342052,-2,-1,1,-1,0,0,1,-6
1570179637362002,4,-1,2,-2,2,0,1,11
1570179637362002,-3,-2,1,1,-1,-1,-3,-7
1570179637369983,1,-2,-1,-1,-1,-1,-1,1
1570179637369983,0,-1,-1,-1,-1,-1,-1,3
1570179637376017,-3,-3,-2,0,0,-2,-1,-6
1570179637376017,-2,1,-1,0,1,-1,1,7
1570179637385157,0,-2,0,-1,0,0,-2,-5
1570179637385157,1,-1,-1,-2,0,-1,3,-3
1570179637399902,0,-1,0,-3,0,-1,-2,-3
1570179637399902,-6,-1,-2,-2,-3,0,10,-12
1570179637401893,5,5,1,0,-1,-1,-8,9
1570179637401893,-2,1,-1,0,-2,-1,0,3
1570179637422845,-2,-1,0,0,-2,0,-1,-3
1570179637422845,0,0,-2,0,1,0,0,4
1570179637423834,-2,-2,-1,-1,-1,-1,2,-5
1570179637423834,0,0,1,0,-2,-1,-1,0
1570179637445035,0,0,-2,0,0,-1,-3,1
1570179637445035,0,0,1,1,1,0,-2,8
1570179637446773,-4,-2,-2,-1,-1,0,-1,-4
1570179637446773,1,-1,-2,0,0,-2,1,3
1570179637459742,-1,-1,1,1,-1,0,0,0
1570179637459742,1,-2,-1,0,-1,-1,-3,-2
1570179637461957,-1,0,0,-2,1,1,2,6
1570179637461957,-3,-1,0,0,1,0,-1,-16
1570179637490695,1,0,-2,0,-3,-1,0,1
1570179637490695,0,-2,-2,0,0,-1,-4,-2
1570179637492648,-3,1,0,-1,1,-3,0,1
1570179637492648,-1,0,-3,-2,0,0,1,0
1570179637504617,-1,0,0,0,-1,0,-2,0
1570179637504617,-4,-2,-1,-3,-2,-1,6,-17
1570179637506613,3,0,-2,-1,-1,0,-5,4
1570179637506613,-1,0,0,1,0,0,0,-2
1570179637520320,0,-1,-3,-1,1,-2,-1,-1
1570179637520320,1,0,1,-1,-1,0,1,0
1570179637521763,-4,-2,-2,-1,0,-1,1,-4
1570179637521763,-2,-2,-1,-2,-2,-1,-2,-3
1570179637542860,0,1,2,0,0,0,-5,2
1570179637542860,0,-1,0,0,0,-1,-2,0
1570179637544516,0,-2,-1,-1,-1,0,2,0
1570179637544516,2,0,0,-1,0,-2,-2,5
1570179637565461,-4,-1,0,2,1,-2,3,0
1570179637565461,-2,-1,1,-1,1,-1,-5,-1
1570179637566494,-1,1,-1,-1,-1,0,-1,-7
1570179637566494,0,-2,-1,-1,-2,-2,2,4
1570179637580474,-3,-1,1,-1,0,1,0,-1
1570179637580474,-1,-1,-2,-1,2,0,-2,0
1570179637581413,-3,-2,-2,-1,-1,-1,9,-15
1570179637581413,0,0,0,2,0,-2,-8,-1
1570179637602362,1,0,-1,-2,-1,0,3,0
1570179637602362,1,-1,0,0,0,-1,-2,5
1570179637604351,-3,-1,1,1,-1,0,4,-3
1570179637604351,-2,-2,-1,-1,-1,0,0,0
1570179637625302,1,0,1,-2,-1,-3,-1,-4
1570179637625302,-1,-2,-3,0,-3,-1,-5,-15
1570179637626296,1,0,0,2,2,1,-1,8
1570179637626296,-2,-2,-1,-2,-1,1,4,-4
1570179637639275,2,-2,-1,-1,-1,-1,-3,1
1570179637639275,2,1,-1,0,-1,0,-1,5
1570179637647236,1,1,0,-1,-1,-1,-2,1
1570179637647236,-1,0,0,0,0,0,0,4
1570179637662804,-2,-1,-1,-1,1,-1,1,-5
1570179637662804,-2,2,0,-1,-1,0,0,2
1570179637663862,1,-1,0,0,0,-1,-4,4
1570179637663862,2,1,1,-2,-1,1,-3,4
1570179637685306,0,-1,-2,1,-1,-1,0,0
1570179637685306,-2,-1,-1,-1,0,-2,-2,0
1570179637686304,3,0,-1,-2,0,-1,4,3
1570179637686304,1,1,-1,-1,0,-1,-8,2
1570179637699859,-1,-2,-2,-1,-2,-1,-2,5
1570179637699859,-2,0,2,-1,-2,0,2,1
1570179637705847,-6,-2,-3,-1,-4,-1,-4,-22
1570179637705847,-4,0,-3,0,-1,0,4,-1
1570179637722678,0,-1,0,-1,-1,0,-1,0
1570179637722678,0,-1,-1,0,0,-2,-4,-8
1570179637724642,-2,-1,0,-1,0,-2,-3,2
1570179637724642,0,0,-1,-2,-1,0,2,3
1570179637745416,-1,0,0,-1,-1,1,-4,-5
1570179637745416,-2,-1,-1,-1,-1,1,0,1
1570179637746958,3,-1,0,-1,1,-2,-1,8
1570179637746958,1,-2,-1,0,-1,0,1,4
1570179637759141,-3,0,-2,1,0,1,0,-3
1570179637759141,1,1,0,-1,0,0,2,4
1570179637766123,-1,-1,1,0,-2,-2,-2,1
1570179637766123,-2,-1,-1,0,-1,-1,0,2
1570179637782518,-2,0,1,-1,-2,-1,-1,-10
1570179637782518,-2,0,-2,1,0,0,-1,4
1570179637784568,-5,2,1,0,0,0,8,-4
1570179637784568,-2,-1,0,-2,-1,-2,0,-6
1570179637804913,-1,-2,-4,0,-2,-1,1,0
1570179637804913,0,0,1,-1,-1,0,-2,0
1570179637806888,1,-2,-1,0,-1,0,0,11
1570179637806888,2,0,1,1,0,-2,-4,-4
1570179637819379,-1,1,-1,-3,2,0,-1,0
1570179637819379,-2,-2,-1,-2,-1,-2,2,-4
1570179637826362,2,-1,-2,-2,-1,0,-3,6
1570179637826362,-3,0,-1,0,-1,0,2,-3
1570179637842385,-2,0,-1,0,-2,-1,-3,-2
1570179637842385,6,-1,0,0,-1,1,-1,7
1570179637844380,-1,-1,1,1,0,0,-3,-4
1570179637844380,1,0,-2,0,-2,-1,1,2
1570179637864794,-2,-1,-1,0,0,1,2,-4
1570179637864794,0,-1,-2,-2,0,-2,0,6
1570179637866751,-1,-1,1,-1,0,-1,-4,-7
1570179637866751,-3,1,-1,-1,0,0,1,-7
1570179637879835,2,1,0,0,-1,0,-1,5
1570179637879835,-1,0,-1,1,-1,-1,-3,-6
1570179637886818,0,-1,-1,1,0,-1,-3,3
1570179637886818,0,-1,0,-2,0,-1,0,-5
1570179637902566,0,0,-1,0,-1,0,1,-1
1570179637902566,0,-2,-1,-1,-1,-1,-1,1
1570179637904561,-2,0,-1,-1,0,-1,-3,0
1570179637904561,0,-1,-1,-1,-2,0,0,3
1570179637925488,-4,-3,0,-1,0,-1,1,-5
1570179637925488,6,0,0,-3,-1,0,2,9
1570179637926489,1,0,-2,-2,-1,-1,1,0
1570179637926489,3,-2,-2,-2,-1,1,0,7
1570179637938647,-6,0,1,1,0,0,-2,-13
1570179637938647,-7,-1,-2,1,-1,-2,-3,-7
1570179637947496,-1,0,0,-1,-2,-1,1,9
1570179637947496,2,-1,-1,-1,0,-2,-3,-3
1570179637962679,6,-1,-2,-3,-1,0,2,5
1570179637962679,3,3,2,2,1,-1,2,2
1570179637964451,3,-1,-1,1,2,3,-2,1
1570179637964451,-6,-3,-4,-3,-1,0,0,8
1570179637985393,3,0,0,0,-3,-1,1,9
1570179637985393,0,-1,0,0,-1,-1,-1,4
1570179637986392,-8,0,2,2,2,2,12,-24
1570179637986392,1,-1,-1,-2,0,-1,-5,11
1570179637998403,1,-2,-4,0,3,-1,1,0
1570179637998403,0,-4,-9,-10,-5,-1,5,9
1570179638007431,0,-1,-1,3,-3,-1,13,3
1570179638007431,-15,7,8,7,5,2,11,-15
1570179638022373,-7,10,13,4,0,-3,7,-55
1570179638022373,1,19,-6,-8,-2,-4,-23,-2
1570179638024291,3,-6,-14,-14,-5,-1,-5,9
1570179638024291,-9,-44,-8,8,5,1,6,-2
1570179638045234,-2,-8,-8,4,-3,-1,8,-7
1570179638045234,17,20,0,-5,-1,0,4,23
1570179638047228,12,16,4,-2,-3,-1,-5,-5
1570179638047228,-10,2,-1,-2,0,-3,-4,-19
1570179638059198,-5,-10,-8,-4,0,-1,-12,-4
1570179638059198,0,3,-2,6,4,4,3,-4
1570179638067932,7,-12,4,-2,-1,0,-5,12
1570179638067932,14,10,1,1,2,0,5,9
1570179638082268,-27,-13,10,-1,-7,-2,-10,0
1570179638082268,5,17,-8,-5,-1,-3,-4,-12
1570179638084131,-4,-8,6,2,-6,-5,-5,-5
1570179638084131,11,6,18,5,-1,-2,-3,4
1570179638105074,0,0,-5,-3,4,1,2,14
1570179638105074,-16,-8,10,5,1,1,8,-24
1570179638107069,-7,-7,-5,-5,0,-1,5,-11
1570179638107069,6,5,3,-6,-5,1,-6,-14
1570179638119036,-11,-17,-4,5,2,0,-14,7
1570179638119036,1,0,8,6,4,3,16,1
1570179638128012,14,13,-1,1,2,1,1,-26
1570179638128012,-6,0,-4,-12,-7,-2,-9,7
1570179638141973,8,9,-6,-5,4,5,12,8
1570179638141973,-3,-2,4,10,10,1,-24,-13
1570179638143968,-14,-25,8,17,13,0,-4,6
1570179638143968,-3,-10,-14,-6,-5,2,15,11
1570179638164913,21,19,5,-4,7,4,-1,12
1570179638164913,-7,-22,-3,-7,-12,-2,11,-14
1570179638166906,6,17,-6,-8,-2,-7,-26,-22
1570179638166906,-10,-14,-9,1,11,5,7,-19
1570179638178874,-8,2,-2,1,5,5,-3,-15
1570179638178874,14,-9,7,6,-18,-10,4,-50
1570179638187850,-15,4,11,0,-2,-3,1,-69
1570179638187850,29,19,-1,-7,-31,-17,-11,-92
1570179638201818,9,5,-7,-5,23,13,8,-44
1570179638201818,-27,-18,-3,-4,1,4,-1,-6
1570179638216168,-3,-5,-7,6,-18,-9,1,-58
1570179638216168,8,19,4,-10,-11,-10,-1,-53
1570179638224961,29,-12,-15,-16,8,7,-5,-50
1570179638224961,-2,8,9,10,19,3,-4,-3
1570179638226749,-15,-19,1,-6,-22,-10,0,76
1570179638226749,-26,-24,-11,6,6,2,-4,88
1570179638247237,-40,-24,2,-1,-14,-7,-2,86
1570179638247237,44,28,-5,-1,15,7,2,87
1570179638247237,5,4,-1,-3,8,7,5,89
1570179638247237,-13,12,14,16,16,12,1,66
1570179638270174,35,39,7,12,3,-10,-1,58
1570179638270174,15,-25,-17,-20,-50,-30,-10,29
1570179638271172,-16,-11,-9,-13,-2,-1,-2,30
1570179638271172,-5,-6,2,1,-7,-4,-5,29
1570179638284142,-34,15,12,13,10,6,4,22
1570179638284142,-38,-38,-8,-3,3,7,-1,-3
1570179638285135,79,44,-4,0,2,-4,-7,1
1570179638285135,-25,-33,-9,-6,5,6,3,-6
1570179638307159,-13,-9,4,-4,-13,-4,1,8
1570179638307159,2,8,10,11,-3,-1,-3,-2
1570179638308074,-13,-10,-5,-3,4,7,-8,21
1570179638308074,-17,0,3,7,2,-1,-8,-3
1570179638321038,35,45,9,9,-11,-7,7,7
1570179638321038,3,-16,-4,-8,11,0,-5,10
1570179638329021,-55,-51,1,10,12,12,13,4
1570179638329021,52,66,-5,-16,-11,-3,13,-8
1570179638344982,20,-6,4,-5,2,-6,-17,-16
1570179638344982,-38,-19,-5,-2,6,2,-5,-26
1570179638345270,33,22,3,4,-5,0,4,67
1570179638345270,-16,-16,0,-5,-6,-5,-2,6
1570179638366919,-2,-19,1,3,-9,-9,-4,-20
1570179638366919,8,11,-5,4,8,13,11,32
1570179638367964,-6,4,1,-1,13,1,-2,-42
1570179638367964,37,12,9,4,3,-1,-14,9
1570179638380931,-31,-28,-13,-14,-12,0,5,14
1570179638380931,-11,14,0,0,-1,-1,-1,-39
1570179638388861,16,1,0,-2,18,12,-10,-6
1570179638388861,15,12,1,-2,-42,-23,0,3
1570179638404816,-1,-2,10,21,12,-4,6,-12
1570179638404816,-3,-5,3,-8,-20,-9,-3,-4
1570179638404816,-23,0,1,4,5,5,9,-23
1570179638404816,12,14,-4,2,17,7,-9,39
1570179638434783,-1,-13,4,-2,-20,-2,-3,32
1570179638434783,2,1,-5,-5,-6,-3,2,-14
1570179638435732,14,23,4,2,-7,-3,0,11
1570179638435732,-31,-41,-12,-6,4,4,-1,-19
1570179638466651,15,19,8,8,2,-3,4,-7
1570179638466651,-14,-1,-6,-15,5,5,8,-15
1570179638466651,-5,2,3,-2,-4,-4,-7,-22
1570179638466651,-2,-7,-9,-9,3,6,7,-13
1570179638468644,-21,-17,-2,-4,4,3,2,-9
1570179638468644,6,26,11,5,-3,-3,-2,-5
1570179638471635,20,3,-4,5,-1,-4,0,-19
1570179638471635,-11,-3,2,-2,19,9,4,-14
1570179638486596,-2,3,1,2,-23,-9,-2,1
1570179638486596,17,11,-6,-3,1,-3,-3,-11
1570179638487921,-32,-22,-6,-9,-6,-4,0,-22
1570179638487921,23,21,5,1,14,5,-1,1
1570179638501554,-7,2,-6,0,1,1,-3,-23
1570179638501554,9,-3,3,9,2,-2,0,2
1570179638509538,-7,-17,-15,-17,-14,-7,-7,18
1570179638509538,-6,-12,0,0,1,1,10,-1
1570179638524501,7,9,0,2,9,-1,-19,-6
1570179638524501,-5,-19,-9,-10,-1,7,3,33
1570179638525491,30,21,8,11,22,3,2,-5
1570179638525491,-27,-16,6,6,-36,-22,-2,-10
1570179638546443,15,2,-10,-15,-10,-5,1,0
1570179638546443,-22,-13,0,4,-7,0,2,0
1570179638547446,-19,-10,4,3,7,9,7,-9
1570179638547446,29,19,0,3,11,-2,-26,-19
1570179638561396,-2,-4,-10,-4,20,10,8,-1
1570179638561396,-9,0,8,2,-18,-7,-2,-14
1570179638569373,17,19,8,3,-6,-3,5,90
1570179638569373,-5,-5,6,-1,-9,-3,0,3
1570179638584572,32,11,-2,1,-7,0,2,1
1570179638584572,-8,-17,-6,-2,30,8,-6,-5
1570179638585331,-15,-8,-2,-1,5,10,8,-22
1570179638585331,-16,-10,0,4,1,-3,8,1
1570179638607273,-12,-1,5,-3,-15,-9,0,26
1570179638607273,21,31,-4,-17,-9,-2,3,7
1570179638607273,-10,-31,15,17,-2,-4,-2,-33
1570179638607273,-6,5,-19,-10,21,12,0,-5
1570179638621324,-17,-40,-9,-22,-12,-1,2,-12
1570179638621324,-8,3,7,21,8,-2,-4,-15
1570179638629216,26,31,-7,-5,-1,-3,-2,-21
1570179638629216,7,1,1,-1,34,31,50,27
1570179638644218,0,-3,-5,-15,-8,4,-4,5
1570179638644218,-12,-16,-4,-5,-29,-32,-44,-12
1570179638645173,-13,3,-1,-5,-10,-14,-11,-19
1570179638645173,5,-3,-6,-8,-26,-11,-37,-19
1570179638667112,1,13,-5,-12,-2,-4,19,-7
1570179638667112,-2,5,5,1,6,8,0,-4
1570179638667530,3,9,4,23,13,9,13,-7
1570179638667530,7,-11,-8,-9,8,1,11,11
1570179638681088,-20,16,9,-5,-1,11,6,-3
1570179638681088,49,10,5,13,-7,-3,7,14
1570179638689056,-24,-11,-5,-11,-16,-14,-13,-9
1570179638689056,4,-5,1,12,45,20,13,20
1570179638704015,4,-1,-6,12,0,-2,5,-3
1570179638704015,9,19,14,7,-11,-10,-35,13
1570179638705339,-14,-19,-16,-20,-15,-16,0,-17
1570179638705339,-9,-2,-6,-13,-40,-30,-5,-23
1570179638727221,9,21,31,48,83,61,18,6
1570179638727221,-25,-38,-22,-13,-76,-30,2,-14
1570179638727952,25,5,-10,-6,-11,-1,-8,46
1570179638727952,-4,21,2,-15,-18,-19,-22,-40
1570179638741920,-24,-20,5,11,18,-7,-3,9
1570179638741920,8,18,0,10,54,32,32,-5
1570179638742914,-15,-22,4,23,21,4,-11,-12
1570179638742914,-3,12,12,31,31,12,6,-30
1570179638764851,10,-11,-14,-21,-18,-7,-2,-2
1570179638764851,3,7,18,13,12,-1,15,-26
1570179638765306,27,-6,-5,-15,-28,-14,-3,-18
1570179638765306,-29,-12,-2,0,19,14,5,-13
1570179638786800,15,-9,-13,-2,37,13,-15,-19
1570179638786800,-24,-27,-21,-46,-91,-47,-3,-17
1570179638787790,46,42,1,-17,-4,11,0,6
1570179638787790,-16,4,3,6,-33,-14,-9,-4
1570179638800799,-15,-34,5,15,14,-7,-4,-7
1570179638800799,54,15,-5,-8,48,29,4,26
1570179638809739,-82,-37,-12,-6,-2,-5,2,-19
1570179638809739,20,5,5,3,15,16,4,6
1570179638824739,3,7,-8,-10,-47,-29,-3,22
1570179638824739,7,27,8,1,21,9,3,17
1570179638824739,-15,0,8,4,4,7,12,17
1570179638824739,-25,-37,-11,-3,-3,-9,-7,-7
1570179638846641,42,24,5,-1,3,3,4,1
1570179638846641,-3,-10,0,7,10,6,5,11
1570179638847632,51,10,-4,-13,-9,0,-3,0
1570179638847632,-63,-25,-1,8,7,2,-2,37
1570179638862592,-7,-6,-10,-6,15,3,0,-12
1570179638862592,-1,5,1,8,22,11,0,5
1570179638869570,-1,9,-5,-20,-34,-13,1,4
1570179638869570,37,0,4,4,-30,-17,1,11
1570179638884532,-11,1,-13,-8,-15,-8,-12,-16
1570179638884532,-32,-16,4,9,33,9,2,0
1570179638885528,12,11,3,10,17,4,5,13
1570179638885528,-1,3,0,-5,-15,-7,-7,-1
1570179638906477,-20,-3,10,11,7,0,7,-9
1570179638906477,32,8,5,-4,-3,3,-4,21
1570179638907475,-17,-20,-10,-15,4,0,-10,-17
1570179638907475,10,-4,-7,-8,-7,0,-4,-3
1570179638920492,25,19,5,-8,-18,-11,-6,-5
1570179638920492,-29,-11,0,5,-9,-3,4,-13
1570179638937391,-37,28,8,1,2,2,1,1
1570179638937391,29,-35,-12,-11,15,6,-9,18
1570179638944440,-2,-3,-5,10,4,3,-2,8
1570179638944440,7,1,-4,-19,-52,-17,4,7
1570179638945663,11,5,10,22,54,12,6,10
1570179638945663,1,32,9,9,-23,0,9,8
1570179638967311,-1,-3,9,5,-31,-8,-2,5
1570179638967311,8,-4,-3,5,24,3,-1,13
1570179638967616,4,3,5,4,0,2,4,-1
1570179638967616,1,5,1,4,15,2,6,-19
1570179638981274,11,0,-2,2,5,-1,-20,59
1570179638981274,-5,-1,-5,-2,11,9,0,8
1570179638989308,-4,-2,7,6,-25,-10,-4,-6
1570179638989308,20,13,0,3,15,3,14,3
1570179639012198,-30,-9,6,-4,-24,-12,-4,-20
1570179639012198,3,-12,-8,-5,16,5,-9,-3
1570179639013196,15,-1,1,-2,11,4,-5,11
1570179639013196,-3,2,-4,-4,-31,-10,10,-21
1570179639027161,2,7,-2,-12,-6,0,4,-7
1570179639027161,6,8,6,15,25,3,-5,-6
1570179639027161,-32,-33,-16,-12,-11,1,4,-8
1570179639027161,-4,6,-1,-7,14,6,9,-55
1570179639043108,0,2,-5,0,-19,-10,2,-6
1570179639043108,2,0,2,6,27,16,-4,35
1570179639049098,-14,-3,-5,-5,-33,-22,9,-71
1570179639049098,12,11,11,5,-1,-13,-48,20
1570179639064055,20,9,-4,-12,-10,0,-9,19
1570179639064055,-45,6,6,3,3,4,7,-8
1570179639065049,0,-32,-7,7,12,7,6,-11
1570179639065049,-3,4,4,6,16,6,-2,26
1570179639086998,-11,8,-6,1,-8,-7,-2,-27
1570179639086998,-10,-9,8,5,-9,-6,-5,-18
1570179639087988,0,6,-6,2,12,8,0,27
1570179639087988,17,17,-1,-16,-16,-8,-1,-9
1570179639101950,7,-20,3,7,15,3,2,-4
1570179639101950,-26,-17,-11,-7,-4,8,5,-22
1570179639109142,0,18,17,10,10,-5,4,1
1570179639109142,-1,-15,0,-9,-41,-11,-2,-1
1570179639124048,12,25,-3,-9,-1,-4,-4,-5
1570179639124048,8,-18,-3,-15,-26,-11,-6,-2
1570179639124892,17,20,7,18,22,11,4,31
1570179639124892,-23,-29,-5,-2,4,20,-17,62
1570179639146831,16,19,9,6,4,-18,-8,13
1570179639146831,27,18,-8,-13,-10,1,-3,-5
1570179639154813,-9,-12,-5,-6,14,11,2,-1
1570179639154813,23,-5,-2,-3,0,-9,9,3
1570179639160799,-34,-16,-10,-19,5,12,3,-11
1570179639160799,-4,26,-3,19,5,-7,-7,12
1570179639169773,17,6,11,19,-1,-4,5,-16
1570179639169773,-27,-15,-4,-5,-14,-6,3,18
1570179639185033,-15,-41,-3,-5,2,2,4,-10
1570179639185033,82,60,-10,2,-10,-5,4,-7
1570179639185033,25,19,17,-4,-1,1,-33,29
1570179639185033,-25,-57,-20,10,16,-4,-10,-33
1570179639206677,-29,-8,1,9,7,6,3,-4
1570179639206677,-16,-15,6,-1,9,5,10,-4
1570179639207986,-12,-4,-11,-8,-9,-11,3,-47
1570179639207986,27,33,16,4,-20,-9,1,21
1570179639221639,-25,-17,-11,-13,-11,5,0,-58
1570179639221639,-10,-14,-6,-5,8,-2,-5,-10
1570179639229610,-9,-11,-13,-20,-18,-1,-2,-12
1570179639229610,-4,18,16,18,29,9,4,-17
1570179639244571,23,19,-17,-7,-10,-10,0,0
1570179639244571,-18,-32,1,4,-32,-16,0,-37
1570179639245566,-15,-19,7,2,-1,8,0,32
1570179639245566,39,32,-3,8,5,3,5,-16
1570179639266623,-1,-9,18,23,19,11,-24,77
1570179639266623,12,14,-2,0,10,-1,5,6
1570179639267768,7,14,-7,-8,-13,-9,0,11
1570179639267768,-4,4,1,-5,11,9,-2,13
1570179639281478,3,-13,-7,-12,-9,-8,7,0
1570179639281478,-4,10,14,10,7,7,-6,5
1570179639289448,-8,-15,-16,-6,-35,-10,-7,31
1570179639289448,13,7,-7,-9,-20,3,36,-22
1570179639304416,-16,-22,-7,-10,41,-7,-28,3
1570179639304416,-25,0,6,-3,0,0,5,-5
1570179639305463,40,2,-5,5,10,2,-6,-18
1570179639305463,-33,-9,-5,-14,-7,-3,2,-13
1570179639326356,12,19,14,19,14,13,19,-22
1570179639326356,-1,-4,1,13,6,-5,-5,-20
1570179639327347,-2,10,-1,-4,-17,-10,-9,61
1570179639327347,33,1,4,6,18,10,-1,20
1570179639350295,-37,-28,-11,-8,-6,3,5,-17
1570179639350295,-35,-27,13,-2,1,0,2,-12
1570179639351283,-12,7,-8,4,-3,1,9,-19
1570179639351283,33,16,2,-3,-6,-3,-18,9
1570179639364251,11,15,1,-5,0,6,14,5
1570179639364251,5,-8,-8,-9,2,-1,12,-16
1570179639365246,-30,-23,-3,-3,15,1,3,-24
1570179639365246,-4,15,13,23,12,3,-6,2
1570179639387187,6,3,-2,-8,-17,-6,0,-28
1570179639387187,2,-10,-10,-9,-23,-7,-7,14
1570179639387187,-1,6,10,8,8,4,-3,-24
1570179639387187,-8,-6,-7,-12,11,6,-19,58
1570179639410126,21,20,14,14,-6,0,11,35
1570179639410126,-4,-10,-11,-4,-3,0,-5,-12
1570179639412124,0,1,5,-1,0,-3,-8,-1
1570179639412124,-30,-12,-15,-9,9,0,7,-54
1570179639432709,4,-2,11,13,-6,-6,2,21
1570179639432709,19,14,-2,-19,-17,-6,-7,30
1570179639433064,1,-4,-3,2,0,1,2,-18
1570179639433064,-4,-1,2,-3,-7,-6,-6,-11
1570179639447026,-8,-5,-14,-14,-3,-1,5,-8
1570179639447026,7,7,3,12,16,4,3,-35
1570179639448028,-29,-19,0,-2,1,2,6,18
1570179639448028,-12,-4,4,13,10,-3,2,-4
1570179639470104,-2,1,-3,2,-4,-2,-8,-22
1570179639470104,-1,-8,-4,-2,-7,-1,4,6
1570179639470965,31,14,3,-1,1,2,-4,-2
1570179639470965,-29,-3,-1,1,11,-3,-1,-15
1570179639484441,-6,-1,1,0,-8,0,-2,-20
1570179639484441,4,3,-1,-4,-9,0,-1,2
1570179639484926,29,17,8,6,2,-1,-4,-3
1570179639484926,-53,-21,-6,-5,-9,-1,1,-29
1570179639507143,23,8,3,4,-4,-6,-1,11
1570179639507143,8,6,3,5,4,0,-8,9
1570179639507869,7,-5,-2,0,3,2,0,4
1570179639507869,22,1,-3,-6,-6,-1,-4,50
1570179639529810,2,5,-10,-17,-7,-1,-1,-8
1570179639529810,27,19,10,14,13,5,7,25
1570179639530803,-52,-25,0,5,12,5,1,1
1570179639530803,4,-3,-7,-10,-14,-3,30,-26
1570179639544768,-13,-1,1,1,-19,-14,-13,-12
1570179639544768,-1,-4,-3,0,1,-3,3,14
1570179639544768,2,4,-2,-5,8,12,3,-9
1570179639544768,27,3,2,-1,-29,-19,6,15
1570179639566713,0,2,1,0,4,2,1,-21
1570179639566713,-20,-9,1,0,0,-1,-2,-7
1570179639567704,39,20,4,7,13,4,2,6
1570179639567704,-45,-18,-1,-1,8,4,-10,7
1570179639589649,13,3,-4,-6,-6,-1,-2,7
1570179639589649,-20,0,3,2,2,2,-5,1
1570179639590651,-2,-15,-8,-5,0,-5,-2,1
1570179639590651,30,18,1,1,4,4,-7,-13
1570179639604609,-23,-8,4,6,2,-3,0,4
1570179639604609,38,13,-2,-9,0,7,9,13
1570179639605606,-64,-27,-7,-3,-5,-6,-4,-35
1570179639605606,2,1,-1,-1,0,-1,-2,2
1570179639626704,-23,-24,-8,-2,6,2,-3,-13
1570179639626704,-9,4,3,-1,3,1,11,-6
1570179639627546,50,24,0,-6,-11,-6,-6,52
1570179639627546,6,-3,3,1,2,0,-2,-11
1570179639650488,12,7,-1,6,6,3,8,3
1570179639650488,-12,-6,-1,1,1,-2,-1,-10
1570179639650608,44,16,1,-1,-6,-3,-18,83
1570179639650608,-42,-19,1,6,5,1,-1,1
1570179639664480,26,11,-2,-3,-4,1,5,6
1570179639664480,12,0,-3,0,-6,-3,-5,-10
1570179639665445,-23,-10,3,3,-3,-4,2,-46
1570179639665445,3,4,-3,-1,-1,1,-3,5
1570179639687385,31,9,4,-1,0,1,1,24
1570179639687385,-2,1,0,2,1,-2,-8,-24
1570179639688382,40,3,-6,-11,-5,-1,6,-11
1570179639688382,-13,-17,2,0,4,-2,-1,11
1570179639710328,45,36,8,-2,-2,-1,5,-6
1570179639710328,-34,-33,-7,2,3,-1,-5,10
1570179639711321,51,19,1,2,-5,0,8,0
1570179639711321,-25,-5,-2,-4,-1,0,-4,-8
1570179639724327,0,-3,2,5,5,2,0,10
1570179639724327,15,21,0,-2,-1,-1,8,-16
1570179639725283,-43,-5,8,7,0,-1,-8,-23
1570179639725283,25,11,-3,-2,-2,-3,-3,-11
1570179639747225,-29,-11,0,-4,-5,-3,-4,-14
1570179639747225,-30,-8,-1,2,-3,-2,-1,-2
1570179639747225,-16,-18,-9,-8,-8,-6,1,-15
1570179639747225,54,35,7,2,1,1,1,-3
1570179639770187,-17,-32,-8,-1,2,0,-1,2
1570179639770187,-6,-4,-5,-8,-3,-2,-4,3
1570179639771162,26,17,6,9,8,5,10,14
1570179639771162,-3,-8,0,1,-2,1,-2,21
1570179639784363,-8,17,3,1,4,0,-2,0
1570179639784363,40,21,14,9,3,3,5,17
1570179639785127,-125,-69,-26,-17,-9,-9,-9,-37
1570179639785127,25,15,1,8,3,-3,-1,-10
1570179639807069,25,9,4,6,1,0,1,2
1570179639807069,-60,-25,-6,-2,1,6,-2,0
1570179639808062,46,42,15,7,4,4,4,5
1570179639808062,-14,-28,-8,-6,-3,-2,-5,-14
1570179639830005,41,9,-6,-7,-4,-2,0,20
1570179639830005,-20,-15,-5,-4,-5,-3,-1,2
1570179639831000,41,22,11,7,1,0,4,8
1570179639831000,-70,-23,-8,-5,-3,0,-4,-23
1570179639844963,30,11,1,3,2,1,2,6
1570179639844963,46,23,1,-7,-2,0,2,7
1570179639845961,-109,-57,-9,-6,2,1,-5,-20
1570179639845961,-11,13,6,-1,-2,0,2,-2
1570179639866949,48,-5,-10,-11,-6,-3,-1,19
1570179639866949,-5,5,2,11,1,-3,3,-22
1570179639867902,5,-5,-9,-3,-3,-7,-24,-34
1570179639867902,-50,-10,0,2,2,1,2,4
1570179639897825,-3,7,-1,-4,-1,-3,-3,-11
1570179639897825,-27,-25,-3,1,4,1,2,-1
1570179639897825,20,5,0,2,-5,-3,6,4
1570179639897825,52,31,3,2,3,9,2,0
1570179639903903,-29,-28,-6,-1,0,-1,-8,-12
1570179639903903,46,10,4,3,1,0,-1,31
1570179639911930,7,11,6,3,0,3,5,33
1570179639911930,5,-13,-3,-3,-3,-4,-2,21
1570179639926768,-2,10,4,1,2,1,4,30
1570179639926768,-20,-8,-3,-4,-3,-1,4,-16
1570179639927741,-4,2,-2,-5,-1,0,-1,-12
1570179639927741,59,18,1,-3,-6,-4,-1,0
1570179639950071,42,13,7,6,5,7,12,37
1570179639950071,-44,-39,-11,-7,-4,-7,-15,-47
1570179639950682,44,12,-1,-1,-4,-4,-10,8
1570179639950682,62,14,8,7,3,5,13,98
1570179639963645,-29,0,3,2,-2,1,-1,-57
1570179639963645,23,12,3,-1,0,-5,-5,40
1570179639971628,7,6,1,1,1,2,11,14
1570179639971628,6,2,-1,-3,0,-2,-5,-6
1570179639986595,-51,-18,-3,0,-1,-2,-5,-5
1570179639986595,5,2,0,-2,0,2,0,6
1570179639987937,-5,3,0,-3,-1,-2,-4,-4
1570179639987937,-10,-4,-2,0,1,-3,-9,35
1570179640010521,-34,-10,-3,-1,-2,-1,-7,59
1570179640010521,3,2,-2,-3,2,4,18,79
1570179640010792,20,10,1,0,1,1,-7,36
1570179640010792,-8,-6,1,1,1,2,-5,17
1570179640023644,-12,-7,-1,0,0,-2,5,-86
1570179640023644,21,7,0,-2,-1,-2,-7,-89
1570179640031469,-7,-3,-2,-1,0,3,12,-107
1570179640031469,-11,-6,-1,0,0,-1,4,-125
1570179640046536,3,3,0,0,0,-3,-2,-54
1570179640046536,0,1,-2,-1,-1,-3,0,-71
1570179640047428,-3,0,-1,-1,0,-1,-1,-26
1570179640047428,-3,-2,-2,1,-1,1,-2,-30
1570179640070369,9,3,0,-1,-1,-1,-16,28
1570179640070369,-14,-1,0,-1,-2,0,-4,15
1570179640070369,-2,1,-2,-4,0,1,2,53
1570179640070369,9,3,1,1,-1,-5,-19,60
1570179640083338,-22,-6,-2,0,-1,1,0,85
1570179640083338,9,2,0,2,-1,-1,-4,98
1570179640092353,-10,-4,-2,-3,-1,-4,-6,48
1570179640092353,3,-1,0,0,1,1,8,68
1570179640107296,-7,-4,-1,0,-1,-1,-10,7
1570179640107296,4,0,-1,-1,0,0,-6,6
1570179640107471,3,2,2,2,-2,1,7,3
1570179640107471,-10,-4,-2,-3,-1,-2,4,-58
1570179640131201,4,-2,-1,0,-1,-2,4,-16
1570179640131201,-3,-1,-1,1,-1,-1,-3,-32
1570179640132287,2,0,0,0,-1,1,0,-24
1570179640132287,-3,-2,-1,0,-4,-1,-2,-27
1570179640143165,0,-1,0,1,-1,-1,3,-13
1570179640143165,-1,1,-2,-2,-2,0,-4,-33
1570179640152147,-6,-3,1,-1,-1,0,10,-9
1570179640152147,-4,-3,-2,-2,-1,-2,1,-27
1570179640167101,-4,0,0,0,0,0,15,-53
1570179640167101,3,-1,0,0,-1,-3,-3,-13
1570179640167101,-14,-3,0,-1,0,-3,-6,-27
1570179640167101,2,-1,0,-1,-2,-2,1,-5
1570179640190040,-3,-2,-2,-2,0,0,-1,-13
1570179640190040,5,2,-2,2,1,-2,0,10
1570179640191037,-5,-1,-1,-1,0,-1,-3,-19
1570179640191037,2,0,-1,-3,2,0,7,23
1570179640212984,-6,-2,0,0,-1,-1,-5,6
1570179640212984,2,0,-1,-2,0,1,-1,23
1570179640212984,1,1,0,1,0,1,-1,20
1570179640212984,-3,-1,-2,-1,0,1,-1,-2
1570179640226946,1,0,1,1,0,0,-1,6
1570179640226946,0,-1,-2,-1,-1,-1,-2,11
1570179640227940,2,0,1,1,1,-3,1,8
1570179640227940,0,0,-2,-2,-2,0,3,2
1570179640249912,-3,0,-1,-2,-2,-1,-3,2
1570179640249912,-2,-1,1,0,0,0,2,1
1570179640250878,1,1,0,0,-2,-1,0,4
1570179640250878,-4,-3,-2,-2,-1,-2,-1,-3
1570179640263847,4,1,0,0,-1,-2,1,6
1570179640263847,-7,-4,-3,-2,-1,0,6,-8
1570179640271826,5,-1,-1,-1,-1,1,0,6
1570179640271826,-3,-3,-2,0,0,0,5,3
1570179640286786,-1,0,1,0,1,1,-6,-4
1570179640286786,-3,0,-2,-2,-1,0,2,-17
1570179640287779,3,2,0,1,0,-1,-11,24
1570179640287779,-2,1,1,-2,-2,0,-2,-5
1570179640309721,-3,-3,0,-2,0,0,-1,-6
1570179640309721,3,0,2,0,1,0,-1,2
1570179640310724,-1,-1,0,-1,0,-1,0,-9
1570179640310724,-1,0,-2,-1,-1,-2,-2,-6
1570179640333088,2,1,0,-1,-1,-3,0,6
1570179640333088,1,0,0,-2,-1,0,-3,3
1570179640333657,1,-2,-2,-1,0,0,3,6
1570179640333657,1,-2,0,0,0,-2,-4,-9
1570179640346656,-3,0,-1,-1,-1,1,3,-2
1570179640346656,4,-2,1,-1,-1,-1,1,13
1570179640347703,-7,-1,0,-1,0,2,1,-8
1570179640347703,1,1,1,1,1,-1,0,1
1570179640369565,-1,0,-1,0,-2,-3,-2,-3
1570179640369565,-2,0,-1,1,0,-1,-2,-1
1570179640370560,0,0,-1,0,-2,0,0,-2
1570179640370560,1,0,0,0,-1,-1,-2,4
1570179640400478,0,1,-2,-1,0,2,-2,-2
1570179640400478,0,-1,-3,0,-1,-1,-1,7
1570179640400755,2,0,-1,-2,-2,-1,2,2
1570179640400755,-9,1,-2,0,0,0,-2,-14
1570179640406466,1,-2,-3,-1,0,-2,0,4
1570179640406466,-1,0,-2,-1,-1,-1,-2,-1
1570179640407575,-1,-2,0,1,0,1,-1,-2
1570179640407575,1,0,0,-1,1,-1,1,-4
1570179640429434,0,0,1,-2,-1,-1,-2,-5
1570179640429434,3,1,-1,0,-2,1,-1,7
1570179640437379,3,0,-1,0,-1,0,-1,-4
1570179640437379,-1,-1,-2,-2,-2,1,0,3
1570179640452738,-2,-1,-3,1,-2,0,0,1
1570179640452738,-3,-1,-3,-1,0,-1,-1,-6
1570179640453348,-1,1,-1,0,-1,-1,2,1
1570179640453348,1,-1,-2,-1,0,1,-2,3
1570179640466309,-3,0,-1,0,0,-2,-2,-5
1570179640466309,-2,-1,-2,0,0,0,-1,-3
1570179640467335,-4,-3,-3,1,1,-1,-2,-5
1570179640467335,0,-1,0,-1,0,-1,0,2
1570179640490237,0,-2,0,1,-3,1,0,-4
1570179640490237,2,-2,2,-1,1,-1,-1,3
1570179640491238,3,0,1,-1,-1,-2,2,4
1570179640491238,-3,-1,0,0,0,-1,-2,-1
1570179640512215,-5,0,0,-1,1,-1,-1,-3
1570179640512215,1,2,1,-1,0,0,-2,0
1570179640513175,-1,-1,0,-1,0,0,-1,0
1570179640513175,-1,0,0,1,2,0,-2,0
1570179640527144,-3,-3,0,0,0,-2,-1,-5
1570179640527144,-1,0,0,0,0,-1,0,1
1570179640528138,1,-1,0,-1,-2,0,1,2
1570179640528138,-2,-1,-1,-1,-1,-1,-1,-3
1570179640550081,1,-2,0,0,1,1,1,5
1570179640550081,-3,-1,-2,0,-3,-1,-4,-17
1570179640551076,1,0,-1,0,0,-1,0,7
1570179640551076,2,1,-2,-1,-3,-1,-1,7
1570179640573016,1,0,1,-1,-2,-2,-1,-6
1570179640573016,-1,-2,0,-3,1,-1,0,-2
1570179640573016,-10,0,0,-2,-2,-2,-4,-37
1570179640573016,14,1,0,0,0,1,5,29
1570179640586982,13,-1,-1,-1,-1,1,3,28
1570179640586982,-3,-2,-1,1,-1,0,-1,-4
1570179640588048,-1,0,-1,-2,-1,0,4,4
1570179640588048,-4,0,0,-1,-1,-2,-8,-16
1570179640610142,-3,-2,-1,-1,-1,-1,-2,-3
1570179640610142,2,1,-1,-2,-1,-1,1,10
1570179640610916,2,0,0,-1,-1,0,-1,8
1570179640610916,-5,-2,-1,-2,0,-2,3,-9
1570179640632861,6,1,0,0,1,-2,-13,18
1570179640632861,-4,-1,1,0,-1,-2,-5,-6
1570179640632861,-1,-2,0,0,-2,1,0,1
1570179640632861,-8,-3,-1,-1,-3,-1,1,-26
1570179640646823,-2,-2,0,0,-1,-1,0,-9
1570179640646823,-1,1,0,0,-1,1,2,2
1570179640647817,-6,-2,-4,-1,1,-1,-6,-8
1570179640647817,3,0,-1,-2,-3,-1,2,10
1570179640669803,-2,0,0,-1,-1,0,2,-5
1570179640669803,3,0,1,-1,-2,0,-1,5
1570179640670951,-4,-1,1,-1,-1,-1,1,-15
1570179640670951,-3,1,1,0,-2,-1,-4,-10
1570179640692696,-1,-2,-3,-3,0,0,3,-1
1570179640692696,2,-1,0,0,-2,0,0,3
1570179640693697,-1,0,-1,1,0,0,-2,3
1570179640693697,0,-1,0,-1,0,-1,0,5
1570179640706729,-1,0,1,0,-1,1,0,1
1570179640706729,-5,-2,-1,-2,0,-1,-3,-13
1570179640708068,5,-1,-3,-2,-2,1,3,16
1570179640708068,1,2,0,1,1,-3,-11,10
1570179640729598,2,1,-2,-2,1,-1,5,16
1570179640729598,-2,-2,-1,0,0,0,-2,-9
1570179640730662,2,1,-1,-1,-1,-3,-6,0
1570179640730662,-1,-1,-1,-2,0,4,3,4
1570179640752541,-5,0,0,0,-2,-1,-2,-16
1570179640752541,-1,-3,-1,-2,1,-1,-1,4
1570179640754532,1,0,-2,0,0,-1,2,4
1570179640754532,-1,-2,-1,-1,-2,0,0,-6
1570179640775475,-2,-2,-2,0,-1,-1,-1,-2
1570179640775475,0,0,1,-1,-1,0,0,-5
1570179640776472,-2,-1,1,-2,-2,-1,-1,-4
1570179640776472,-2,-1,-2,0,1,0,2,0
1570179640790439,2,-2,-1,0,-1,-1,1,5
1570179640790439,2,0,0,0,0,-3,-1,4
1570179640792433,-1,-1,1,-1,-1,-1,-1,1
1570179640792433,2,-1,0,0,-1,-1,2,3
1570179640811378,-2,-2,-1,-1,0,1,0,-3
1570179640811378,0,1,-1,-2,0,0,1,0
1570179640820356,0,1,1,0,2,-2,-1,1
1570179640820356,-6,0,-1,-2,0,0,-1,-7
1570179640826342,6,-1,-2,-2,-1,1,1,7
1570179640826342,-3,-1,-1,1,-1,-2,0,1
1570179640835510,0,-2,-1,-1,0,0,0,6
1570179640835510,1,-2,0,0,-1,-1,0,-1
1570179640850280,-3,1,-2,1,0,0,-1,-6
1570179640850280,-2,-1,-2,0,-1,1,1,1
1570179640851270,1,0,-2,-1,-1,0,1,5
1570179640851270,-3,-2,-2,-1,0,-3,-4,-14
1570179640880197,1,0,-2,-2,-1,1,1,1
1570179640880197,-1,-2,-2,0,-1,-1,-3,-5
1570179640881360,0,-3,0,-1,-1,-1,-1,1
1570179640881360,-2,0,1,-2,-2,-1,-1,-3
1570179640886270,-7,-2,-1,0,0,0,-2,-7
1570179640886270,-3,-1,0,-1,0,1,-2,-17
1570179640895155,3,-1,-1,-1,-2,-2,1,11
1570179640895155,3,0,0,-1,0,-1,-1,7
1570179640910120,1,0,0,-1,0,-2,0,-3
1570179640910120,-1,-1,-1,-1,-3,-1,0,6
1570179640912109,-5,1,-1,2,1,0,-1,-6
1570179640912109,1,-2,-2,0,-1,2,1,-3
1570179640932061,0,0,-1,-1,-3,-1,-1,12
1570179640932061,1,-1,1,-1,-2,-3,1,4
1570179640934051,1,-1,1,1,0,0,-2,-3
1570179640934051,-2,-1,-1,-2,0,0,0,3
1570179640954998,-3,1,-2,1,0,1,-2,-5
1570179640954998,1,0,-2,0,1,-3,-1,3
1570179640956989,-2,-1,-1,0,-1,-1,1,-4
1570179640956989,-1,-1,1,0,-1,0,2,-1
1570179640969954,-1,0,-1,-2,0,-2,0,-5
1570179640969954,-2,-2,-2,-1,-2,-1,0,5
1570179640971953,2,2,0,1,0,-1,-3,0
1570179640971953,0,-1,-1,-1,-2,0,-2,1
1570179640992899,-5,-1,0,-1,-1,-1,-2,-11
1570179640992899,4,-1,0,-1,0,2,0,8
1570179640993893,-1,-2,0,-1,-1,0,1,4
1570179640993893,-1,0,0,1,-1,-1,0,2
1570179641005866,-2,0,-1,0,-1,-2,1,-1
1570179641005866,-4,1,-2,-1,-1,0,-3,-5
1570179641014867,-1,0,-1,0,-1,-1,-2,-6
1570179641014867,1,-1,-1,0,-1,1,1,1
1570179641029976,2,0,0,0,0,1,-1,0
1570179641029976,-4,-1,1,2,1,-2,-1,-11
1570179641031798,3,1,-1,-2,0,1,3,6
1570179641031798,-1,-1,-3,0,-1,-2,-1,-3
1570179641052740,0,-2,-1,-2,0,1,-3,0
1570179641052740,0,-1,1,-2,1,-1,0,-8
1570179641053799,-3,-2,-2,0,-1,-1,0,-3
1570179641053799,-1,0,0,0,1,0,-1,3
1570179641066699,-4,-1,1,1,0,-1,-1,-9
1570179641066699,3,2,-1,-1,1,2,2,10
1570179641074964,2,0,2,-1,-1,0,1,2
1570179641074964,3,-1,-1,-2,-1,-3,-2,0
1570179641097822,-2,-1,-2,0,-1,-2,-2,-4
1570179641097822,0,-2,-1,1,-1,-1,0,5
1570179641099613,0,-1,-3,-2,0,-1,-1,-3
1570179641099613,0,-2,0,0,1,0,-4,-3
1570179641112575,2,0,1,0,-1,1,2,6
1570179641112575,-2,-2,-2,-1,-1,-1,0,-3
1570179641114570,0,1,-1,0,1,0,-3,0
1570179641114570,-2,1,0,0,0,-1,-1,-2
1570179641126539,0,-2,0,-2,-2,-2,-1,-1
1570179641126539,0,0,0,-2,-1,-2,0,8
1570179641135559,-3,-2,0,1,-1,-1,-1,-5
1570179641135559,-1,0,-2,-1,-2,-1,2,4
1570179641157925,3,1,0,1,-1,0,1,4
1570179641157925,0,-1,-1,-1,-1,0,-1,-1
1570179641159449,-4,1,-3,0,-2,-1,-2,-11
1570179641159449,3,-1,-1,-1,-1,-1,1,5
1570179641172416,-1,1,-1,1,-1,-1,0,-1
1570179641172416,0,0,-1,-1,-2,0,-1,-2
1570179641174410,-3,-2,1,0,-1,0,-1,-2
1570179641174410,-3,-1,-1,0,0,0,-1,-4
1570179641186380,-2,-2,0,0,-2,-1,-1,-2
1570179641186380,1,0,-2,0,0,-2,-1,1
1570179641195359,0,0,0,-3,-1,0,1,1
1570179641195359,0,-2,0,0,0,-2,1,-1
1570179641210315,-2,-1,-2,-2,-2,-1,-1,1
1570179641210315,2,-1,0,-2,-1,-1,1,-1
1570179641211311,-1,1,-2,0,0,-1,-1,3
1570179641211311,-2,0,-1,-2,-1,-1,-1,-3
1570179641233294,0,0,-2,-1,-1,0,0,1
1570179641233294,-6,0,1,0,0,1,0,-7
1570179641234249,3,0,-2,0,0,-3,0,3
1570179641234249,0,1,-1,-1,0,-1,1,-2
1570179641255232,-1,0,0,1,-1,-2,-1,-5
1570179641255232,0,1,-2,1,-1,0,-2,0
1570179641256191,-1,0,1,-2,1,0,-1,0
1570179641256191,0,1,0,0,0,-1,-3,-3
1570179641270152,-2,-1,-1,-1,1,1,-1,-6
1570179641270152,0,0,-3,-1,-1,-1,0,4
1570179641271292,0,0,-1,1,-1,0,-1,3
1570179641271292,-1,-1,-1,-1,0,1,0,-1
1570179641292202,-2,1,0,-1,-1,0,3,11
1570179641292202,-2,1,0,0,0,0,-2,-5
1570179641294089,0,-2,-1,-1,-1,-2,0,1
1570179641294089,-1,-1,-2,-1,-1,0,-2,8
1570179641314097,0,-2,-1,-1,0,-3,-2,0
1570179641314097,0,-1,-1,-1,0,0,0,-1
1570179641323017,5,-1,-1,-2,-1,-1,-1,5
1570179641323017,0,0,1,-2,-2,0,-1,3
1570179641330037,2,-1,1,1,-1,-2,-1,0
1570179641330037,-2,-1,-1,-1,-2,-1,-2,-5
1570179641331986,-4,0,-1,-1,0,0,-1,-3
1570179641331986,2,-1,-1,0,-2,-1,0,2
1570179641352935,0,0,-1,-1,-1,-1,-2,-5
1570179641352935,0,0,-1,1,-1,0,2,5
1570179641354011,-6,-2,2,0,0,-1,1,-7
1570179641354011,1,-1,-1,1,-1,1,0,2
1570179641374873,-2,1,0,-2,0,0,-2,-3
1570179641374873,-2,-2,-1,-2,-1,0,-4,-4
1570179641376869,-4,0,0,0,-2,-1,1,-7
1570179641376869,3,1,0,1,0,-2,0,0
1570179641389838,-2,-1,0,0,0,1,0,0
1570179641389838,-5,-1,0,-1,-1,-1,-1,-9
1570179641395820,2,-1,0,-1,1,-1,-2,3
1570179641395820,-3,-1,0,0,-2,-1,0,-6
1570179641412816,0,1,0,-2,0,-2,1,-2
1570179641412816,0,-2,0,0,-1,-2,-3,-4
1570179641413770,0,-1,-1,-1,-2,-1,0,0
1570179641413770,-2,-1,-1,-1,0,-2,-2,-8
1570179641434847,1,-2,-2,-1,-2,0,1,2
1570179641434847,-2,0,0,0,1,0,0,0
1570179641437170,0,0,-2,-1,-1,1,-1,0
1570179641437170,-3,-1,0,-2,0,1,0,0
1570179641449671,-1,-1,-1,0,0,-1,0,-1
1570179641449671,2,1,-1,-1,0,-1,-3,6
1570179641456654,-2,0,-1,0,0,-2,-3,-5
1570179641456654,-2,0,-1,0,0,-1,2,1
1570179641472615,5,-2,0,-2,1,1,1,4
1570179641472615,-2,-2,-2,-1,-2,-1,-2,-14
1570179641474668,3,-1,-1,0,0,-1,0,9
1570179641474668,1,-2,-1,-1,-1,0,0,-1
1570179641494557,-1,-1,-1,1,-1,0,-1,-3
1570179641494557,2,0,1,1,0,-1,2,4
1570179641496547,-1,0,-1,-3,-2,1,-2,-7
1570179641496547,-3,-1,-3,-1,0,0,-3,-4
1570179641509516,0,-1,-2,0,-2,-1,0,0
1570179641509516,0,-1,-1,0,0,-1,1,8
1570179641516494,0,-1,-1,1,0,0,-1,-2
1570179641516494,0,0,0,-1,0,0,0,-1
1570179641532525,-4,0,0,-1,-1,0,-2,-6
1570179641532525,0,1,0,0,0,-2,-1,5
1570179641534523,-3,0,0,0,-2,-2,-2,-6
1570179641534523,3,-1,-1,0,-1,-2,1,10
1570179641555395,0,0,-2,0,-1,0,0,4
1570179641555395,1,1,-2,-2,-1,0,2,-2
1570179641556386,0,-1,2,0,0,1,0,0
1570179641556386,-3,-2,0,-1,-1,-1,0,-5
1570179641569399,2,0,-1,-2,-2,0,0,0
1570179641569399,1,1,-1,0,-1,-2,-2,3
1570179641576334,-1,-2,-1,-2,0,0,1,2
1570179641576334,-3,1,-1,0,0,0,-3,-3
1570179641600269,0,0,0,0,-1,-1,0,-3
1570179641600269,-2,1,1,-1,-1,0,0,0
1570179641601268,-1,-1,-1,-1,-1,-1,-2,-3
1570179641601268,-3,-2,0,1,0,-2,-1,0
1570179641615228,-2,0,0,-3,0,-1,-1,-1
1570179641615228,0,-1,-1,0,-2,0,-1,-3
1570179641616228,0,-2,-1,-1,-2,-1,1,2
1570179641616228,2,0,-1,-2,0,-1,-1,-1
1570179641629197,-1,0,-1,1,-1,0,-2,0
1570179641629197,0,-2,-1,-1,-2,0,0,1
1570179641636257,-3,0,1,0,3,0,0,-3
1570179641636257,3,-2,-2,-1,-2,-1,-2,11
1570179641652393,0,0,-1,-2,-1,0,-1,-9
1570179641652393,-1,-2,0,-1,-2,-1,-1,7
1570179641654517,0,0,2,-1,-1,1,1,-4
1570179641654517,-2,0,1,-1,-1,0,0,-4
1570179641675160,-1,-1,-1,1,0,-1,-1,1
1570179641675160,-2,0,0,0,2,1,0,-1
1570179641677113,-1,-1,-2,0,-1,-1,-1,0
1570179641677113,-1,0,0,-1,-1,-1,0,-1
1570179641689119,-2,-1,0,-1,0,-2,-3,-3
1570179641689119,2,0,-1,-2,-1,-1,-1,-3
1570179641696192,-1,-1,0,1,-1,-2,1,4
1570179641696192,1,0,0,-1,-2,-1,0,-2
1570179641712372,-1,-1,0,0,0,-1,1,2
1570179641712372,0,0,-1,0,-1,0,-1,1
1570179641714324,0,-1,-1,0,-2,0,-1,3
1570179641714324,-1,0,-2,-1,-1,1,-1,-2
1570179641735539,-2,0,0,-1,-1,0,-2,0
1570179641735539,0,-3,0,-2,0,-1,0,-15
1570179641736778,0,-1,-2,-2,-1,-1,-2,12
1570179641736778,-2,-1,-1,1,1,1,-3,-2
1570179641748322,1,1,0,0,-1,0,0,1
1570179641748322,-1,-1,-2,1,-2,-2,-2,3
1570179641757608,-3,-1,-1,-2,0,-2,-1,-6
1570179641757608,0,0,1,0,-2,-1,1,-3
1570179641772801,-1,-1,0,-2,-1,0,0,3
1570179641772801,-1,1,0,0,-1,1,-2,-3
1570179641774573,1,-2,0,-1,0,2,1,-3
1570179641774573,2,1,-1,-1,0,-2,-1,6
1570179641795290,-3,-1,-1,-1,-2,-2,-5,-14
1570179641795290,-1,0,-1,-1,-1,-1,1,-1
1570179641797090,0,0,-2,-1,-3,1,-2,-3
1570179641797090,-2,0,-1,-1,0,0,0,-2
1570179641808370,0,-4,0,-1,-1,0,1,1
1570179641808370,1,-2,0,-1,-1,0,-1,0
1570179641817408,0,-1,-1,-2,0,-1,-1,0
1570179641817408,-3,-1,1,1,1,-1,1,2
1570179641832283,1,0,2,0,0,-2,-2,-3
1570179641832283,-2,-1,0,0,-1,-2,-1,-2
1570179641834280,0,-1,-1,0,-2,0,0,3
1570179641834280,0,-2,-1,1,-3,0,0,2
1570179641855307,1,0,-2,-1,0,-1,0,6
1570179641855307,0,-1,-1,-1,-1,1,-1,1
1570179641856364,-1,1,0,-1,-2,-3,-1,-2
1570179641856364,0,-1,-1,-1,0,-1,0,-4
1570179641868736,-8,-1,0,1,1,-1,-1,-5
1570179641868736,4,-3,-2,-1,0,0,1,3
1570179641877562,-2,0,0,0,1,-1,-2,-3
1570179641877562,-2,-1,0,-2,-2,-2,0,-2
1570179641892941,0,1,-1,-1,-1,1,-1,0
1570179641892941,-4,1,-1,-2,1,0,-1,1
1570179641893937,0,1,0,-1,0,0,1,1
1570179641893937,-1,-1,-1,-1,-1,-1,-1,-3
1570179641915152,1,0,-1,-1,-1,-1,1,1
1570179641915152,0,1,0,1,-2,-2,1,11
1570179641916151,-5,-4,0,1,1,0,-2,-14
1570179641916151,-2,-2,-1,0,-1,1,-3,-4
1570179641929164,4,0,-1,0,0,-1,-1,10
1570179641929164,-1,-3,-1,-2,-2,-1,-1,2
1570179641937386,0,2,0,-1,-2,1,1,2
1570179641937386,0,-1,0,0,-1,0,0,-4
1570179641952559,0,-2,0,-1,-1,-3,0,2
1570179641952559,-1,0,0,0,0,-2,-1,-5
1570179641954348,0,-1,-1,0,1,0,-2,3
1570179641954348,-2,0,-2,-2,-2,-1,0,-2
1570179641975370,0,-3,-3,-2,-2,0,0,11
1570179641975370,-4,-3,-2,-1,1,0,-2,-18
1570179641976292,1,-2,0,-1,0,-1,0,2
1570179641976292,3,-1,-2,1,0,-2,-2,3
1570179641988258,-1,0,-2,-1,-1,-1,-1,-7
1570179641988258,1,1,0,-1,-1,1,1,2
1570179641997279,-1,-1,-1,0,-2,-2,2,2
1570179641997279,-4,0,1,0,1,1,0,-4
1570179642012273,1,1,-1,0,0,-2,-2,3
1570179642012273,2,-2,-1,-2,-1,0,2,-3
1570179642014188,3,-1,0,-1,0,-2,-1,1
1570179642014188,1,-2,0,0,-2,-2,0,1
1570179642034295,-1,0,1,1,1,1,-1,-4
1570179642034295,0,-1,1,0,-1,-2,0,3
1570179642043112,-5,-1,0,-1,-1,0,0,-8
1570179642043112,1,1,-1,1,0,-2,0,2
1570179642049096,2,1,-2,-1,0,0,1,1
1570179642049096,-2,1,-2,-2,-1,-2,-1,1
1570179642058073,1,-2,0,0,-1,1,0,2
1570179642058073,-1,-1,0,-2,1,2,0,3
1570179642073031,0,-3,1,-3,-1,-1,0,0
1570179642073031,1,1,1,0,1,0,-2,-9
1570179642075026,0,1,-1,0,-1,-2,-3,3
1570179642075026,0,1,-1,-1,0,0,-1,0
1570179642094975,-5,-1,-1,1,-2,-1,1,-8
1570179642094975,1,-1,-2,-2,-2,-1,0,9
1570179642097121,-2,0,-2,-1,0,-1,0,-2
1570179642097121,-4,-1,0,-2,0,-2,-1,-9
1570179642108935,0,0,1,2,0,-1,1,2
1570179642108935,-3,-1,1,0,-1,0,-2,-6
1570179642117912,5,1,2,0,0,-1,-3,3
1570179642117912,-1,-1,-1,-1,-1,-2,-1,-1
1570179642132871,1,-1,-1,-1,-1,-1,-1,2
1570179642132871,-2,-1,0,-1,-1,-2,-1,2
1570179642133868,1,-2,-3,1,0,-2,2,6
1570179642133868,1,-1,-2,0,-1,0,0,-1
1570179642154811,-4,0,-2,0,-1,-2,-4,-4
1570179642154811,-1,1,-1,-3,1,0,0,-2
1570179642156895,1,0,1,-2,-1,0,0,4
1570179642156895,0,-1,-1,2,-1,-1,1,0
1570179642168775,1,-1,-1,-1,0,1,0,-1
1570179642168775,1,1,0,1,0,-1,-2,4
1570179642177751,-1,0,-1,1,0,-1,-3,-6
1570179642177751,-1,0,0,-2,1,0,-2,2
1570179642192718,-3,1,0,-1,-1,1,-4,-5
1570179642192718,0,-1,1,1,0,0,0,5
1570179642194722,-1,-2,-1,-1,0,1,1,3
1570179642194722,-1,-1,0,0,-1,-1,0,-1
1570179642214676,-1,0,-2,0,-2,1,0,-2
1570179642214676,1,0,-2,-1,-1,0,0,1
1570179642216695,4,0,-1,0,-2,0,0,4
1570179642216695,-2,1,1,-1,0,0,0,-1
1570179642237598,3,0,-1,-3,0,-1,2,7
1570179642237598,0,0,-1,0,0,-1,0,-5
1570179642239587,-2,-2,-3,-3,0,2,-1,-2
1570179642239587,-1,-2,-2,-1,-1,-2,-2,-5
1570179642252552,0,0,0,0,0,0,-2,-1
1570179642252552,-1,-2,0,-2,-1,-2,-1,-5
1570179642254551,1,-1,-1,0,0,-1,0,2
1570179642254551,2,1,0,0,0,1,-1,-3
1570179642274933,-1,0,0,-1,0,-1,0,4
1570179642274933,-1,-1,-2,1,-3,-1,1,8
1570179642276930,-2,-1,0,0,-1,-1,0,-1
1570179642276930,0,-2,-2,0,-1,-1,0,2
1570179642297873,-1,-1,-1,-1,-1,-1,0,-3
1570179642297873,0,-1,0,-3,-2,1,-3,-1
1570179642299866,-2,-1,1,0,0,-1,-2,-2
1570179642299866,-1,-2,1,-2,0,-1,-1,-2
1570179642311904,0,1,0,0,1,-1,2,-2
1570179642311904,0,-2,-1,-2,-1,-1,-1,-2
1570179642319075,-2,-1,-1,-1,-3,-1,-1,-6
1570179642319075,-2,2,0,-1,0,1,-2,-1
1570179642342824,1,0,-2,-1,-1,0,1,0
1570179642342824,-1,0,-1,-1,-1,-1,2,1
1570179642344747,0,-1,-1,-1,0,-1,-2,-3
1570179642344747,0,0,-1,-2,-1,-2,0,4
1570179642357715,-3,-3,-2,0,0,-1,-1,2
1570179642357715,-7,0,-2,-1,-2,-2,-5,-19
1570179642359793,8,0,0,0,-1,2,5,18
1570179642359793,0,0,0,1,-1,0,0,1
1570179642371770,-1,-1,0,-1,-1,-1,-2,-1
1570179642371770,-3,0,0,-2,1,0,0,-1
1570179642378663,-2,0,-2,-1,1,-2,0,-7
1570179642378663,1,-1,-2,0,-1,-1,-1,-1
1570179642394634,1,0,-2,0,0,2,1,6
1570179642394634,1,0,0,0,1,0,1,5
1570179642396609,-1,-1,0,-3,-2,-1,0,1
1570179642396609,-1,-2,-1,0,-1,-1,0,1
1570179642417554,-1,0,1,0,-2,0,0,-6
1570179642417554,1,-1,-2,0,0,-2,-1,2
1570179642419548,-4,1,-1,0,-3,1,-3,-9
1570179642419548,-2,1,0,1,1,-3,-1,-4
1570179642431516,0,0,-1,0,0,0,0,3
1570179642431516,3,0,0,-1,-1,1,0,-2
1570179642438770,-2,-2,-1,-1,-1,-2,-2,-3
1570179642438770,-1,-2,-2,-4,-2,0,-1,2
1570179642455452,-3,-2,0,-2,-1,0,-2,-6
1570179642455452,3,-1,0,-1,0,-1,-1,5
1570179642456449,-3,0,0,0,1,-3,0,-4
1570179642456449,-2,-1,1,-1,0,-3,-2,-6
1570179642477397,2,-1,-2,0,0,-1,1,4
1570179642477397,-2,-2,-1,2,-3,-1,-1,-3
1570179642479404,-4,-1,-1,0,1,-2,-2,-11
1570179642479404,2,-1,-2,0,0,-1,0,4
1570179642492352,0,0,-1,-1,-1,0,-1,-2
1570179642492352,1,-1,0,0,2,1,0,1
1570179642498339,0,1,-1,0,-1,1,0,-1
1570179642498339,0,-1,1,-1,-2,-1,-2,-4
1570179642515295,1,-1,0,-1,-1,1,1,2
1570179642515295,-2,0,1,-1,0,0,1,7
1570179642516900,1,-1,0,-1,-1,-3,1,-2
1570179642516900,-3,1,0,-1,0,0,1,-2
1570179642537231,0,-1,0,-2,-1,-4,-4,-7
1570179642537231,-3,-1,-2,-1,-1,-1,-4,2
1570179642539335,-2,0,-1,-1,0,2,0,-3
1570179642539335,0,0,-1,0,0,1,2,4
1570179642552193,3,0,0,0,-1,-1,-1,0
1570179642552193,2,1,-1,-1,-1,0,0,-2
1570179642559176,0,-1,-1,0,-1,1,0,-1
1570179642559176,-1,-1,-2,-2,-1,0,0,0
1570179642575484,-4,-2,-2,0,0,0,0,-4
1570179642575484,4,1,-1,0,1,-1,1,4
1570179642576129,0,-1,-1,-1,0,-2,-2,1
1570179642576129,-2,-1,0,-1,-1,-1,-2,-4
1570179642598071,-3,0,0,0,0,-3,-3,-5
1570179642598071,1,-2,-1,0,-2,0,-1,-5
1570179642599069,0,0,-1,0,-1,-1,0,-1
1570179642599069,1,-1,-1,0,-1,0,0,1
1570179642612036,-1,1,-1,-1,-1,1,-2,0
1570179642612036,-4,-2,-2,-1,-2,0,-1,-4
1570179642619116,-2,-1,-1,-1,-1,0,0,2
1570179642619116,0,-1,-1,-1,0,-2,-3,-4
1570179642633987,0,1,1,1,1,0,0,3
1570179642633987,-1,-3,-1,-2,-1,-2,0,-2
1570179642642950,0,0,0,0,-2,0,-3,-1
1570179642642950,1,-1,1,-2,0,-1,0,9
1570179642657911,-3,-2,1,0,1,0,-2,-7
1570179642657911,1,1,0,0,-1,0,-1,3
1570179642658909,-2,-1,0,-1,-1,-1,-2,2
1570179642658909,-3,-1,-2,0,-1,-1,-2,-3
1570179642671873,1,0,-3,-1,-1,0,1,5
1570179642671873,-6,-1,0,-2,0,-3,0,-15
1570179642678855,-1,0,-2,2,0,0,0,-5
1570179642678855,5,-1,0,0,-1,1,-1,2
1570179642694811,-1,-2,0,-1,1,-1,-1,-3
1570179642694811,-1,1,-1,1,-1,1,0,2
1570179642696808,-1,-2,0,-2,0,0,0,0
1570179642696808,-1,-1,1,0,-1,0,-2,-3
1570179642717749,-2,0,-1,-2,-2,-1,0,-4
1570179642717749,-1,-2,-1,-2,0,0,0,-1
1570179642719785,0,0,1,0,0,-1,1,4
1570179642719785,-1,0,-3,-1,-1,0,2,-3
1570179642731712,-1,-1,-1,0,-1,0,1,0
1570179642731712,0,0,-2,0,-2,1,-1,2
1570179642740689,0,-1,-2,-1,-1,-1,-1,1
1570179642740689,0,-1,-2,0,1,0,-1,-1
1570179642754658,0,-1,-1,-1,0,-2,1,0
1570179642754658,-1,-1,-1,1,1,0,0,1
1570179642756646,0,-1,-1,0,-1,-1,2,3
1570179642756646,-4,-1,-1,-3,0,1,-3,-5
1570179642777596,-3,1,0,-3,0,0,-4,-10
1570179642777596,6,2,1,1,0,0,1,21
1570179642778940,2,-1,1,0,1,0,-2,0
1570179642778940,-3,-1,1,0,0,-3,-2,-5
1570179642791638,4,0,-2,-2,-1,1,2,2
1570179642791638,-3,-2,-2,0,-2,-1,-2,-6
1570179642800535,0,0,-2,-1,-2,-1,1,1
1570179642800535,2,0,-1,0,-1,2,2,4
1570179642815492,-4,-1,-1,-1,-3,-3,-2,-7
1570179642815492,-1,1,-1,-1,-1,0,-1,-4
1570179642816485,0,-1,0,-3,-1,-1,-1,-3
1570179642816485,-3,-1,0,0,-2,0,0,-3
1570179642837611,-2,1,0,1,0,-2,0,1
1570179642837611,-3,-1,0,-1,-1,-2,0,0
1570179642839540,-2,0,-1,1,0,-1,-2,-2
1570179642839540,0,0,-1,0,-1,-1,-1,3
1570179642851425,2,-1,1,-1,0,-1,-2,-2
1570179642851425,-1,1,-2,2,0,-1,1,1
1570179642860368,-5,0,0,-1,0,0,-3,-12
1570179642860368,2,2,0,-1,-2,-2,1,3
1570179642875326,0,-2,1,1,0,-1,0,3
1570179642875326,-3,-1,-1,-2,0,-1,-2,-7
1570179642876326,-1,-1,-2,0,-1,-1,1,-2
1570179642876326,-6,-2,0,0,1,-1,-2,-16
1570179642897269,1,0,0,0,-1,-1,1,5
1570179642897269,-2,-2,1,-2,0,-1,-3,-4
1570179642899264,1,-3,-1,1,-2,1,0,5
1570179642899264,0,-1,0,-2,-1,0,-2,0
1570179642911240,-3,-1,1,-1,-1,-1,1,-1
1570179642911240,2,0,-1,-1,-1,-2,-1,1
1570179642920214,0,1,0,-1,0,0,1,3
1570179642920214,-5,-3,0,-1,-2,-2,-5,-21
1570179642935168,-1,-1,-3,-1,-2,0,-1,-2
1570179642935168,1,0,0,0,-3,0,1,2
1570179642937041,-3,-1,0,0,0,0,-1,1
1570179642937041,6,1,-1,-2,1,-1,2,10
1570179642957112,1,-2,-1,-1,0,-1,0,4
1570179642957112,-2,-1,-1,0,0,-1,0,-3
1570179642959104,2,-1,-2,-1,-1,-1,0,-3
1570179642959104,-1,-1,-2,1,-1,1,-1,4
1570179642971564,0,-1,-1,-2,-1,1,-2,1
1570179642971564,-2,-1,-1,0,-1,0,-2,-3
1570179642980221,-4,-1,-1,-1,1,0,-1,-8
1570179642980221,10,0,-1,0,-1,0,2,20
1570179642995012,-2,-1,-1,0,-1,-2,-1,1
1570179642995012,-2,-1,0,-1,1,1,0,-5
1570179642997004,1,0,0,-1,-1,0,-1,-2
1570179642997004,1,1,-1,-1,-2,0,3,6
1570179643017948,-3,-1,-1,0,0,-2,-3,-5
1570179643017948,0,0,-1,-3,-2,1,1,5
1570179643018945,5,0,-1,-2,-2,0,-1,5
1570179643018945,-2,0,-2,0,0,0,0,-3
1570179643031625,-1,0,-2,0,-1,1,-1,3
1570179643031625,1,0,0,1,2,-1,0,0
1570179643039889,-5,-1,0,-1,-2,-2,-1,-2
1570179643039889,-3,-1,1,-2,0,-1,0,-1
1570179643054854,-1,-2,0,0,-1,0,0,-3
1570179643054854,-2,-2,-3,-1,-1,-2,-2,-3
1570179643056844,2,0,-1,-1,0,1,-1,0
1570179643056844,4,-4,-2,0,0,-2,-1,5
1570179643077788,-2,-2,-2,-1,-1,-1,-1,-7
1570179643077788,1,-3,0,-2,-1,1,1,4
1570179643078863,0,-1,0,-1,-1,-1,-2,-9
1570179643078863,-1,-1,-1,0,1,0,-1,2
1570179643090829,-1,0,-1,-1,0,-1,0,-2
1570179643090829,-1,-1,0,0,-1,-1,-1,-2
1570179643099729,-3,-1,-1,0,-1,-1,-2,-2
1570179643099729,7,1,0,1,0,1,5,17
1570179643114695,1,2,1,0,-3,0,-2,-2
1570179643114695,-1,0,1,-2,-2,0,-2,2
1570179643116685,-1,1,-3,-1,0,0,-1,-2
1570179643116685,-7,-1,0,1,1,-1,-2,-12
1570179643137633,5,0,-2,-1,-1,-1,2,8
1570179643137633,1,-1,0,0,-1,-1,1,4
1570179643138768,-1,-1,-2,0,-3,0,0,1
1570179643138768,-7,-2,-1,-1,-1,-2,-4,-8
1570179643159572,2,0,-2,-1,0,0,1,0
1570179643159572,-3,-3,0,0,1,-1,0,0
1570179643161564,0,-1,1,0,-1,-1,2,-2
1570179643161564,-3,-1,-1,0,-2,-1,-3,-3
1570179643182508,-4,-1,0,2,-1,-2,-1,-4
1570179643182508,2,-1,-2,-1,-1,0,2,2
1570179643184501,0,0,-1,0,0,1,0,3
1570179643184501,0,0,0,-1,-2,-1,1,-1
1570179643197466,1,-2,0,-2,0,-1,1,4
1570179643197466,-2,0,-1,0,-1,-1,-5,-12
1570179643199471,1,-3,-1,0,-1,-3,2,10
1570179643199471,-3,-1,-1,0,0,0,-1,-9
1570179643220417,-1,-1,-3,2,-1,0,-1,-1
1570179643220417,0,1,-2,-1,-1,-1,-2,-3
1570179643221593,2,2,1,-1,1,1,4,14
1570179643221593,-7,-2,-2,-2,-1,-1,-2,-10
1570179643234372,-1,-1,-1,0,-1,-1,-2,2
1570179643234372,1,-1,0,0,-2,-2,1,-1
1570179643248331,3,-1,0,-1,-1,0,-1,1
1570179643248331,1,-1,0,0,0,0,0,4
1570179643257308,0,0,0,-2,0,-1,-2,-6
1570179643257308,0,0,-2,-1,1,-1,-1,-6
1570179643259303,-2,-2,-1,-2,-1,-2,-2,-4
1570179643259303,-1,0,0,-2,-1,-2,-1,-4
1570179643280259,1,0,-1,-2,0,1,-1,3
1570179643280259,-1,-1,0,0,-2,-1,-1,2
1570179643281264,0,-2,-2,-1,0,0,-1,-1
1570179643281264,0,-2,0,0,0,1,1,-1
1570179643302192,-2,-2,-1,0,1,0,0,-1
1570179643302192,1,0,-2,-1,1,2,1,1
1570179643304181,-3,2,-2,1,0,-1,-2,-2
1570179643304181,-3,0,-1,-2,-1,-3,-5,-14
1570179643317769,-2,-1,0,1,-2,0,-1,0
1570179643317769,1,-1,0,-1,-1,0,2,3
1570179643319142,-6,-1,1,-1,-2,-1,0,-2
1570179643319142,6,1,0,0,-3,0,0,4
1570179643340334,3,1,-3,-2,-2,-1,-2,8
1570179643340334,-1,-1,1,0,-1,-1,-1,-2
1570179643342080,-1,-1,0,0,0,-2,-3,-4
1570179643342080,0,0,-2,0,0,-2,0,-1
1570179643354047,-4,0,-1,0,-1,0,0,0
1570179643354047,-1,0,-1,1,-1,-1,0,1
1570179643361030,1,0,-2,0,-1,-1,0,-3
1570179643361030,-1,-3,-2,-1,-1,1,1,3
1570179643377989,-2,-2,-1,-2,0,-1,1,-2
1570179643377989,-2,0,-2,-2,1,-1,-1,1
1570179643379428,-4,0,0,1,-1,1,-2,-9
1570179643379428,5,1,-1,1,-1,1,1,9
1570179643399927,-2,0,1,-1,0,0,0,4
1570179643399927,-3,-1,0,0,-1,-1,-3,-7
1570179643401920,1,-1,0,-1,-1,1,1,-1
1570179643401920,0,0,0,1,0,-1,0,3
1570179643413892,0,-1,-1,0,0,0,-1,-3
1570179643413892,-3,1,0,0,0,-1,-1,-2
1570179643420875,-1,0,0,-1,-1,-1,0,8
1570179643420875,0,0,-1,0,1,-1,3,17
1570179643437897,1,-2,-1,-1,-1,-2,-1,1
1570179643437897,0,-1,-2,0,-1,-2,0,0
1570179643439000,0,-2,0,0,0,-1,-2,-2
1570179643439000,1,-2,0,-3,-1,0,-1,0
1570179643467746,-3,-1,-2,0,1,-1,-1,-5
1570179643467746,0,-1,0,-1,-2,-2,1,5
1570179643468950,0,-2,-2,-1,0,-3,0,-7
1570179643468950,2,-1,-2,-2,-1,-1,-1,1
1570179643474925,1,0,-1,-1,0,1,-2,1
1570179643474925,-2,0,-1,-1,-1,1,-2,-4
1570179643481706,1,0,1,0,0,-1,1,-1
1570179643481706,-3,-1,0,0,-2,-1,-1,-6
1570179643497669,-1,0,1,-2,-1,-2,-2,-4
1570179643497669,1,-1,2,0,-1,0,-1,3
1570179643498661,0,-1,-1,-2,-2,1,-1,2
1570179643498661,-1,0,0,0,-1,-1,-1,-3
1570179643519607,1,-2,-1,1,0,-1,1,2
1570179643519607,-4,-1,0,-3,-1,-2,-3,-17
1570179643521606,-1,-2,-2,-1,0,-1,-2,-1
1570179643521606,-3,-1,0,-1,-2,0,-1,-5
1570179643534570,0,0,1,-1,-1,0,1,-2
1570179643534570,0,0,-2,-1,-1,1,0,3
1570179643541547,0,0,-2,0,-1,1,-1,-1
1570179643541547,-2,0,0,-1,-2,-2,-2,-5
1570179643565483,0,-1,2,-1,0,0,0,1
1570179643565483,1,-1,0,-1,-1,0,0,5
1570179643566482,0,0,-1,-1,-2,0,0,1
1570179643566482,-5,-1,-1,1,0,-1,-1,-1
1570179643587632,-3,-1,-1,1,-1,0,0,-2
1570179643587632,1,0,-2,2,0,0,0,3
1570179643589421,0,-1,-1,0,0,0,-1,-2
1570179643589421,-1,-1,0,-3,1,-1,-3,-7
1570179643594686,2,0,0,-2,-1,-1,1,1
1570179643594686,-2,-1,-2,-1,-1,-1,-1,0
1570179643601765,1,-1,1,-1,1,-2,-1,2
1570179643601765,0,-1,1,0,2,1,1,0
1570179643617343,-3,-2,-1,-1,-1,0,-1,4
1570179643617343,-7,-1,-1,-1,0,-1,-1,-15
1570179643619340,5,1,-1,0,0,-1,-1,12
1570179643619340,-1,1,-1,0,0,-1,-1,1
1570179643640285,-2,0,-2,0,-1,-1,-1,-5
1570179643640285,-1,-2,1,1,0,0,-1,1
1570179643641808,-1,-2,-1,-1,-1,-2,-1,-8
1570179643641808,-2,0,-1,0,0,1,-1,-2
1570179643653307,-1,1,0,-1,0,0,0,-4
1570179643653307,1,1,-3,-1,1,-1,0,5
1570179643662400,-1,0,-1,0,0,1,-2,-3
1570179643662400,2,0,-1,-2,-1,0,0,3
1570179643677359,-3,-2,-1,-2,-1,-1,-5,-19
1570179643677359,3,-1,1,0,0,0,1,4
1570179643679181,-2,1,-1,0,-1,-1,-1,-2
1570179643679181,-2,0,1,-1,0,0,0,-4
1570179643700248,-1,-1,-1,0,0,-1,0,-1
1570179643700248,0,0,-1,-1,-1,-1,-1,1
1570179643702118,-6,0,0,0,-2,0,1,-3
1570179643702118,3,0,1,0,0,-1,-2,0
1570179643714096,3,-1,1,-1,0,-2,0,10
1570179643714096,-1,-2,-2,1,0,-2,1,3
1570179643723177,0,-1,0,0,0,0,2,4
1570179643723177,-5,-1,-1,-1,-1,-1,-4,-10
1570179643738022,0,-1,-1,2,-1,0,1,1
1570179643738022,-3,0,-1,1,0,0,-1,-7
1570179643740016,4,0,-1,-3,-2,0,-1,10
1570179643740016,0,0,-1,-2,-2,0,0,-1
1570179643759967,0,2,-1,-1,-2,0,-1,1
1570179643759967,0,-1,-3,-1,-1,-2,0,-1
