timestamp,emg1,emg2,emg3,emg4,emg5,emg6,emg7,emg8
1573316860195902,-28,-10,-6,-3,-2,0,-2,-14
1573316860195902,6,4,1,2,0,0,1,4
1573316860196878,-7,1,5,1,0,-1,-3,-5
1573316860196878,5,4,-1,-3,-2,-1,0,-8
1573316860211518,14,-6,0,4,2,0,2,9
1573316860211518,0,2,0,-4,-2,-1,-2,1
1573316860218349,-2,-4,-7,-6,-4,-1,0,4
1573316860218349,-22,3,4,1,-1,-1,-2,-9
1573316860232993,17,0,-2,-2,-1,-3,-1,5
1573316860232993,1,-3,0,0,-1,-2,1,5
1573316860240797,-6,3,1,0,-2,-1,-1,-14
1573316860240797,1,2,-3,-1,-1,0,-2,8
1573316860255437,12,-8,-3,2,-1,3,-1,10
1573316860255437,-9,4,2,-1,-2,0,-1,-8
1573316860256414,-2,7,3,2,2,-1,2,-2
1573316860256414,9,4,8,2,1,2,5,11
1573316860270078,19,-5,-4,-4,-3,1,0,12
1573316860270078,-7,-5,-6,-3,-3,0,-3,-5
1573316860277885,3,-6,0,-1,-1,3,1,3
1573316860277885,-8,0,-3,0,0,0,-1,-3
1573316860292524,11,8,9,6,2,0,-2,5
1573316860292524,-6,-1,-3,-3,-2,-1,-1,-6
1573316860301308,7,-4,-8,-5,-3,-1,-2,-1
1573316860301308,7,-1,-7,-6,-3,0,0,6
1573316860314972,-16,3,5,2,4,-1,-1,-7
1573316860314972,11,-2,-1,-1,0,0,1,2
1573316860323756,9,0,0,0,-1,-2,-1,12
1573316860323756,-21,-9,-2,-6,-5,-1,7,-10
1573316860330587,17,1,-3,-3,-2,-4,-3,0
1573316860330587,-8,8,5,6,1,1,-1,-3
1573316860338396,1,-7,-6,-2,1,0,-1,-6
1573316860338396,-10,-4,-4,-3,-2,0,2,-5
1573316860353035,10,9,7,2,0,0,1,0
1573316860353035,-15,3,2,-4,-4,-2,-4,-4
1573316860360846,8,-4,-4,-1,0,-1,-1,2
1573316860360846,-1,5,2,2,2,1,-5,-2
1573316860384268,-13,-1,-1,-1,-2,1,1,-5
1573316860384268,4,-7,-7,-2,-1,0,-1,-1
1573316860385247,-2,-3,1,0,-4,-2,-3,-4
1573316860385247,5,5,2,1,2,-1,-3,4
1573316860390125,-8,3,1,-2,1,2,1,-2
1573316860390125,-11,-13,-4,-2,-2,-2,-1,-8
1573316860397932,-13,-2,-4,1,0,-1,1,-5
1573316860397932,19,-5,-2,0,0,0,2,5
1573316860412574,-20,5,1,-3,-1,-1,-1,-13
1573316860412574,-1,1,-2,-1,0,1,0,-2
1573316860421358,6,5,4,1,2,1,-1,-8
1573316860421358,1,3,-2,-3,-2,-1,0,0
1573316860435021,-8,-24,-9,1,0,-2,-3,-3
1573316860435021,5,7,9,4,0,-1,0,1
1573316860443454,0,-8,-8,0,-1,0,-1,1
1573316860443454,-7,12,12,0,1,0,0,-3
1573316860450311,13,-11,-18,-6,-2,-1,3,19
1573316860450311,1,6,-3,-6,-3,-3,-1,-3
1573316860458099,-6,3,14,3,1,-1,-2,-2
1573316860458099,14,7,-4,2,0,0,-3,4
1573316860472735,0,-4,-3,-3,-4,0,1,0
1573316860472735,1,-7,-2,2,0,0,-1,1
1573316860480544,18,3,-5,-3,-2,0,2,8
1573316860480544,-20,1,-6,-7,-6,-4,-3,-5
1573316860495182,-10,-2,7,3,1,-2,-3,-8
1573316860495182,7,11,-4,-2,1,0,-2,-7
1573316860502991,-2,14,18,-4,0,2,2,3
1573316860502991,2,-16,-11,8,6,1,-1,-3
1573316860518606,-26,-11,-9,-5,-5,-2,-3,-19
1573316860518606,0,-4,-1,-3,-7,-8,-2,5
1573316860519582,-8,-2,-5,-5,-6,-4,-3,-2
1573316860519582,8,11,11,2,0,0,1,6
1573316860532271,14,3,-2,3,17,6,2,4
1573316860532271,-12,-5,6,1,3,6,3,-3
1573316860540917,-8,-6,-20,0,-3,-5,-1,-4
1573316860540917,-8,-3,7,0,-16,-7,-2,-4
1573316860555555,-4,-16,-7,-6,-7,-5,-2,-3
1573316860555555,19,8,1,6,7,5,3,10
1573316860563362,0,8,-6,4,18,6,0,1
1573316860563362,-7,-14,-3,0,9,4,-1,-2
1573316860578977,13,12,9,6,-22,-16,-4,2
1573316860578977,-4,-5,-5,-12,-14,-4,-1,6
1573316860579953,-12,20,17,4,3,2,-2,-5
1573316860579953,12,-13,-10,-3,8,5,7,8
1573316860592646,-13,14,6,-4,-1,-5,-2,-4
1573316860592646,4,-23,-2,7,-3,-3,-1,1
1573316860602401,-19,-26,-21,-4,-1,4,-1,-9
1573316860602401,10,15,0,-1,1,-2,-4,0
1573316860615089,10,9,3,-4,3,5,6,8
1573316860615089,3,4,-3,1,4,1,-2,2
1573316860623886,9,-13,-1,3,-3,1,-2,4
1573316860623886,5,1,1,-1,3,3,5,2
1573316860637600,4,11,10,3,1,0,1,4
1573316860637600,13,10,-4,-2,4,2,-1,0
1573316860646898,-7,-6,8,13,12,6,1,-2
1573316860646898,14,-5,-2,-3,-28,-21,-3,4
1573316860652754,-35,-22,-8,-10,-36,-23,-15,-21
1573316860652754,-5,8,2,2,35,19,3,9
1573316860661544,30,16,1,4,-1,-2,7,15
1573316860661544,-21,5,2,-8,1,2,-3,-16
1573316860675200,6,-2,-2,-2,3,7,1,0
1573316860675200,4,4,-5,3,-5,-8,-5,-1
1573316860683984,-15,-14,4,1,25,11,-2,-4
1573316860683984,23,44,11,2,-4,0,2,11
1573316860697647,-24,-36,3,9,-2,-4,1,2
1573316860697647,-32,-9,-18,-14,-6,2,-9,-38
1573316860706430,19,-11,6,-3,-16,-10,0,22
1573316860706430,-18,-18,-13,-2,11,6,-3,-17
1573316860712287,22,26,1,4,1,-2,1,6
1573316860712287,4,-1,-10,-13,-22,-5,6,6
1573316860722046,-11,6,8,-6,-20,-10,-5,-7
1573316860722046,4,-3,-1,-1,-7,-2,-1,-9
1573316860734734,-16,-4,-3,10,37,18,3,3
1573316860734734,16,-1,7,7,5,2,6,20
1573316860744495,-13,26,4,-1,34,6,-5,-12
1573316860744495,6,-53,-22,-23,-88,-31,-2,16
1573316860757182,15,24,5,-3,-13,-2,-2,-24
1573316860757182,41,20,6,7,24,7,9,14
1573316860766943,-66,-48,-12,0,4,-1,-12,-22
1573316860766943,-9,12,-13,-1,28,7,1,10
1573316860772798,28,-13,8,0,0,2,6,16
1573316860772798,-7,7,12,-5,-23,-8,-9,-8
1573316860781582,20,16,-17,-5,4,0,5,16
1573316860781582,16,4,19,18,24,11,4,0
1573316860795247,-5,15,-4,-5,0,-2,1,4
1573316860795247,-12,-10,5,5,-7,-10,-9,-17
1573316860804030,14,2,-18,-9,-9,1,3,3
1573316860804030,-2,-2,14,9,-4,-8,-11,-11
1573316860817695,19,5,-4,3,29,8,5,27
1573316860817695,-11,-7,0,3,-6,-2,-2,2
1573316860826478,3,0,-6,-18,-25,9,-2,-19
1573316860826478,-15,-21,-14,-14,-15,-5,-4,-28
1573316860832334,13,17,0,1,9,5,2,6
1573316860832334,-1,-7,13,13,21,-2,0,9
1573316860842095,-2,-10,-1,-2,-22,-13,-2,-3
1573316860842095,19,11,29,13,45,31,4,9
1573316860854782,5,5,-18,-9,-43,-22,-15,-11
1573316860854782,-47,-36,-9,-7,-18,-2,-1,-31
1573316860864542,31,9,2,3,11,1,1,-10
1573316860864542,-16,1,4,9,13,-1,-6,-9
1573316860877230,11,6,-4,-3,9,7,7,15
1573316860877230,-33,-15,1,1,1,0,-5,-22
1573316860886990,2,-3,3,-1,-13,-6,1,0
1573316860886990,-17,-8,-20,-8,3,-5,-2,4
1573316860892846,-34,-8,1,4,32,1,-9,-25
1573316860892846,36,14,14,-2,-21,-2,9,31
1573316860902606,-2,-7,0,0,-20,-3,1,10
1573316860902606,18,10,-2,-3,0,-5,-2,11
1573316860915295,22,14,16,6,-6,0,5,9
1573316860915295,-11,-4,-10,-2,7,-2,-3,4
1573316860924078,10,-7,4,3,2,-10,-2,5
1573316860924078,-24,-9,-1,0,21,1,-4,-7
1573316860937743,10,3,3,-3,-44,-11,0,8
1573316860937743,7,2,-6,-3,2,4,-6,-29
1573316860946526,8,17,17,5,4,1,-2,-12
1573316860946526,7,4,-3,-1,5,5,10,12
1573316860952382,-16,7,-16,-13,5,-8,-12,-17
1573316860952382,-20,-25,1,10,9,-3,-2,-9
1573316860961167,15,3,-4,-1,-6,6,5,6
1573316860961167,14,8,1,-2,-3,0,1,8
1573316860974831,-15,-13,17,4,3,13,5,1
1573316860974831,53,29,2,3,6,-1,11,40
1573316860984590,-23,-15,-10,-3,17,-2,-14,-30
1573316860984590,67,8,3,-3,-26,8,19,41
1573316860997278,-85,-30,-11,-8,0,-7,-21,-61
1573316860997278,35,13,0,-2,-7,-4,-1,3
1573316861007038,-10,1,4,6,21,1,5,12
1573316861007038,12,24,12,8,-4,2,7,10
1573316861012894,-7,-16,-14,-11,-22,-2,-1,-2
1573316861012894,7,6,1,1,17,7,5,14
1573316861021679,0,3,3,2,4,-6,-4,-17
1573316861021679,-46,-23,-20,-7,-16,-10,-9,-17
1573316861035342,41,17,8,-2,-15,-3,9,18
1573316861035342,-35,-25,6,0,-5,1,-6,-14
1573316861051934,-1,9,2,-5,-11,-1,-2,-1
1573316861051934,-2,-6,-4,0,11,-1,3,-2
1573316861057790,33,11,5,10,25,7,7,18
1573316861057790,-5,14,-13,-4,-15,-6,-4,5
1573316861066574,55,11,8,2,8,10,14,38
1573316861066574,-80,-38,-6,1,14,-8,-13,-38
1573316861081214,32,4,11,17,20,8,9,30
1573316861081214,-40,-20,-50,-46,-54,-11,-15,-32
1573316861083166,7,22,41,20,-4,-6,4,15
1573316861083166,-11,4,2,0,-9,-2,-4,-16
1573316861094878,-9,-11,-15,-7,0,-18,-8,-6
1573316861094878,34,13,17,11,13,12,13,31
1573316861103662,-33,-15,-24,-16,-8,0,1,-12
1573316861103662,6,-6,-24,-16,-9,2,4,0
1573316861117327,-36,-8,21,11,11,4,-14,-43
1573316861117327,51,6,-15,-9,3,-3,9,26
1573316861127087,-9,3,15,22,11,1,-1,-22
1573316861127087,-13,2,20,15,-1,1,-6,-8
1573316861132943,-40,-15,-14,-9,-7,-4,-6,-22
1573316861132943,9,-4,-7,1,1,-13,-10,-32
1573316861141726,17,14,16,13,8,15,17,38
1573316861141726,-4,13,-17,-12,2,9,4,0
1573316861155389,-36,4,30,13,4,0,-6,-10
1573316861155389,-13,-6,20,30,32,9,5,-12
1573316861164173,12,-11,-35,-33,-15,-7,0,15
1573316861164173,-55,-33,-24,-22,5,-19,-30,-62
1573316861177838,59,19,7,4,-45,-18,6,29
1573316861177838,-39,12,-3,-34,-14,10,11,17
1573316861186621,4,-5,42,69,39,8,-3,-12
1573316861186621,8,-3,-15,-25,-19,-4,-4,12
1573316861192478,22,0,-32,-44,11,15,6,1
1573316861192478,33,13,18,18,-15,-9,1,16
1573316861202238,-29,-27,-34,-32,-23,-12,-10,-9
1573316861202238,103,38,23,14,14,6,10,40
1573316861214925,6,-37,-46,-45,-24,-8,-10,-16
1573316861214925,31,21,15,23,20,3,-1,14
1573316861223710,-47,-8,-18,-23,-14,-3,-11,-27
1573316861223710,27,6,14,21,5,4,9,25
1573316861238349,0,14,5,3,2,3,4,13
1573316861238349,-62,-29,-7,-12,-4,-6,-14,-30
1573316861246159,26,14,0,5,15,6,4,7
1573316861246159,-24,-10,-5,-7,-27,-10,-2,-5
1573316861252992,20,12,10,5,4,6,6,11
1573316861252992,-30,-5,6,3,4,-3,-7,-18
1573316861261774,17,-5,-10,2,14,6,3,18
1573316861261774,36,22,14,8,3,14,20,44
1573316861275438,-91,-55,-17,7,7,-9,-19,-46
1573316861275438,31,21,7,0,10,3,4,17
1573316861284221,-4,-5,4,-4,-19,-9,-5,-9
1573316861284221,-5,-3,-5,-2,6,1,0,4
1573316861297885,46,21,14,27,36,19,2,10
1573316861297885,7,-6,-3,-10,-68,-36,-17,-39
1573316861306670,42,20,0,-13,-17,1,14,45
1573316861306670,-27,-1,8,-3,5,-6,-9,-12
1573316861312526,42,7,5,14,26,16,22,51
1573316861312526,-15,-3,-2,6,15,3,-9,-42
1573316861321310,16,-1,-2,-7,-10,-6,-6,-5
1573316861321310,1,1,3,5,-5,-4,1,6
1573316861334973,-29,2,2,-3,5,1,-2,0
1573316861334973,8,0,-2,-2,10,10,2,6
1573316861343758,52,22,7,3,-10,-6,9,27
1573316861343758,2,-17,-10,1,15,6,-19,-73
1573316861357421,-15,-11,-10,-11,-22,-6,5,19
1573316861357421,5,13,2,4,16,5,0,-3
1573316861366206,-20,-37,-11,-6,-10,1,-8,-22
1573316861366206,17,14,8,-1,-13,-7,1,14
1573316861373038,20,11,6,4,-9,2,3,1
1573316861373038,-1,1,-5,-6,11,6,3,8
1573316861381822,-29,-2,-1,1,-10,-5,-7,-18
1573316861381822,-8,-3,-6,-2,-1,2,2,7
1573316861395486,-4,-1,-1,1,-6,-10,-5,-12
1573316861395486,87,20,10,7,16,15,15,49
1573316861404270,-39,-16,2,-3,1,-4,-5,-9
1573316861404270,2,-8,-2,0,-12,-8,-5,-8
1573316861417933,12,4,-2,-2,-2,0,1,-2
1573316861417933,13,7,3,-1,3,3,8,24
1573316861426717,-11,2,-5,-4,6,0,-7,-26
1573316861426717,-30,-8,-3,3,-2,-6,-7,-13
1573316861432573,45,13,8,4,10,-4,6,24
1573316861432573,-101,-33,-20,-13,-28,-3,-9,-28
1573316861441356,-4,3,-2,-7,4,1,-1,-13
1573316861441356,-8,0,-1,-4,1,4,2,2
1573316861455020,2,2,8,5,9,4,3,-1
1573316861455020,-2,-8,-1,-1,-1,-2,2,21
1573316861463805,-6,0,-6,-3,-1,-3,-6,-23
1573316861463805,12,9,4,3,2,2,4,21
1573316861477469,-6,-5,1,2,-4,-1,-4,-4
1573316861477469,-12,-5,0,1,11,-1,-5,-13
1573316861494061,16,7,5,0,-19,-3,-1,5
1573316861494061,1,-3,-5,-3,4,4,5,7
1573316861501869,-35,-16,-8,-4,-11,-12,-12,-19
1573316861501869,0,-2,-1,-3,-4,3,2,4
1573316861503821,7,4,-7,-5,2,0,8,15
1573316861503821,0,7,8,6,8,-3,-4,-1
1573316861515533,21,5,11,2,-12,1,-1,-12
1573316861515533,-21,-13,-4,-1,7,-7,-9,-22
1573316861531149,-19,-3,-4,-5,-22,-8,-1,5
1573316861531149,34,5,1,0,3,6,5,8
1573316861537981,-35,-8,-10,-8,0,-1,-5,-10
1573316861537981,20,9,5,6,5,-1,1,12
1573316861544814,-16,-6,-1,-2,7,1,-4,-13
1573316861544814,-11,-4,0,4,12,-4,-2,2
1573316861562382,15,2,-11,-12,-26,-4,0,6
1573316861562382,-6,-4,4,5,9,1,2,-8
1573316861567262,-13,2,4,5,11,2,-1,6
1573316861567262,3,-4,0,-5,-29,-6,-1,-4
1573316861575070,-3,-1,-14,-7,7,1,2,1
1573316861575070,14,4,17,8,-14,-2,2,4
1573316861591661,-5,-5,-8,-7,9,2,-3,-13
1573316861591661,-26,0,-3,-6,16,14,3,-11
1573316861598492,0,0,18,28,5,-10,-6,0
1573316861598492,1,-12,1,3,5,5,12,30
1573316861605325,0,4,-4,1,7,1,-3,-11
1573316861605325,5,-5,2,2,-1,3,0,12
1573316861621917,19,10,-5,-2,25,10,9,15
1573316861621917,1,2,3,-4,-27,-6,-5,11
1573316861622893,-12,-4,-6,-11,-31,-13,-1,-10
1573316861622893,4,-1,-15,-11,0,-1,2,-7
1573316861635580,-10,5,27,25,12,7,2,-5
1573316861635580,1,-12,-33,-30,-10,-13,-14,-10
1573316861644365,-6,-7,5,-12,-7,-1,-4,-2
1573316861644365,18,10,11,18,2,-5,-1,5
1573316861658028,-6,0,-10,-9,-3,-6,-4,-1
1573316861658028,-11,1,-20,-17,14,10,4,-15
1573316861666813,16,-13,14,33,3,5,4,19
1573316861666813,-13,-7,-7,-9,-7,-5,-4,-7
1573316861681453,5,-7,-19,-27,-10,-1,-2,-2
1573316861681453,-4,20,32,34,17,11,7,0
1573316861683405,4,-3,-16,-16,-3,2,2,11
1573316861683405,17,5,17,29,16,1,2,7
1573316861695117,0,1,-11,-12,-4,4,2,-5
1573316861695117,12,2,-5,-18,-19,-5,-4,1
1573316861703901,26,21,16,17,21,4,4,19
1573316861703901,-27,-25,-3,-1,-9,-4,-4,-12
1573316861717566,12,5,-1,-10,-8,-1,-1,3
1573316861717566,1,0,-1,5,13,3,3,-6
1573316861726349,22,7,3,1,-2,-1,2,1
1573316861726349,26,8,-10,-12,10,10,4,8
1573316861741975,-26,-5,6,6,-16,-9,-6,-14
1573316861741975,7,-3,0,6,4,0,-1,0
1573316861742941,-25,-8,-10,-8,2,-4,-5,-14
1573316861742941,11,6,6,3,14,3,0,4
1573316861754654,-1,5,12,-5,-24,-7,3,17
1573316861754654,-24,-30,-22,1,-11,-10,-12,-52
1573316861764413,12,6,-6,-7,5,2,4,30
1573316861764413,-15,-14,-10,-5,-9,-9,-13,-52
1573316861778079,13,7,13,10,13,11,11,30
1573316861778079,-5,-1,-9,-11,-4,-4,-11,-34
1573316861793693,53,31,6,-4,-4,-3,7,40
1573316861793693,-34,-16,1,4,-4,-4,-12,-37
1573316861801500,17,-1,-3,-4,2,-1,1,12
1573316861801500,6,8,-2,-7,1,4,6,23
1573316861810285,-19,0,12,7,-8,-2,-1,-6
1573316861810285,9,4,-5,-3,-7,-4,0,24
1573316861815164,1,1,6,2,-2,-1,2,10
1573316861815164,9,-5,3,6,13,4,0,3
1573316861823948,-13,-7,-1,1,4,3,0,-3
1573316861823948,-7,4,-2,-5,-10,-8,1,1
1573316861837613,43,14,2,3,9,7,6,15
1573316861837613,-40,-9,-2,-1,-8,-7,-2,-6
1573316861846396,-10,-4,-3,-7,7,12,4,1
1573316861846396,-9,-2,-2,-1,-19,-17,-15,-33
1573316861863965,9,-5,-8,-2,2,0,0,2
1573316861863965,7,10,7,1,7,3,8,37
1573316861863965,0,-5,0,0,-3,-3,-7,-26
1573316861863965,15,6,1,-5,0,5,6,16
1573316861874701,-23,-10,-6,0,10,3,0,-1
1573316861874701,0,-4,-4,-5,-11,-4,-8,-28
1573316861884460,-8,-5,-3,2,7,-4,-3,-13
1573316861884460,-10,-3,-3,-9,-5,-1,9,27
1573316861898124,-6,0,-3,-1,-2,0,5,27
1573316861898124,-15,-3,4,5,7,-2,-16,-59
1573316861912765,10,-6,-1,1,-7,-4,-4,-1
1573316861912765,-13,-5,-9,-10,2,8,11,36
1573316861921548,-6,-5,-1,0,-7,-6,-11,-41
1573316861921548,22,5,3,1,1,3,11,39
1573316861923500,-24,-3,-6,-6,-8,-6,-1,5
1573316861923500,-10,-4,-2,1,6,5,3,7
1573316861935214,-13,-6,1,4,8,3,-4,-18
1573316861935214,19,6,5,5,0,-2,7,20
1573316861943998,-13,-7,-12,-13,-14,-6,-4,-11
1573316861943998,7,16,6,4,-1,3,4,16
1573316861957660,-5,-12,-1,4,8,1,-3,-10
1573316861957660,13,5,3,-2,-3,-2,1,12
1573316861966444,-2,1,6,6,16,5,-6,-23
1573316861966444,5,2,2,0,-14,-5,-5,-8
1573316861981087,2,4,5,6,0,-1,-4,-14
1573316861981087,-35,-8,-5,-4,-3,-1,-4,-14
1573316861983036,14,5,4,4,-4,0,1,6
1573316861983036,2,1,4,-2,5,0,-5,-11
1573316861994747,-17,-14,-12,-10,-10,-7,-9,-24
1573316861994747,-11,0,5,-3,-6,-2,8,22
1573316862004508,11,5,1,2,1,1,4,7
1573316862004508,3,-1,1,1,7,0,0,9
1573316862017196,2,0,-4,-3,0,0,3,8
1573316862017196,1,5,-4,-1,-3,-4,-4,-4
1573316862026956,-34,-14,-5,-6,-12,-8,-8,-25
1573316862026956,-8,-5,-1,0,3,1,-5,-15
1573316862041601,38,14,3,1,2,4,12,35
1573316862041601,2,-4,-3,1,2,-7,-7,10
1573316862043549,-30,-7,-3,-4,6,2,-8,-39
1573316862043549,73,25,13,11,-10,-4,14,52
1573316862055265,-97,-19,2,-5,-7,-10,-16,-50
1573316862055265,33,-13,-30,-12,2,2,-1,1
1573316862071853,20,20,27,19,8,1,3,0
1573316862071853,-44,-17,-15,-10,2,-2,-6,-18
1573316862077710,-5,0,-2,-3,2,4,-2,-16
1573316862077710,10,6,9,5,-9,2,6,8
1573316862086492,-11,-13,-32,-23,-13,-3,-8,4
1573316862086492,29,24,26,18,25,6,4,2
1573316862108944,-45,-30,-4,1,-1,-12,-14,-39
1573316862108944,-19,-6,-6,-7,-10,-3,-3,-7
1573316862110895,38,8,1,2,13,8,9,10
1573316862110895,-12,0,-6,-2,-3,1,-2,-5
1573316862114797,13,11,5,6,6,7,9,20
1573316862114797,47,8,4,-1,-2,9,15,27
1573316862131389,-9,7,-35,-40,-24,-18,-21,-14
1573316862131389,0,-22,20,24,14,9,8,16
1573316862137245,-6,-1,-10,-11,-8,0,-4,-21
1573316862137245,-16,-4,-4,-6,4,1,-3,-17
1573316862147005,9,15,13,13,-2,7,12,23
1573316862147005,-18,-3,-7,-13,-9,-6,-10,-29
1573316862161644,64,28,21,21,12,3,8,35
1573316862161644,-46,-22,-10,-5,1,-1,-6,-19
1573316862162619,7,-8,-6,-7,5,5,4,7
1573316862162619,2,9,12,26,10,-3,-7,-7
1573316862175308,5,-1,-4,-1,0,0,4,5
1573316862175308,7,11,-1,-2,0,0,0,4
1573316862191902,-20,-10,9,10,4,-2,-4,1
1573316862191902,5,-5,-10,-12,-11,0,2,-2
1573316862197759,8,1,-8,-6,0,-1,-1,6
1573316862197759,-4,3,8,7,-3,-7,-8,-2
1573316862207518,3,-8,-1,1,2,-1,3,8
1573316862207518,-9,2,-3,-12,-1,1,2,-4
1573316862221183,2,-7,-11,-8,-11,-6,-5,-1
1573316862221183,-4,1,1,-5,-5,-4,2,1
1573316862228012,6,4,17,14,9,3,2,3
1573316862228012,2,11,0,-13,-7,1,-2,-4
1573316862234844,14,0,-2,4,-2,1,4,10
1573316862234844,23,-3,-1,6,6,2,4,13
1573316862244605,-28,-7,-8,-3,-1,-2,-2,0
1573316862244605,-21,-13,-12,-4,0,-5,-11,-33
1573316862257291,17,13,21,4,4,4,7,28
1573316862257291,36,14,5,2,4,1,0,-7
1573316862267052,2,-5,3,10,11,0,3,6
1573316862267052,9,-19,-23,-23,-22,-7,1,16
1573316862280715,31,15,-5,-15,-14,-6,16,70
1573316862280715,-30,-12,-2,9,-2,-10,-39,-101
1573316862287553,24,8,8,4,5,4,4,29
1573316862287553,0,7,5,8,14,4,3,15
1573316862295356,-21,-18,-17,-12,-26,-9,-10,-26
1573316862295356,9,16,9,-2,1,4,17,47
1573316862310000,-5,-9,-3,-3,-3,-5,-4,-15
1573316862310000,-4,-1,-3,1,3,-3,-3,-6
1573316862317807,30,15,8,8,9,7,6,5
1573316862317807,-91,-28,-8,-11,-8,-4,-1,-3
1573316862326589,8,2,1,6,0,-2,-6,-12
1573316862326589,-1,-6,-7,-5,-2,-3,0,0
1573316862349039,-1,7,5,3,3,3,-2,-11
1573316862349039,20,7,1,2,0,2,8,24
1573316862350988,-10,-7,-4,-5,-6,-4,-6,-12
1573316862350988,-3,2,0,4,4,2,3,9
1573316862354891,-8,1,-2,-1,4,0,-7,-31
1573316862354891,9,-13,1,5,3,4,8,24
1573316862363675,-4,-6,-5,-6,-9,-5,-5,-17
1573316862363675,7,4,1,-1,-6,-2,1,1
1573316862377340,2,-2,0,6,6,1,1,-8
1573316862377340,8,9,6,-2,-4,-3,2,16
1573316862387102,15,4,1,3,4,4,7,19
1573316862387102,-11,-4,2,1,-2,-1,-5,-15
1573316862400764,3,-7,-10,-8,-3,-1,2,14
1573316862400764,3,10,5,3,7,2,-2,-7
1573316862407597,-2,-3,-1,4,8,-1,1,-2
1573316862407597,12,5,-4,-11,-35,-6,0,1
1573316862424187,-27,-5,2,5,6,0,-4,-8
1573316862424187,11,1,-1,-1,-2,-2,-8,-10
1573316862425163,-15,-4,-3,-3,5,2,-6,-12
1573316862425163,-2,-7,-6,-1,7,-1,1,13
1573316862437874,-13,-4,3,2,-3,-4,-7,-34
1573316862437874,40,14,5,3,2,4,8,19
1573316862446640,-52,-23,-16,-10,-7,-5,-7,-7
1573316862446640,-4,0,-1,3,9,0,-1,2
1573316862460299,-2,0,-5,-6,-9,-2,-5,-3
1573316862460299,8,3,3,1,4,3,5,6
1573316862469083,12,7,6,3,-2,1,4,-1
1573316862469083,6,1,0,2,4,1,0,3
1573316862483728,-16,-12,-5,-2,5,0,-4,-6
1573316862483728,-9,4,1,-1,-3,0,-1,-3
1573316862485675,11,6,4,-3,-6,0,4,13
1573316862485675,2,-4,1,1,1,0,-5,-8
1573316862497392,-24,-10,-11,-6,-2,-2,-3,-2
1573316862497392,-4,-3,4,4,-1,-3,-3,-3
1573316862506175,12,4,0,1,5,2,-1,-2
1573316862506175,6,6,2,1,-5,-3,0,0
1573316862520817,4,-4,-1,-2,-13,-3,-1,6
1573316862520817,-3,-2,-2,-1,1,-2,-3,-1
1573316862527644,4,2,0,-2,-1,-2,0,3
1573316862527644,-34,-7,-3,-2,-5,-4,-6,-14
1573316862544236,0,-2,-5,-2,6,1,0,0
1573316862544236,-15,-3,1,0,-3,-2,0,-4
1573316862545212,21,9,3,2,-2,0,4,12
1573316862545212,5,-2,-5,-2,2,1,-1,-2
1573316862557902,-1,1,3,2,1,1,0,-2
1573316862557902,-1,-2,-4,-4,0,0,0,-1
1573316862566688,-1,4,3,5,1,1,0,-1
1573316862566688,0,-4,5,0,1,-2,0,4
1573316862581331,-10,-7,-1,1,3,-1,-3,-11
1573316862581331,3,-3,-7,-5,-3,0,-1,3
1573316862587180,-2,-1,-2,-3,-3,-3,-1,3
1573316862587180,-1,0,0,-3,1,-1,1,1
1573316862604749,10,2,2,0,2,0,2,10
1573316862604749,-3,-3,-1,1,1,0,-2,0
1573316862605723,-4,-5,-4,-2,-1,-1,-1,-8
1573316862605723,2,4,5,0,1,2,-1,1
1573316862617435,3,2,1,-2,3,1,1,5
1573316862617435,4,1,0,-1,-2,-3,-12,-12
1573316862627198,-3,-5,-2,2,-1,0,2,4
1573316862627198,12,-1,-5,-5,-1,0,-1,2
1573316862640860,0,2,1,-1,0,0,0,-2
1573316862640860,-8,-1,0,-1,-1,-2,0,-4
1573316862647691,4,8,4,2,0,-1,1,3
1573316862647691,5,-5,-3,0,-3,0,-2,-6
1573316862664282,0,2,1,1,0,-1,-1,-5
1573316862664282,-4,-5,-5,-4,-1,0,1,2
1573316862665261,1,2,3,0,-1,1,-2,-4
1573316862665261,1,-2,0,1,0,0,1,2
1573316862677947,4,0,0,-2,-2,0,0,-1
1573316862677947,-4,-2,-2,-1,1,-2,1,-1
1573316862686730,-1,-3,-3,-5,-1,-1,-1,-1
1573316862686730,-6,1,-1,1,0,0,0,-2
1573316862700398,0,0,2,4,4,3,1,5
1573316862700398,18,24,7,5,4,0,2,6
1573316862707231,-32,-33,-13,-7,-7,-7,-15,-19
1573316862707231,-6,-8,-1,-1,1,0,1,-2
1573316862724803,-1,-2,-3,-4,-4,-1,-2,-4
1573316862724803,1,-3,-4,-3,-2,-1,3,8
1573316862726749,8,12,6,4,1,1,4,5
1573316862726749,3,-2,-3,-2,-2,-1,-1,-5
1573316862737484,-4,-3,3,2,2,1,-3,-4
1573316862737484,-4,-4,2,1,0,0,0,-3
1573316862746268,8,10,-1,-1,0,1,1,5
1573316862746268,-6,-7,-6,-3,-1,-1,-2,-3
1573316862760907,-5,-9,-4,-5,-2,-1,3,2
1573316862760907,-7,1,2,5,1,-2,-2,-2
1573316862767739,4,0,3,2,1,0,3,5
1573316862767739,7,10,4,1,-1,-1,1,8
1573316862784336,5,4,-11,-6,-3,-4,0,-5
1573316862784336,-24,-25,-7,-3,-1,1,-5,-6
1573316862785307,16,6,0,1,-4,-2,-3,1
1573316862785307,22,26,12,3,5,4,6,9
1573316862797999,-13,-13,-5,-3,-2,-1,-2,-4
1573316862797999,-22,-11,-1,-3,-3,-3,-4,-16
1573316862806779,7,5,0,4,2,3,6,13
1573316862806779,-15,-19,-6,-2,1,0,-3,-8
1573316862821425,3,13,13,8,1,1,-4,-3
1573316862821425,46,25,-13,-9,-5,-2,1,11
1573316862827275,-20,-23,0,-4,-2,-2,-1,-11
1573316862827275,-36,7,3,5,2,-1,-3,-8
1573316862843873,-43,-49,-10,-1,-3,-1,-2,-10
1573316862843873,12,25,4,-2,-1,2,2,0
1573316862845820,-33,-23,-1,-3,-1,-2,-2,-7
1573316862845820,19,-2,-16,-5,-3,-1,-3,0
1573316862857532,-9,-7,4,-1,2,2,-8,0
1573316862857532,0,5,-7,-1,-4,-3,-1,2
1573316862866321,9,15,7,4,1,2,1,-4
1573316862866321,-27,-22,1,1,2,1,-4,-9
1573316862880955,-1,6,-1,2,1,0,0,5
1573316862880955,23,8,4,1,0,-1,1,-5
1573316862887786,5,9,-3,-1,-3,-3,-4,-9
1573316862887786,-14,-6,3,-2,-6,-4,0,-1
1573316862904378,38,24,-1,-1,-2,-3,1,2
1573316862904378,-2,-1,3,-1,0,1,-3,2
1573316862905355,-31,-30,-12,-5,-3,-1,-3,-8
1573316862905355,16,29,11,4,1,2,2,7
1573316862918042,-25,-34,-9,1,2,-4,-10,-9
1573316862918042,18,15,6,1,1,0,0,-2
1573316862926827,2,1,-3,-2,-2,0,0,8
1573316862926827,3,-1,-5,-3,-2,-1,-3,-6
1573316862940494,5,12,3,-5,-1,0,6,5
1573316862940494,10,8,-3,2,5,1,1,6
1573316862947324,-38,-35,-5,1,0,-2,-3,-10
1573316862947324,21,1,-4,-4,-5,-5,-2,-3
1573316862963915,9,5,1,-2,-2,-1,0,4
1573316862963915,-39,-29,-9,-6,-6,-3,-3,-8
1573316862965867,27,25,-1,-4,2,0,5,8
1573316862965867,16,9,8,7,4,1,2,6
1573316862977579,1,-4,-3,-2,1,-1,0,-8
1573316862977579,-5,12,3,-2,-2,0,0,-11
1573316862986362,-17,-15,-4,-4,0,2,7,1
1573316862986362,-9,-17,-9,-7,-3,-2,-2,-3
1573316863001002,4,13,7,2,1,2,1,4
1573316863001002,0,-8,3,2,2,2,3,11
1573316863007834,29,27,4,1,1,0,5,12
1573316863007834,-11,-11,-5,-3,-1,1,0,2
1573316863024425,9,10,-3,-2,-2,0,0,0
1573316863024425,-16,-17,-3,-3,0,3,1,-3
1573316863025402,15,0,-1,0,-2,1,-2,3
1573316863025402,-6,-4,0,2,1,-2,-2,-17
1573316863038094,-2,3,-1,-1,1,0,-4,-4
1573316863038094,6,-8,1,2,-1,-1,2,23
1573316863046877,8,11,3,1,1,0,-1,-2
1573316863046877,2,-8,-2,-2,0,1,-8,3
1573316863082987,21,13,3,1,-2,-2,3,13
1573316863082987,-32,-15,-4,-1,0,4,-5,-28
1573316863092746,7,7,0,0,-6,-5,2,6
1573316863092746,4,3,2,0,2,14,1,10
1573316863098607,-2,1,1,1,-3,-23,-5,-8
1573316863098607,11,-3,0,-1,0,7,6,23
1573316863099578,-9,0,-4,-4,-1,9,11,-8
1573316863099578,-9,2,2,1,4,-8,-6,-2
1573316863106414,18,-2,1,0,-1,13,9,37
1573316863106414,3,9,1,2,3,-3,-6,1
1573316863108362,22,6,4,2,0,-4,-8,10
1573316863108362,8,12,3,2,2,1,5,12
1573316863142523,-7,-17,-4,0,-1,-1,-5,-3
1573316863142523,-6,-5,-3,-2,-5,-10,-1,-15
1573316863153261,-2,2,0,1,1,1,-3,-5
1573316863153261,-7,3,-1,-1,-2,-2,-5,-14
1573316863166924,9,9,2,1,2,3,4,9
1573316863166924,-4,-5,-1,-1,-1,0,2,-7
1573316863167900,-12,-6,-2,-1,-3,-4,-6,-10
1573316863167900,16,-1,-4,-2,-3,-2,9,12
1573316863180586,-8,3,-2,-2,-1,-1,-2,-15
1573316863180586,-1,-6,-2,-1,1,-2,2,7
