timestamp,emg1,emg2,emg3,emg4,emg5,emg6,emg7,emg8
1570181837938209.0,3.150175182064898,2.28807103752106,0.19695403575030102,2.988537241526413,0.3984333736525636,1.6659605203644965,1.9070428044989638,1.625673291010977
1570181837938209.0,2.8581004892577955,2.005913718050872,0.5771448149028947,2.415808211805876,0.5376381154782531,1.5311478982792712,0.6234031070922827,1.5848291905044611
1570181837942715.0,2.8268210639622273,1.9884338807894597,0.6314593285813948,2.3275852546103,0.5763703898648035,1.5754027113474576,0.5629952066101889,1.6915966041587784
1570181837942715.0,2.7254712127772875,1.8919405427154201,0.771294344674348,2.1487125321652294,0.7150706023496725,1.5569457079921813,0.12295594537927496,1.9347798661566207
1570181837944667.0,2.7087429279050794,1.8806074446360461,0.8046965357547675,2.0733578021836734,0.7471366531360644,1.5987361377441296,0.13213341009940238,2.0471094374486043
1570181837944667.0,2.6513750445416386,1.823034704758668,0.8899399652456205,1.962023769269782,0.8444726288500886,1.6009639372254936,0.21234878414628888,2.256673266803565
1570181837946765.0,2.645086459171856,1.8175903569314298,0.914144641734572,1.9002638227118656,0.8734162931931746,1.6344497059770815,0.2666887796663495,2.352398747685119
1570181837946765.0,2.610232752720872,1.7803123842188862,0.9769486600077233,1.8224731713642108,0.9486681200811371,1.6373984551323564,0.42504534719589715,2.5243732893757227
1570181837948762.0,2.613095425060308,1.7799681355838985,0.9978451997026827,1.7701214975849504,0.9705039451263014,1.664233087490138,0.4591452800646033,2.6144964940226862
1570181837948762.0,2.594041397885053,1.7534408381701447,1.0448615815719904,1.7065543365353233,1.0260097877713472,1.672643061104065,0.5860434487578338,2.7730330793348847
1570181837960617.0,2.600377722829252,1.7524968457197565,1.0583650458883267,1.660138035865228,1.0425101606465264,1.702040421695001,0.6165400235677974,2.8614432339308546
1570181837960617.0,2.5801207758355145,1.7273929181169783,1.0949413269831778,1.6085273965744116,1.0894273143450819,1.7155419814014596,0.7237150512008218,2.989962828720067
1570181837972587.0,2.5750379501347,1.723164985122836,1.1064681500315763,1.5679072251571873,1.10487799385989,1.7434999082935334,0.7475386341323539,3.054381236212795
1570181837972587.0,2.5507402777086234,1.6985809498091564,1.1372294775070497,1.5243931604329448,1.1447548627150574,1.7557628627873492,0.833477211348825,3.166254881415876
1570181837980564.0,2.5445867978156094,1.6932206076695508,1.1474703938442683,1.4910847911113705,1.159907142003203,1.779901775211571,0.8509349196582147,3.235920695188753
1570181837980564.0,2.525937692470653,1.6747584786028602,1.1754179051804918,1.4567603645066975,1.1953279884748627,1.7901071851989037,0.921999068379154,3.34547963925972
1570181837987657.0,2.527307839702322,1.6760141389835246,1.1864380366523615,1.43211832229741,1.2055901086545666,1.8100612297550425,0.9359064932554215,3.4134355308197915
1570181837987657.0,2.519124654795707,1.6647609827946277,1.2114078326183975,1.4076936107919666,1.2313273261542195,1.8225556838244203,0.9994020077971703,3.5210922176499686
1570181838009647.0,2.5278201254240096,1.669445548635444,1.221637593718252,1.390858013998562,1.2352086575995838,1.8477769524824792,1.0156225320435135,3.6001404685670355
1570181838009647.0,2.5265012929124113,1.6604419268776751,1.245470361107557,1.3714888688486029,1.2537251285205404,1.8645606440766391,1.0741185528056219,3.7148627031622885
1570181838010484.0,2.537957856897468,1.6629697922486026,1.2536881399861086,1.3539640475247463,1.2562137901404553,1.8896031617570686,1.087916411817771,3.7983114422139437
1570181838010484.0,2.536778004417658,1.6524715549933795,1.2688408313414643,1.33185480589801,1.2735386806487043,1.90777245253874,1.1393561241489873,3.9072684296504345
1570181838057358.0,2.5441742421587965,1.654832730419439,1.2696945442876622,1.311890323289978,1.2761709059677608,1.9363323143869813,1.1528483359674226,3.9850333141060124
1570181838057358.0,2.539524857411113,1.647573373101786,1.2794496610943924,1.2888183186662625,1.2905246666765955,1.9593890686917073,1.2011242443782768,4.083935994097225
1570181838057804.0,2.545925371469587,1.653646847008378,1.277918018011929,1.2671651277747396,1.2908749050158457,1.9919401297072878,1.2164394943156214,4.158785188673472
1570181838057804.0,2.544725206974065,1.6511916652404626,1.2860829104503775,1.2426883995848788,1.3042855319584494,2.0213150233534605,1.264604426326318,4.260944162430433
1570181838058355.0,2.55387056099491,1.6595429093356,1.2855133713371711,1.2181297600412742,1.3066955065137702,2.0588007194712823,1.2824756544865101,4.345490161661693
1570181838058355.0,2.5550364979110864,1.659307705667296,1.2939954127035846,1.1909620141782205,1.3198340843237268,2.0901879564560666,1.3283333517197813,4.456683341319124
1570181838062700.0,2.565155107892761,1.6694847179332675,1.295285461205778,1.1686231313405702,1.3227981450078872,2.127665945949204,1.3450855251412281,4.555200479905845
1570181838062700.0,2.5679872739021175,1.6691768975189978,1.3049024573147037,1.1481606034780996,1.3340961651558367,2.161108160053904,1.3870425626046434,4.677720635456923
1570181838068475.0,2.5774725123558926,1.6777724227891742,1.3040189687309438,1.1326502066780626,1.3323016945372947,2.2006284366166913,1.4033930466487332,4.78336457801148
1570181838068475.0,2.568357574359555,1.6791928403036511,1.3091574943323698,1.1184844720167793,1.3379594069519052,2.2359282820103172,1.4394401559093761,4.8874950702351425
1570181838077306.0,2.549577119759639,1.6895872155518037,1.3092915614442195,1.1116112496268387,1.3340149857246886,2.2788823977800354,1.4456600988119135,4.942207141130205
1570181838077306.0,2.518683254526309,1.6924346270946393,1.318884258062503,1.1061448258069455,1.3385057350774747,2.31938543619547,1.470223523326445,4.989800276858788
1570181838083288.0,2.5016930763239094,1.7029428957734105,1.3242963897085651,1.106883389463564,1.3370837399632505,2.3651004108635627,1.4757538769104326,5.022555628079191
1570181838083288.0,2.485720930544501,1.7043715211060635,1.337685461347617,1.1052761002176483,1.3476539732319182,2.4072326039492817,1.501166503758272,5.063114366464359
1570181838100541.0,2.4739130139095042,1.7139070466126913,1.3428511832392989,1.1068469825039922,1.3532810704571772,2.4518802613752966,1.507927911123177,5.075380501441697
1570181838100541.0,2.446578571253178,1.718204182314263,1.3499241007034222,1.1029842616907077,1.3660666687021303,2.4881867362608,1.5283670985328632,5.0605449902250035
1570181838106297.0,2.4222236890857083,1.731432459757031,1.3488669353445581,1.0963777092007196,1.3693249335009527,2.5237673603441486,1.5275906379538373,5.0045644381743095
1570181838106297.0,2.3981020285499786,1.7389419440468787,1.3535852956009735,1.082680995174612,1.378529274306451,2.553343952193883,1.5407985002961637,4.95399921161117
1570181838129280.0,2.387486069004576,1.7542064189469344,1.3531286947355168,1.0724844082965017,1.380794618348506,2.5765302099842327,1.5383466514366548,4.903027805405821
1570181838129280.0,2.3779134079337205,1.7604856844593588,1.3582921804680268,1.0597806211313565,1.389502621175111,2.580141529997772,1.5465621687695035,4.858517367565416
1570181838130417.0,2.374977840229118,1.7712600006316015,1.359381888824074,1.0481561877852932,1.3887384177379114,2.5740175912499987,1.5360740344512847,4.809410185625047
1570181838130417.0,2.3651799250555143,1.7767289869318674,1.3660203990742426,1.0333528036873725,1.388728822642508,2.5575156567756756,1.5342843368882473,4.769129075380698
1570181838144134.0,2.363692328886792,1.78962407933564,1.3654369488446285,1.022805256719139,1.3802058106380235,2.5275060352339804,1.518598332714989,4.731408842528668
1570181838144134.0,2.3592281400992015,1.7957112608827315,1.3660744773171876,1.011696516962139,1.3749013601906932,2.4753045292353097,1.5130897994808976,4.703699765302071
1570181838145133.0,2.3594433100654886,1.8043732518261264,1.3605830759439161,1.005734451150171,1.3610622643168753,2.4115805757242628,1.4942524199873635,4.666925350568539
1570181838145133.0,2.355682006598384,1.8054550495692867,1.3598278257889622,0.9996785918410728,1.3487576990861623,2.3468750043642594,1.4855858396646173,4.6418029023105065
1570181838167066.0,2.3564439103622505,1.8135779528184632,1.3541445867975475,0.9983351464831853,1.3289820381867583,2.287731556424451,1.468318509810134,4.627318746526415
1570181838167066.0,2.349707881429398,1.816222182059135,1.352113887626567,0.9924193407641908,1.3135501684336868,2.2269736030938274,1.4611784512995714,4.628142605795945
1570181838167066.0,2.3467820228751743,1.8235767673598036,1.3468759096396543,0.9898468274796376,1.2934385695045414,2.164695899404492,1.4448486499717033,4.632921738850822
1570181838167066.0,2.339712701807765,1.8246302096428064,1.347443839395028,0.98557024857105,1.2776669759163,2.1008230101697563,1.4401426119706668,4.65009011857356
1570181838189007.0,2.336338384696221,1.8290010690237435,1.3466935931369979,0.9828317543304795,1.2574718229925423,2.0404161280518065,1.4255238708491298,4.6685642092331685
1570181838189007.0,2.324305523691552,1.826451467665486,1.3534377416163506,0.9726766959658946,1.2428649031422907,1.9838724839256587,1.4210291473072603,4.696544538426691
1570181838191001.0,2.315558937470594,1.8276175175646585,1.3582420642168098,0.9641455643242132,1.2258406248940301,1.9328307553488322,1.4104339499967542,4.721916739607448
1570181838191001.0,2.3075102530511464,1.8226373781950522,1.3678418082050077,0.9525209885146074,1.2159828101063221,1.8842606601751484,1.411448324218398,4.741713058303842
1570181838203974.0,2.309473877523793,1.824027147041967,1.3743253782629166,0.944224295428336,1.2056268920470943,1.838376581297658,1.4044945720958464,4.7400273245061255
1570181838203974.0,2.3053973322602737,1.8234049294508832,1.3839696063987474,0.9326091479153258,1.2009683614148037,1.7936621114985796,1.4082573344725153,4.725135210039606
1570181838204970.0,2.3009970611282666,1.8285691977543266,1.389388343087271,0.9245672095558478,1.1921935805427795,1.7513531951616368,1.4051265925049716,4.701860016027259
1570181838204970.0,2.294633859875655,1.829831560181804,1.3990595904107659,0.9142379195373402,1.1888266396252916,1.7111020686241654,1.4127952067332683,4.688799327403793
1570181838226906.0,2.2983313645788095,1.8375648122385426,1.4057497815806346,0.9096676559307224,1.1809081758944946,1.6760092334782541,1.412114986611341,4.683253082428653
1570181838226906.0,2.29807617954253,1.8420901447464124,1.4143572361020662,0.9031920069212684,1.177073207938013,1.6451594489824561,1.4221450000937268,4.676405243594842
1570181838226906.0,2.3007374246919183,1.8510838828213032,1.4157823060913417,0.902570019038905,1.170884387592286,1.6175156103639547,1.4237491605813843,4.657490803077012
1570181838226906.0,2.3012282145299925,1.8560312649558006,1.417282843672954,0.8996778974551791,1.1698114941746531,1.589992033093195,1.4313945955267635,4.640889876381216
1570181838249848.0,2.304601645586618,1.864615087457995,1.4155687382445445,0.9038807045151488,1.1650630387411482,1.566375396558671,1.424775703010206,4.621564859418368
1570181838249848.0,2.298305482251598,1.867273974605517,1.4180860950543632,0.905857875223267,1.1663153376122737,1.5467439478874134,1.4226827963385824,4.590364846865381
1570181838249848.0,2.29320376891148,1.8741896323125036,1.418769401895335,0.9136270220268253,1.1655464694204873,1.5323140587466646,1.4132699664119952,4.543286430468605
1570181838249848.0,2.286951584649841,1.8783851062637584,1.4224366418762895,0.9178697157254282,1.1706336934234134,1.5210885097503777,1.4175370355866532,4.483709366382994
1570181838271797.0,2.2897280903091404,1.886645984962375,1.4213282286009068,0.9279384219857544,1.172584898910608,1.5134389583431662,1.4184644263569721,4.406644647130474
1570181838271797.0,2.2931408909046875,1.8878900964034144,1.4213398139603075,0.9339272655954639,1.177765341864618,1.5066432134693672,1.4305153314866887,4.325679567390118
1570181838272782.0,2.305356222016841,1.891819747165561,1.4177140952020175,0.9442200535397687,1.1789284432426317,1.5024561887203047,1.4332151661662753,4.253187598813707
1570181838272782.0,2.317801083417572,1.893782732493911,1.4180721963747895,0.9473685363287454,1.1875963760625048,1.4980010531036223,1.4413335239466438,4.192995669824477
1570181838286796.0,2.3363832470949073,1.900829850686864,1.4161746768147565,0.9530515970946197,1.1955216714717893,1.4956865433781685,1.4376260658105673,4.143028317439669
1570181838286796.0,2.352911097172125,1.9027229150297558,1.4155392953925825,0.9542083468307718,1.2088909368099339,1.4954014511776434,1.441857048887318,4.100692536436859
1570181838287750.0,2.3761077711564447,1.9053321681341027,1.4115658625390115,0.961729935408808,1.2189836450790879,1.4986183698191178,1.4422088274687572,4.0613082017409505
1570181838287750.0,2.3974626103234424,1.903114632261019,1.4090426411957548,0.9645922201882959,1.2346858363320363,1.5031326573312174,1.4553516400145257,4.03296678905872
1570181838309171.0,2.421711400995336,1.9055817406275215,1.4025391190801388,0.9727041506655527,1.2465011516520166,1.509399358360297,1.4629929402300936,4.014827947363904
1570181838309171.0,2.440544730498092,1.905354314703253,1.398417863743961,0.976862749845889,1.2603427212904743,1.5131370135197344,1.4816656522396732,4.005227349255112
1570181838309685.0,2.4648758045650063,1.9092950678814098,1.3916163691893004,0.9839974656702908,1.267272118147287,1.5196187710312532,1.4942593425252042,4.002574476765175
1570181838309685.0,2.4896179625916743,1.910225620006184,1.3843779164795327,0.9826182076159986,1.2757474320688498,1.5298827757845317,1.5169779290838523,4.011491147401993
1570181838323644.0,2.520011161307524,1.9151854932693928,1.370884553894765,0.983316074056626,1.2798163622346508,1.544535517499358,1.5318413614883115,4.028513746726106
1570181838323644.0,2.5462116897538016,1.917305736207537,1.3590070952613158,0.979318978638627,1.2877440048136692,1.5579805434350416,1.5547058919814514,4.056570457877539
1570181838325409.0,2.575261068419385,1.9238621581084814,1.3474518438792815,0.9815226104520585,1.2918398650361036,1.5701718994164928,1.5694252340864234,4.090843559986158
1570181838325409.0,2.6006230240396366,1.9292547494924488,1.3396412267385405,0.9811770444645989,1.2998869736788479,1.580278174574425,1.5918618381146217,4.134485674327877
1570181838346789.0,2.627798844153683,1.9407263877784973,1.3293260166735037,0.9870836707157488,1.3055234955600805,1.5934399436914137,1.6051688694749022,4.181172728962684
1570181838346789.0,2.644117848391078,1.9501360977373938,1.3226168480399685,0.9896753720090183,1.3159377513022723,1.6073739518715506,1.625172635707299,4.225894662321701
1570181838347591.0,2.6494216266629187,1.9612780619026942,1.314481441358957,0.9969505779660817,1.3225487184609668,1.6210666572750803,1.6348113387975791,4.246443181329224
1570181838347591.0,2.6408963662966958,1.9649971163638082,1.306764253107723,0.9992126803889259,1.3328398061338407,1.632823899296833,1.6464484627509317,4.238965604029209
1570181838369555.0,2.6377542632689632,1.9675420187445591,1.2972639690527297,1.0070169919887457,1.3388820683588236,1.64802469607719,1.6477564754238616,4.225904667371396
1570181838369555.0,2.637004156439122,1.96501652207907,1.2928113984462062,1.0115470597347056,1.3463183146035964,1.6665180789770115,1.6564213012829896,4.224653595507019
1570181838369555.0,2.64181462384935,1.9648090231269855,1.2887926525661337,1.0206465260805804,1.3494730032961477,1.6878919360950169,1.6604981438347748,4.226579026613604
1570181838369555.0,2.642243519404057,1.958611910981313,1.288494062152814,1.02468184953032,1.3558740112342802,1.7074011809068954,1.6727417417893662,4.229125748027739
1570181838383521.0,2.6426381265337526,1.9524424916368994,1.2855024711646188,1.034088310260766,1.358588495678863,1.7264372962317704,1.6751589748625453,4.227268469204527
1570181838383521.0,2.640643597670954,1.9442425551728555,1.2850902638087591,1.0400997730004407,1.3642152020831912,1.7430494489000177,1.6801741904133112,4.2214197360793895
1570181838391608.0,2.644698478194558,1.942676349452374,1.2857904385817285,1.0502098133016684,1.366151202790435,1.7546977525809941,1.67809899177789,4.21105991979821
1570181838391608.0,2.6481738271748276,1.9406549289283004,1.2907101158767917,1.0538105731592384,1.3707501096940815,1.7561274622240373,1.684005723418185,4.207861619607771
1570181838406462.0,2.654062043802658,1.941653352767753,1.293375711494971,1.0599417160297793,1.3715020622900882,1.7547806615444974,1.6851820928541201,4.215030402900319
1570181838406462.0,2.647743465373743,1.9389810511992913,1.2980138160858428,1.0624484681624968,1.3742638939953236,1.754029256814559,1.692026190900452,4.221580978297525
1570181838407427.0,2.6298351830942015,1.9401315801228718,1.301073122037467,1.070938994920554,1.3712933834557077,1.7538729874338579,1.689694304446633,4.205391603203223
1570181838407427.0,2.603923884725134,1.9406218194231812,1.3080910361870703,1.0743390711177838,1.3665040598746354,1.7474054068669664,1.689745769392547,4.168959367941563
1570181838428707.0,2.586413450289231,1.945473797855283,1.3151090684607045,1.0815966275858984,1.3546779569796648,1.7265138267801583,1.6845366353479583,4.1328042414844255
1570181838428707.0,2.5710656909099416,1.947524354205825,1.3262162073138946,1.087370747740746,1.3454142037097823,1.6930097832142248,1.6865145982196912,4.108634884445888
1570181838430359.0,2.557511857927896,1.9501914956922008,1.337887680410065,1.1008117431465128,1.3351912767569605,1.658460210923867,1.6797667632480322,4.087442789752265
1570181838430359.0,2.5385121954467245,1.9483461490816578,1.3540739935019739,1.112276905741735,1.3299875985185012,1.6245531595588893,1.674753146653179,4.056058184500085
1570181838443561.0,2.525157227426194,1.9492139936231088,1.3691046288558526,1.127146397324854,1.3247472135578082,1.5916762717862483,1.6665673493740314,4.013259307013088
1570181838443561.0,2.514870652161151,1.946731822247104,1.3843996333141606,1.134024178151219,1.3252411131426045,1.5617718826843632,1.666486441026301,3.965865029834997
1570181838451310.0,2.508885085670247,1.947061363627512,1.3945449784675248,1.1415473332876849,1.3253501412587803,1.5368789854279397,1.6606581115710863,3.9155080295087616
1570181838451310.0,2.501002957050532,1.9471979097248298,1.4055801377651067,1.1432196964383434,1.331146454465787,1.5156857212046437,1.6603169738219894,3.860827008249712
1570181838467264.0,2.499677657985826,1.9517084413502896,1.4149742414848097,1.1467577214619757,1.3356025937264284,1.4955294415962264,1.6565265972923264,3.8075891245699522
1570181838467264.0,2.4997611713692214,1.952637462095597,1.4253915073683276,1.144939565473475,1.3433109056762447,1.4741108956433333,1.6575709212428245,3.7593882975492203
1570181838467264.0,2.5060303048662416,1.9563531069478877,1.4315801739114227,1.145296398067555,1.3478287796578807,1.4540889979592373,1.652392111335894,3.709369133945092
1570181838467264.0,2.5134997709378215,1.9607805659147497,1.4386135098389412,1.1419246650246146,1.3517857181272763,1.4345047643834405,1.6476941953256272,3.6540660456775664
1570181838489210.0,2.5269055035649735,1.971853697967584,1.443246731462429,1.1422163358350217,1.3506423586022565,1.415032631718402,1.6339697991852224,3.5993815024446616
1570181838489210.0,2.5390641632445488,1.9825861383451882,1.4487102376073844,1.1381010258174638,1.3532071259915186,1.3960780414000975,1.624533951453033,3.5509845265735183
1570181838490200.0,2.5524024754094214,1.9958660175422973,1.4499750466131327,1.1357953607047209,1.353337558977291,1.379026140613202,1.6076788873790913,3.5068762188133697
1570181838490200.0,2.560473284308324,2.0053406765282547,1.4498765902795285,1.1302381039714837,1.3552274384886407,1.363003816403679,1.5888866251983234,3.463959447754716
1570181838503284.0,2.570390732903231,2.0169702222554706,1.4464096674419926,1.1293998990108578,1.3527433152263886,1.3473464630171876,1.563477765862442,3.424956022539495
1570181838503284.0,2.5770110300753637,2.0270362684272296,1.4448269328376255,1.1260337392217443,1.351306310276835,1.328540398962222,1.5446973625792206,3.3869483096736097
1570181838511145.0,2.584018858319569,2.0401208901156713,1.4402026201676665,1.1243776987325549,1.3472670371440714,1.3077145220597017,1.524533367103172,3.345584127310247
1570181838511145.0,2.5882497443648007,2.0498996335781183,1.4342457400505062,1.1179705532040833,1.3460289749541106,1.2871632745005863,1.509994916378777,3.3054304817601743
1570181838527110.0,2.597767128975843,2.0615772899902356,1.4263783378391814,1.114343176496554,1.3414133329697504,1.2671967631066532,1.4916462610045136,3.2707929433370606
1570181838527110.0,2.6066736280290033,2.071149070274213,1.4237796377958085,1.108958135755621,1.339678921617161,1.2472565078194533,1.4788737155588458,3.24433348547838
1570181838527110.0,2.620019396857582,2.084583081336151,1.4232109099737418,1.1059837700936688,1.3370628082634408,1.2287757474125562,1.4652276669504471,3.2227373206382794
1570181838527110.0,2.6322659648162094,2.096809195727033,1.4280649705402988,1.0988757837984429,1.3372385625639305,1.2099887865720358,1.4617964039809364,3.204271842286463
1570181838549049.0,2.6493473986741023,2.112056317147081,1.4339231414800395,1.091936752750279,1.3337183387631972,1.1918105681026603,1.4576779124575194,3.1876694216279198
1570181838549049.0,2.6669072185929785,2.1251790785261804,1.4409283340966328,1.076642849937164,1.3328538428282577,1.1755312715206,1.4591458891851512,3.177760839118863
1570181838550043.0,2.688298489958763,2.140376206521531,1.444227393615375,1.0615207506362299,1.3303614033088877,1.162512784408348,1.4571236834284107,3.1743116311196267
1570181838550043.0,2.7076229949433217,2.151864429854262,1.4489383242281555,1.0461698274736728,1.3316887211072745,1.1516559624029095,1.4644163792712297,3.1782612474217395
1570181838564251.0,2.7297160966021004,2.1649707499918764,1.453446144574747,1.03806456003308,1.3335345199003144,1.1422894330320175,1.4706471053403325,3.1872690076242702
1570181838564251.0,2.7482246255982044,2.1759257382950747,1.460379732735211,1.0315405724753433,1.3398121398577072,1.1307194258034443,1.4847636268723565,3.2067145749174593
1570181838571365.0,2.7681903652173805,2.1887239523677535,1.463915332575485,1.0303847148952407,1.3435210019306387,1.1185869410638283,1.4972142454720507,3.2335726197313197
1570181838571365.0,2.787532674708619,2.1989120908913655,1.4671319770999687,1.026985511500092,1.3506681046001614,1.1079249674069949,1.5171930034800583,3.264808326944497
1570181838587139.0,2.811910498316913,2.2100494175979004,1.468701347207156,1.027785521963538,1.35632763546982,1.0989905133111066,1.5327739995015324,3.2897631956241917
1570181838587139.0,2.8338615474937074,2.2169360773764075,1.4722862902338578,1.0276460634957054,1.3643197446202289,1.0889494747022221,1.5521684637224522,3.313584481113028
1570181838587942.0,2.8590884289308325,2.2258508182085746,1.4744960846193016,1.03248601075852,1.370354936162122,1.0794772103395873,1.5645217083911318,3.3416637133689147
1570181838587942.0,2.8835336954094823,2.2327414106263515,1.478485733242213,1.0369594289824617,1.3792500426855816,1.0727036417819984,1.5825754509042094,3.375023893095931
1570181838609021.0,2.910013309593133,2.2419396965890237,1.4813239557536118,1.046324226174988,1.3839327522037095,1.0706137020268518,1.5947933110798562,3.398334255385395
1570181838609021.0,2.9315718529791437,2.2488738561959756,1.487050673765348,1.0524455523768639,1.390425186578937,1.0691858311615494,1.6102216172745467,3.414601380629704
1570181838609963.0,2.952319035588596,2.25781293516561,1.4922074494204756,1.0624517926010042,1.3957326955553098,1.0669620745065012,1.620263800575688,3.4258589183476458
1570181838609963.0,2.9703037267497128,2.266520794609334,1.498154357203909,1.0715818641266477,1.4044816058286298,1.0637009979707521,1.6347712740557179,3.436489046243473
1570181838623854.0,2.993592687844478,2.2813702965129377,1.5006339170983432,1.0848393905164178,1.4106045840837294,1.062662903741722,1.6403493753354368,3.444126809206939
1570181838623854.0,3.017164598362585,2.2967803395391195,1.5002554339113754,1.0928267280061803,1.4166854899203987,1.0629802886316109,1.6463315471765692,3.452412191164431
1570181838630921.0,3.0452287423121724,2.3153846681022436,1.4956046465275479,1.1014039920423586,1.417745080447222,1.0644985501184185,1.6469989990273173,3.461252403558616
1570181838630921.0,3.073499888092565,2.331219305999283,1.4941479023427529,1.107164786540226,1.419688800687864,1.065355544186639,1.6511992348784397,3.47695360880941
1570181838646787.0,3.1056481652199226,2.345542486692157,1.4925190204348455,1.11719490843072,1.4188650934103415,1.0681383751754256,1.6475708219190461,3.4909336624989264
1570181838646787.0,3.135048358329728,2.3533053045065575,1.4920150457899406,1.1237233223613978,1.4225885875046773,1.071882001987138,1.648696066130562,3.5025458014303616
1570181838647868.0,3.1659115345181332,2.361421865442275,1.4886552411230172,1.131752270229971,1.4268182178917912,1.076661679673413,1.645917765737227,3.5102452804104605
1570181838647868.0,3.192713788811426,2.3672531404236636,1.4844355205484898,1.1333254666425856,1.432795666432107,1.0812904184525403,1.64704460793923,3.5201331126792996
1570181838677709.0,3.217305999967641,2.375852638552975,1.478558181717348,1.1328733859077962,1.4337181199900095,1.08670952934263,1.6419608352689345,3.5250425409820085
1570181838677709.0,3.236462434159371,2.384967284982783,1.477017391684757,1.1283683098406943,1.4372467022791922,1.0906766175642133,1.639033772384797,3.5249395654030944
1570181838678147.0,3.2603933238945806,2.3999615946659616,1.4776397305901847,1.128260873111118,1.4411177815089569,1.0946161414828528,1.6328480164449457,3.523792997834117
1570181838678147.0,3.2867106990051216,2.4167565849016994,1.480057280920884,1.1246757164897228,1.4497565762431377,1.0962534840035585,1.6352057997287623,3.5302001931790046
1570181838691705.0,3.3172591892163426,2.4381625055801575,1.47959471196222,1.1208898377533119,1.4586065050411143,1.0975197232100136,1.6363269254577808,3.5325273869628893
1570181838691705.0,3.346158765737343,2.4586052952020747,1.480449758206297,1.1136940470998988,1.4708288089201131,1.096857516422566,1.6431517036056862,3.532701088322326
1570181838692658.0,3.379091910211284,2.4803366664046678,1.4808263569795723,1.1098462665883595,1.4809225212674362,1.0953726180821555,1.6446366495097786,3.537439497604342
1570181838692658.0,3.412225375333823,2.498898901387769,1.4843727265279913,1.1039066039580652,1.4931127515233806,1.0934120522008626,1.6486925845319669,3.5486763005006225
1570181838706629.0,3.450275631799753,2.5197558842707135,1.4887492327495429,1.1017296356735635,1.501668342325367,1.0941939279722281,1.647814228007362,3.555275874892774
1570181838706629.0,3.4880519879673324,2.5390998433367415,1.4934578912628442,1.096478674270528,1.5107005418323345,1.0963236545178223,1.6531240958005522,3.562447867413882
1570181838707620.0,3.5284533742056907,2.560364254004545,1.4929570674776653,1.0922692452053084,1.5153149563635813,1.09983363559086,1.6570463728951748,3.570045840812807
1570181838707620.0,3.5679838382459814,2.5790394232795912,1.4910649605092487,1.0866942340333954,1.5207592386725037,1.10291940023007,1.6680731578402204,3.5858304654097775
1570181838729726.0,3.61063873582052,2.5980972466295142,1.4855230598574376,1.085991995713123,1.525247047080762,1.10872167545883,1.6755860240569296,3.609011604194027
1570181838729726.0,3.648547125649776,2.613698909046361,1.479853153276207,1.084459890161493,1.5330481807079208,1.1172084764647958,1.687556459692545,3.642092061331872
1570181838729726.0,3.6835080185034026,2.630034458646599,1.4753184998310946,1.0865753292682014,1.5376776147958329,1.1298042009074574,1.6950274040285005,3.6787972362972767
1570181838729726.0,3.712439348933786,2.645192448673723,1.4750584555449258,1.0848733852960242,1.542207770730362,1.1439179227897884,1.7054350397480604,3.7231262567668946
1570181838743574.0,3.7436484195330686,2.664211649622128,1.4740399443178431,1.0835134709364487,1.5432784880686987,1.1594594851927806,1.7094894408699552,3.772319399724895
1570181838743574.0,3.774953254684578,2.682657860044888,1.4736916535727491,1.0791532979500218,1.547404150099592,1.173957759214396,1.7150288959193343,3.8280999817375965
1570181838751503.0,3.806024284988776,2.7032913081367225,1.4731363766774555,1.0776003009475823,1.5491543884088836,1.1884930852536957,1.7140359778646421,3.884640713352235
1570181838751503.0,3.827677188219115,2.7217118592616383,1.4773272179028814,1.0738834598339368,1.5505804199180162,1.1988421707135486,1.713074355996794,3.9386641137328486
1570181838766465.0,3.840116183522116,2.7425264672424534,1.4824325341308915,1.0741150660495027,1.5501275299335795,1.2038851936840125,1.7014693569013932,3.968060900050399
1570181838766465.0,3.8422495228878337,2.7617322694892588,1.4894408744030623,1.0736524554666251,1.5537328184896222,1.2030504085300409,1.688914747484588,3.9608949239666718
1570181838767692.0,3.848041004632907,2.781690569845509,1.494221748452214,1.0770949984863893,1.555726396579791,1.2025067155661677,1.6722280921950288,3.923932979537398
1570181838767692.0,3.858635399167508,2.7990799643808404,1.497728255573048,1.0787482930420496,1.5595975560320494,1.203109010850657,1.6643256393624042,3.8903574228550797
1570181838789600.0,3.876984935761881,2.8183344871834106,1.500294076528428,1.0813219562715102,1.5615742249609128,1.2038651631095028,1.657076689629086,3.8722408792027427
1570181838789600.0,3.8969130760631154,2.8367172062858073,1.507759831342569,1.078900410161499,1.5657665098095341,1.202578584317549,1.6538759132584573,3.8687187491515322
1570181838790398.0,3.919644748790058,2.856715973790128,1.5166977135482165,1.0781776271772494,1.5685316690256446,1.2032628742766878,1.6455691244522053,3.86917765065554
1570181838790398.0,3.9400186938890402,2.8727616026907143,1.526999206104356,1.0747213732780727,1.5748227869522964,1.2042253556102551,1.6383005696334403,3.8678298190312455
1570181838811342.0,3.9620171672479163,2.889484612097218,1.533824086288263,1.0722968765464032,1.5805193977914305,1.2063484849419246,1.6256059094133322,3.86153444929281
1570181838811342.0,3.9821114199633953,2.9057682283257593,1.5377191295810337,1.0657740246627818,1.588618491649045,1.2099580937135368,1.6193470851540042,3.8560968304075978
1570181838812339.0,4.006548071833213,2.9258965369962087,1.5371167224808424,1.0617337471345556,1.593551513312606,1.2147123725455575,1.6120120962479694,3.847068917872074
1570181838812339.0,4.034581463387982,2.9453292857995628,1.5377584592866136,1.0570449103441997,1.59856369591369,1.2169849993750703,1.6095997548948169,3.8422170417788646
1570181838826303.0,4.067892293965744,2.966064906377475,1.537933474456893,1.0568022738644014,1.601664392612788,1.220297319889501,1.604240357097973,3.8457937468582375
1570181838826303.0,4.098239188978095,2.9848486643708196,1.5396271286433714,1.0555738756853426,1.605522818062876,1.222935581356142,1.6018058172755802,3.8611120975063455
1570181838827299.0,4.12664868805845,3.0058493873781487,1.5406878795248533,1.0574738208943242,1.6030597249219853,1.2247974018001675,1.592684126016044,3.874304813546049
1570181838827299.0,4.149537249857127,3.0265377455439726,1.540906318492941,1.0542168582205143,1.6005779021257458,1.2260279980307975,1.5866973612701507,3.874335167723875
1570181838858217.0,4.17451459899493,3.0492248999198166,1.5360712692472949,1.0500274966851124,1.5990774200655404,1.226846016880342,1.5801363438393545,3.8641713482424604
1570181838858217.0,4.202213172253138,3.0688450335550734,1.5322473214715469,1.0445390853636451,1.6026169116192641,1.224257532272494,1.5807553619823742,3.856279433718737
1570181838859216.0,4.238102193644741,3.0904461921757997,1.528484845300538,1.0455737746453266,1.6063475407763033,1.2234724247718425,1.5796997451156916,3.850567457302891
1570181838859216.0,4.2795657929591835,3.112157541339357,1.5255890714408618,1.0473257282613515,1.6140292577225757,1.2250988442685593,1.5824440099862689,3.854072041881727
1570181838871218.0,4.3284247578148,3.136453986239914,1.5223274997041396,1.051999415899399,1.6199565332667356,1.2274191824271432,1.5785133067732382,3.8646605308822
1570181838871218.0,4.378330686297815,3.1586401116722382,1.5224041885898325,1.0535264047779587,1.625571043634182,1.2266149863479805,1.5750578554667276,3.8801576666185857
1570181838872515.0,4.434324174012371,3.180075237508026,1.5225612776423516,1.0585668208425225,1.6258650161555361,1.2240337388991573,1.5656466636586157,3.895488049662246
1570181838872515.0,4.494838774627389,3.1984604474002487,1.522213831152925,1.0626465703968149,1.624217367100922,1.2182810358777645,1.5595550466716182,3.914614754809545
1570181838886178.0,4.561777254516735,3.2189426153833227,1.518216571238683,1.0711487102704202,1.6182006343124276,1.2129304788174942,1.5507491637617683,3.938665108300098
1570181838886178.0,4.628409032154434,3.2383598192597107,1.5159951925363564,1.0769072916064115,1.6106724844923277,1.2078821093414016,1.5458638492105494,3.970264108301448
1570181838887141.0,4.696293301615053,3.2595234228572925,1.5146942257661076,1.0838675037872174,1.5995751203989756,1.2040698337797338,1.5368411445297627,3.995694553615431
1570181838887141.0,4.763039389627558,3.278922788112755,1.5142165735897464,1.0881610355741005,1.5940357362695499,1.199873133133129,1.5324650359043057,4.002473678261804
1570181838909079.0,4.831803470848306,3.2989355092416104,1.5120391527099153,1.0936504596279544,1.5913190773681871,1.1961405083192407,1.5244372389341994,3.9888220897211757
1570181838909079.0,4.899474812560629,3.317319321629904,1.5127507749851345,1.091540998202154,1.593654661792915,1.1933949983392391,1.5205348635565297,3.96209525955252
1570181838910172.0,4.972880549116647,3.3389906878045745,1.5157629352814104,1.0870252316216897,1.5978192059964367,1.1938390136330117,1.515843092441327,3.9157185002605526
1570181838910172.0,5.048323226241863,3.3616122545264338,1.524051114313998,1.080982017763905,1.6063679155121569,1.1945454364420023,1.5158386728960747,3.8519962640985113
1570181838932021.0,5.1262127540179225,3.386954999547354,1.5342788110544994,1.0813609363896186,1.6134109574142037,1.1975976274944147,1.5111767911712046,3.7890639329263136
1570181838932021.0,5.201821228124969,3.41034586672504,1.5464575063129777,1.0809234105155334,1.6209378418480385,1.2020067124433778,1.5126494798087193,3.7314926378001956
1570181838933017.0,5.280784770899507,3.434294467806533,1.5570309280096568,1.0813890907685015,1.6257545517939738,1.2088087148486995,1.5126401747654397,3.6659475637932712
1570181838933017.0,5.362573670272848,3.455413715052291,1.5691569921312907,1.077319752335052,1.6323539050575122,1.2160989376631102,1.5169174906157261,3.597440838900042
1570181838946984.0,5.4495422506685305,3.477353221875415,1.5800596806579565,1.0755285783358413,1.6356924468385672,1.2244711206276642,1.515990430677825,3.5335041874145388
1570181838946984.0,5.536208985546177,3.4987604207978613,1.5923039571658177,1.0720218157132992,1.6370783574293357,1.2332643149032736,1.5181918124071065,3.4816247425336595
1570181838946984.0,5.625303618194483,3.5222088506921283,1.605597324442396,1.0727290007829384,1.6343432139824854,1.2445913081652202,1.5176137269302414,3.440491080812112
1570181838946984.0,5.71576961712542,3.544045122768833,1.6211766186172798,1.0730309240816824,1.6346504922736877,1.2568655915806166,1.5242297252228159,3.407125668183703
1570181838969104.0,5.8105256525723865,3.5685157959366265,1.6353148723280955,1.0775061766264795,1.636003463782889,1.2724218248112242,1.5275409851748176,3.3811617789381496
1570181838969104.0,5.904270398595313,3.593822727965914,1.6491222915881727,1.0808892065327178,1.6413649743730576,1.2895599334328238,1.5336891402233601,3.365434634136227
1570181838969919.0,5.999178171213136,3.6219049059075425,1.6596066533678864,1.088051593212461,1.6464613472133802,1.3086450052269774,1.5366054897272574,3.3556838025475852
1570181838969919.0,6.093991881990029,3.6487071777343654,1.6707885478865439,1.0936801617697416,1.651399051126597,1.3263862796101247,1.5438903741828598,3.3521820242809346
1570181839000011.0,6.193198883174655,3.675527753773965,1.6820143766939657,1.102685065430773,1.6527286734762712,1.3427387191738156,1.545684494668019,3.3491999126738032
1570181839000011.0,6.29188084866326,3.6993070643101853,1.694633089325703,1.1094958590000872,1.6567025417480208,1.3565489064657914,1.5513252141035023,3.338964888658634
1570181839000836.0,6.390336152657485,3.7227740368291076,1.7040037402446095,1.1180012114141293,1.6591293063068626,1.3703843745908824,1.552943738026588,3.3206191749707963
1570181839000836.0,6.482702937202372,3.742809274086142,1.7127308648353545,1.1226560845197708,1.6623371855885285,1.381696045511269,1.5575289309994698,3.3032095361761615
1570181839006821.0,6.5698264865939695,3.7614830257764944,1.721414793292315,1.1286970157934992,1.6623975380218718,1.390303085720529,1.5570880193003718,3.2863002068772467
1570181839006821.0,6.645218376679798,3.7751910018403425,1.7322932943620672,1.1301969178923355,1.6632466838320952,1.3949066405993324,1.561477999229597,3.2717033810916263
1570181839007817.0,6.690146881024561,3.7800691783567237,1.7415764037782762,1.1323748328176675,1.6633225684627193,1.396998007341541,1.562605241053973,3.2594826596960287
1570181839007817.0,6.680887849821718,3.7656080082755685,1.748452994657259,1.1321068055748722,1.6666031973968518,1.3933392183565374,1.5678918406108284,3.2537824171067253
1570181839028761.0,6.636574285109858,3.738767299783099,1.7489503442548648,1.1360526163638553,1.670663609923724,1.3852602490850434,1.5705966659991233,3.2492897299003483
1570181839028761.0,6.581105278014682,3.7031712744018948,1.7473366950045615,1.1390454114593085,1.6789425168033085,1.375980074698931,1.581569716360022,3.240715633565513
1570181839036836.0,6.519531131649763,3.6632284655117062,1.7442988653134182,1.1446070654152793,1.6851718614544384,1.3699757993423813,1.5914054809334865,3.2194808443094005
1570181839036836.0,6.449288797023623,3.6226259933457525,1.742822744140525,1.1475135856314,1.691859345591054,1.3664992029734975,1.6051797182135485,3.1923339944303413
1570181839051698.0,6.37643829891028,3.586079360020903,1.7395835884406925,1.154315560742747,1.6986722515121533,1.3665536754583316,1.6138622205257565,3.1702260793195864
1570181839051698.0,6.3069997233805175,3.5496163775547735,1.7356618123547114,1.161047926167206,1.7101756377246033,1.3681941633862873,1.626269141161419,3.1575789445983236
1570181839052696.0,6.245747484599566,3.512190185195394,1.731678887998613,1.1711187083502534,1.721201383102503,1.3727525819261,1.6338389100299382,3.143091403318798
1570181839052696.0,6.18680709927641,3.469931187095395,1.730922683121584,1.1773184187827588,1.731874635342423,1.376459677951913,1.64710715884207,3.12667351761562
1570181839074723.0,6.132793360921107,3.4279477068513864,1.7296267224126747,1.183394838820002,1.737742847627515,1.3796770719621128,1.658145187821529,3.1113023468629337
1570181839074723.0,6.061695687870528,3.377446308230943,1.72824416653145,1.1850397022942079,1.7431432555145885,1.3815407299934037,1.6741204192017194,3.098241378459281
1570181839075636.0,5.925436569007467,3.305632357497495,1.7229517934148315,1.189584937905608,1.746150358252076,1.3796211603193018,1.6850493502372053,3.0816695845478157
1570181839075636.0,5.7273348434482445,3.2187126689742347,1.7157504938458226,1.191757138714581,1.7516067739097871,1.3725333371755026,1.6985554524061377,3.0674028041654373
1570181839088600.0,5.5206345082998025,3.1408304634561492,1.7066233643086295,1.1946558707828387,1.7570086548722856,1.3669128163588458,1.708002747039026,3.0574281660951472
1570181839088600.0,5.320560269681495,3.073451402360426,1.697368356703997,1.1947396061353008,1.7665594048803506,1.36378305310537,1.7231035455757742,3.0533659081744884
1570181839096581.0,5.1313286875718855,3.015693196303054,1.6875463546206841,1.1984593786732107,1.7776836075180442,1.3635101961423481,1.7341916367478443,3.0508459187474664
1570181839096581.0,4.956534489003541,2.965223677794024,1.6814670861779606,1.2005599139150591,1.7922694588620973,1.3630699260270487,1.7492878771777671,3.05537948247764
1570181839111540.0,4.79122483887571,2.921714166848195,1.6759342219772808,1.202939716547833,1.8048116904487417,1.3634766624045702,1.7603894592751101,3.0664372590373254
1570181839111540.0,4.631322356699398,2.882303669553855,1.671041486165274,1.1992324426757925,1.8171256853849767,1.3644416238046504,1.7766222015115667,3.0872924227791314
1570181839112535.0,4.4835634515893785,2.8503370769518166,1.6662278194017348,1.1951525298650343,1.826347994087318,1.3663460862820822,1.7911459092677815,3.1150725567780833
1570181839112535.0,4.3502215891005855,2.8218157897662297,1.664761723540287,1.1894850959528886,1.8361375164703555,1.3677087976770428,1.810845560581966,3.152697542197658
1570181839134661.0,4.229954928056005,2.7962102527982715,1.663848415441533,1.1897487328674907,1.8437740980324602,1.371454774551645,1.825275484988489,3.194607388501153
1570181839134661.0,4.118246412980668,2.7705494638294916,1.6626878966173557,1.18983919630238,1.8530235328832099,1.3739148146080855,1.8432164226946641,3.242582304796107
1570181839135476.0,4.012892220914624,2.7455981017234907,1.6595174074963832,1.1912214388558253,1.8593416229743565,1.37338419470559,1.857347578113157,3.2841677091469053
1570181839135476.0,3.91399134180032,2.7210453922331355,1.658892773345341,1.1900856961107418,1.8649737590503597,1.3703010574014245,1.8747296754953762,3.315880819520687
1570181839148530.0,3.8233081561936584,2.7019843090387825,1.658628627494969,1.1931153575266413,1.8683932639928424,1.368291879471872,1.8864577094852824,3.3433300276683977
1570181839148530.0,3.7366506970224025,2.685282623042817,1.6575827919324528,1.1958090763406768,1.8705060345908233,1.3663223715555086,1.9030255627947383,3.3755651318098865
1570181839156504.0,3.6532835286291805,2.6729723259854175,1.653511059771887,1.2022693670165214,1.8665212155943518,1.3656439910991216,1.9165246205578392,3.4043309198738845
1570181839156504.0,3.572151100386305,2.6652420689779963,1.6488363359446903,1.2075915793967977,1.862569328312098,1.3656679211969718,1.933694027608844,3.4314910064460373
1570181839171390.0,3.4945493882451104,2.664084410905936,1.6417496312328566,1.2158595578321783,1.8570063441672044,1.3664490777265386,1.9444543583086005,3.4494081031158568
1570181839171390.0,3.4213653014896277,2.6634877053119737,1.6365964709282488,1.2212155663230257,1.8527864381856853,1.3656537427524638,1.955270329335907,3.452051607177955
1570181839172383.0,3.3544461978672677,2.6640744590180145,1.6331087316910318,1.227838098262545,1.848035156801648,1.3667348958559218,1.9603499227224381,3.4420925890258367
1570181839172383.0,3.2898149841518016,2.6648560588126435,1.6311389139185541,1.2313235937622522,1.8451379563794992,1.368856607700954,1.9678314571385558,3.44066752816749
1570181839195367.0,3.2289183408460866,2.667420065767149,1.627507899957108,1.2355541369219116,1.8390890655686027,1.3712112024014247,1.966463351994476,3.448399194396531
1570181839195367.0,3.1682884825527475,2.66947991691653,1.6254380613238655,1.2372217325858479,1.8342202512034769,1.371549497285561,1.9618685343142863,3.4562595429590557
1570181839195367.0,3.106227364220731,2.6768268951116343,1.6243354934365168,1.2424011459363908,1.8320637434473555,1.3727387336802135,1.9500719315930104,3.456021306117049
1570181839195367.0,3.04832159238851,2.6893325047933856,1.6243933551765906,1.2458113149742511,1.8366140683271208,1.3750058914141738,1.9452174497479415,3.4611770331141356
1570181839208406.0,3.000960048632067,2.7074213950480406,1.622543627959178,1.2521504140293866,1.8432413782140706,1.3785585786547614,1.9407525896648155,3.4708298567005786
1570181839208406.0,2.959695025060586,2.7259287092009328,1.6219298547952943,1.2569285346736896,1.853203569162287,1.3819456000346035,1.9413891299568657,3.481054172704806
1570181839216941.0,2.925954675286513,2.7457736718787227,1.6213700439012075,1.2619938110428364,1.8614015367374412,1.3880535405050607,1.9377054138769993,3.4875761595317445
1570181839216941.0,2.9008793366594396,2.765326815025125,1.622782641352376,1.2626083625439979,1.8692723838923808,1.3965789798777775,1.937700096316438,3.4965398386078306
1570181839232217.0,2.8860203423483757,2.7881811709840223,1.6250021518857711,1.2649229759851295,1.8740706381711993,1.407607352445177,1.9355526233404936,3.5077310593214786
1570181839232217.0,2.877809512717195,2.8111705075205564,1.6291285819342955,1.2653883833963089,1.8787983889760922,1.4169771105508642,1.9394696686419512,3.526892505948007
1570181839232217.0,2.8749432723268304,2.834948294371775,1.6334735370185465,1.2687876893634653,1.8795657232774305,1.4257404311482107,1.9403616672604465,3.547432449445791
1570181839232217.0,2.871581167108577,2.8594257796234688,1.6392073235943725,1.2697690518941576,1.8793255270807618,1.4339939125891008,1.9449502308662816,3.5678693094586027
1570181839255158.0,2.8704687675722207,2.8893063247938917,1.6446450246312005,1.270729903555204,1.8782693141324551,1.4422450151591504,1.9457760084278446,3.5858909766191784
1570181839255158.0,2.8697884529841207,2.92111533555496,1.6534918371247367,1.2676559156524156,1.880128637568461,1.4489797889431124,1.9498091115595602,3.6033344186649816
1570181839255158.0,2.869739075195506,2.9552859130837392,1.6626766200498215,1.2661888278525066,1.8797234154622062,1.4569467246575418,1.9482665614669443,3.61053366845396
1570181839255158.0,2.8729573202585317,2.9876097389208494,1.6724888672223044,1.2622334748931605,1.8804050968958812,1.464592460447892,1.9478614901154063,3.6108928091698154
1570181839277293.0,2.8832534179977523,3.0195088422865353,1.679807533105661,1.2579532840425172,1.8797480325346152,1.4684853004101488,1.9424051581948514,3.6072384425062243
1570181839277293.0,2.8938774694130287,3.0494858061148213,1.6856919951375477,1.2505669391020553,1.8796906766770538,1.4665888840409695,1.9417425418921848,3.603055138230808
1570181839278416.0,2.906099021249629,3.0809499138729195,1.6895530828301881,1.2443202769766075,1.8785505882195823,1.4647321532135862,1.9403019326101587,3.5916032182938364
1570181839278416.0,2.920120293544514,3.1127378811137896,1.6930238310172325,1.2339202934329272,1.8795756000107826,1.4623632854790687,1.9462780782190972,3.5780681664332588
1570181839292149.0,2.9365671639956075,3.146898306469774,1.6946602463693652,1.2258359470570206,1.879672292625454,1.4611942104887792,1.9515259976535262,3.5670509620749002
1570181839292149.0,2.9532847160223197,3.1808614454916393,1.698278284377168,1.2181738748132644,1.8816269443327367,1.461166072143514,1.9626348381799588,3.5595634016153648
1570181839292149.0,2.9728688043913136,3.2168791565551564,1.7031948442775746,1.2134335281084077,1.8829082836575524,1.4620574400191728,1.9712980917972587,3.5413113159570395
1570181839292149.0,2.9920967655579718,3.2504877931316916,1.710389589945994,1.2062879926521994,1.8868239381482186,1.4619977153457837,1.9837472125569575,3.513697615974538
1570181839315208.0,3.014158450963825,3.2821738509102607,1.716428788371136,1.2029635255331124,1.8891754734280464,1.4621857745872335,1.9927152457955566,3.4844767261651186
1570181839315208.0,3.0373076015344767,3.311723477817855,1.7229042613820575,1.2010615179004267,1.8918559828366153,1.4607797988050077,2.006943912365703,3.4580401224406527
1570181839316000.0,3.0631650262876806,3.344509402245776,1.7284058771872786,1.2020176330114054,1.893908221515403,1.4603492783037177,2.0186072810626814,3.4300187213667934
1570181839316000.0,3.0887330839017344,3.3779280511440732,1.7348355365837302,1.2008472774401227,1.899473596047448,1.460894277801136,2.0341299727196778,3.4080796974761682
1570181839337936.0,3.117281022783919,3.4110033674630547,1.7405633345227038,1.2031450019495906,1.9046024429650168,1.4621120773300962,2.043862626367062,3.3883843702092715
1570181839337936.0,3.149571844585781,3.441609287458607,1.7475090487452727,1.2051709627945373,1.9100743097547013,1.4613657310738133,2.0534466438672188,3.3631808515521646
1570181839337936.0,3.1884441123648415,3.4747623621904804,1.7542945171929298,1.2105139098261648,1.9145881583815547,1.4610336684551204,2.059216230803034,3.3296670959793606
1570181839337936.0,3.2295314008391847,3.508179727283999,1.7636333348718207,1.2148329878663557,1.9223493041891944,1.4625913853874182,2.071915175257387,3.304174472149655
1570181839352088.0,3.274390613580824,3.543088572756185,1.7729902482159963,1.2216768941422005,1.9296113521588383,1.4676158856895372,2.0829947555789223,3.287286302235148
1570181839352088.0,3.321160287484635,3.576636158224147,1.7819266650155547,1.2257518243380001,1.9397148255666494,1.4739833858295828,2.1003550807374283,3.278205269985847
1570181839359001.0,3.372865754053288,3.610245612578295,1.7897084758154536,1.2307261593203842,1.9496895471059252,1.4826183353382825,2.1172875398857993,3.2723202084825407
1570181839359001.0,3.426685694945671,3.6426132353022744,1.8015083709042894,1.2331084766532243,1.9612418889815164,1.4919843483708226,2.1394826287664706,3.270618127941334
1570181839374970.0,3.484284664109049,3.675050467381806,1.816539171163532,1.237725993455816,1.972568397257285,1.5028601242087432,2.1564878536091254,3.272094262039715
1570181839374970.0,3.5430281438597464,3.703385306177277,1.835380689609488,1.2395105177164523,1.9865586713381131,1.5132315179322042,2.1755497647648063,3.277593482015557
1570181839376053.0,3.602756768644972,3.7305897598974633,1.8551088279838381,1.2407341851997364,1.9999253553298744,1.5255778831303295,2.192141828255215,3.279461602003169
1570181839376053.0,3.6583764366343114,3.7561920880439,1.8763542934372452,1.2377345579192154,2.014865871784676,1.5393174021581333,2.2139355472753905,3.2822632676011647
1570181839397774.0,3.7129407845382754,3.7841650941221845,1.8954789219192851,1.2357994844107307,2.027955876501907,1.5533303622923822,2.232656441292477,3.278088696802453
1570181839397774.0,3.767543314769311,3.8132365720296897,1.913059480862487,1.2304395977518794,2.042908200738258,1.5665579123270061,2.25496945032369,3.2633547687026137
1570181839397885.0,3.8252535351095545,3.8424068793900603,1.927759781134453,1.2253773990587917,2.056887006009867,1.5828544686965806,2.2724340476187495,3.2436479543668426
1570181839397885.0,3.881364942175147,3.8668762370689027,1.941587643779829,1.217784674653745,2.071606496366019,1.6001882635695897,2.2924173227549707,3.2340597346065785
1570181839412008.0,3.9366369006374393,3.889089143873755,1.9522332447208104,1.2103074726599579,2.0853394505100593,1.6169112936085908,2.308420011419755,3.230070241391212
1570181839412008.0,3.988986997919721,3.907304885298236,1.9622568999142544,1.200027876365361,2.1005952539714987,1.6322456416301208,2.3285131600379185,3.2305502396408667
1570181839412744.0,4.043033871205496,3.924566273702199,1.9716889658613985,1.1942602021041113,2.113668875599829,1.649697535196122,2.344529869871337,3.233602635043001
1570181839412744.0,4.097609849328886,3.9403186369761904,1.982523664414178,1.1895073707381398,2.128312201046086,1.6663990583783987,2.3612380053768147,3.2414792973386595
1570181839442889.0,4.15392339106056,3.9586615461162693,1.9931132768103323,1.1891585205226385,2.1421954026318937,1.6812718902754242,2.371834624345873,3.2503870928552296
1570181839442889.0,4.21009306111824,3.9783531084710897,2.005988357329241,1.1895726318166593,2.154754642371474,1.6949471069028776,2.3844950527724733,3.2651681835463053
1570181839442889.0,4.27023023861011,3.998439050275206,2.0188099532304675,1.1934471317163653,2.1595429655508656,1.7105691558768092,2.3932847465420055,3.280417046852858
1570181839442889.0,4.332821162155383,4.016381801279756,2.0316710143713563,1.195472883942595,2.1617596654671294,1.7269285937045369,2.406643020585504,3.2994744665618225
1570181839457906.0,4.399747258775351,4.037188128354646,2.04276761391087,1.198404517115506,2.164006445135861,1.7451781027232482,2.4157019710795233,3.3214198896681792
1570181839457906.0,4.465763344055516,4.05866629234216,2.0538614445755665,1.197168683286587,2.1692755373327195,1.762349931403284,2.427535084375377,3.347944964872457
1570181839457906.0,4.528813548793598,4.079275175252385,2.062851541495973,1.1971392337986917,2.174323052179146,1.777912298317497,2.4377716823003324,3.3689210241587486
1570181839457906.0,4.5886422260185125,4.095929303366246,2.0729120625782804,1.1951375018492136,2.18238568959639,1.7906396690260609,2.452626792279597,3.3875135844062583
1570181839471602.0,4.6514345064471385,4.114028050432337,2.0833641003802055,1.195127712351518,2.1899380827337547,1.8010713919580905,2.4628997074429786,3.4056273542023403
1570181839471602.0,4.7137100740991755,4.134432171604901,2.094407643715748,1.193233554340055,2.197890854280913,1.8081641838928497,2.4748611527472857,3.429668975431027
1570181839472582.0,4.776091821180732,4.158797791897322,2.103847493946275,1.193930539984173,2.2032096359555595,1.8164219873870613,2.4836368768078336,3.4573389871091558
1570181839472582.0,4.832961485569678,4.185018414128394,2.1135446130375906,1.1944811544663456,2.2080074119909243,1.8265943542023746,2.4948641445939796,3.4870342568656443
1570181839494727.0,4.88640932072295,4.213960344480582,2.1215082511255647,1.199991828511831,2.2104896483264023,1.8367982019745273,2.497654945303122,3.506700582816
1570181839494727.0,4.939107309183954,4.239581053826627,2.12868067985312,1.20512639786168,2.2147452563522605,1.84415980551922,2.4980514748399987,3.510571179906404
1570181839495514.0,4.993836333342875,4.26169239711128,2.134662563945115,1.210568326690355,2.218224849878325,1.8515935788354219,2.491280268942427,3.4925383585321317
1570181839495514.0,5.043835985432149,4.278785114049803,2.1409632862495247,1.2096737807501352,2.2224575409070186,1.8589806786173682,2.485723497528886,3.4608866089047505
1570181839517666.0,5.089032741252169,4.2925263725788865,2.1419085671493217,1.207994781615317,2.223429806384699,1.8654659481743068,2.477331960936731,3.419249526750904
1570181839517666.0,5.135046983974745,4.305779217719898,2.1398711894530873,1.205289477133444,2.2253110632127964,1.8677252814554686,2.4754379097482295,3.3849493046509145
1570181839518464.0,5.191325597928764,4.326317248079567,2.1374427095256707,1.2078126262009958,2.2292936865380835,1.8685824518261664,2.4739498778188236,3.360367684812854
1570181839518464.0,5.252408704527077,4.349812673086992,2.1372465147314355,1.2113301384084565,2.239261040838478,1.8691110198191379,2.4746505052361205,3.3354736022336082
1570181839531632.0,5.314712698267186,4.375722340061091,2.138585498222624,1.220497789904879,2.2524452891134072,1.867353226483209,2.466609101023247,3.2931096484677522
1570181839531632.0,5.371727368300507,4.40327303903476,2.143799211288171,1.2304691904300438,2.2697531464638,1.8585255436809707,2.4591601398376937,3.2411862778809595
1570181839532419.0,5.424681558322793,4.434516464809341,2.1501676152841047,1.2437352386136995,2.286627826438395,1.8453851186856973,2.4503374961894235,3.184796174063527
1570181839532419.0,5.474147847705342,4.467894023240831,2.1574258296911086,1.2558816760685647,2.3049672284596885,1.8320265365058117,2.4479410998166298,3.130651970595044
1570181839554370.0,5.525110327604934,4.50407193658618,2.1636286946559022,1.2723593954883758,2.321650418639707,1.8210295760220225,2.4449413187724844,3.0852316443675334
1570181839554370.0,5.5763619452612705,4.5370620297853,2.170464086099066,1.2885731797389808,2.3402425669275932,1.8097102904366662,2.445246133836885,3.0533106025734127
1570181839555453.0,5.631463419749619,4.5689238824245875,2.1762178008510347,1.3079656858590034,2.360037124762344,1.7981858122271859,2.4426161699234967,3.0274019223826265
1570181839555453.0,5.691423954724312,4.601624926410711,2.1819527053789938,1.324971920667543,2.382173728593516,1.7819857667913985,2.443216772847231,3.012977649415785
1570181839576298.0,5.757881461622226,4.635687464909502,2.184995094164795,1.3412548090373793,2.403191761889794,1.7629337305476502,2.43842126875068,3.0079220302627205
1570181839576298.0,5.821550261712569,4.662494514697585,2.186866427641545,1.3514335751508935,2.4256204554740846,1.7465980605289542,2.435349405576461,3.0141291568896014
1570181839584493.0,5.8776537737135035,4.678767269233307,2.185713451720759,1.3609313247698998,2.4460804610074276,1.736078475862097,2.4298958819403,3.0267997702865737
1570181839584493.0,5.9308531809490175,4.687152771061587,2.181139184656299,1.3671051861559131,2.4652115608159977,1.7287187532712942,2.4292159436085923,3.0512080082977073
1570181839591399.0,5.992867239945185,4.700572261605465,2.1745455756613996,1.3767523401194386,2.481767847454358,1.7236287861319244,2.4281406102005008,3.081612811035267
1570181839591399.0,6.061178979784223,4.722239085539631,2.1724462525116146,1.3856644317046656,2.502781973388727,1.719544022000056,2.4336660444792364,3.1188081371890783
1570181839592255.0,6.137652129822528,4.751309626282887,2.1738615738796736,1.396592579111692,2.5267253051425858,1.718602340070671,2.438479640405742,3.1565905891172967
1570181839592255.0,6.219057545741504,4.783154246300921,2.1804004275657967,1.4060628523238632,2.554010367023152,1.7195680997124567,2.4472169206157206,3.1980444774310213
1570181839615376.0,6.305308805089305,4.819722301376907,2.190595739955094,1.4182480633180456,2.580380172511529,1.7224434105682669,2.451022340170943,3.2398055571132582
1570181839615376.0,6.396403439885974,4.860289762195146,2.2038423900714843,1.4277677548884526,2.6082761035838726,1.7243349789988915,2.4562522479869497,3.289275716248292
1570181839615376.0,6.494402811027733,4.906398774431938,2.2175983043590466,1.439334421075992,2.6357572907879376,1.7248712081239457,2.4600295245971893,3.3434038805539927
1570181839615376.0,6.596414106487453,4.956070680142025,2.232872923367944,1.448104212076407,2.6634746501415436,1.7261522507879423,2.469694401686301,3.4053623536035134
1570181839637319.0,6.706603566935709,5.01170872843434,2.246928706437484,1.4581088741260089,2.6877589437393645,1.7319977350056852,2.477104300197609,3.468241287014867
1570181839637319.0,6.82322243959363,5.070641568903632,2.2614208541280902,1.4659244216535434,2.711562608672238,1.7393795439190378,2.4883497816689415,3.5354099185285555
1570181839638133.0,6.946123225699499,5.133583435910875,2.275948613886388,1.4738805918901554,2.7330281777556285,1.7472769209860695,2.497810905887639,3.60409071532104
1570181839638133.0,7.0705060741307895,5.199975570733294,2.2909776414799836,1.477894485490728,2.7546357139629105,1.7550785995083966,2.510272431342957,3.6784100207623887
1570181839652205.0,7.196475593203126,5.272244360118156,2.3021886964872476,1.484127953151053,2.77402709655163,1.7654279412919898,2.5186543925136684,3.7502740179867637
1570181839652205.0,7.323323402595755,5.3473868073981325,2.3102473970435664,1.4891402786354149,2.792885241172186,1.7778144763162846,2.5310914242919567,3.8229357730010114
1570181839652205.0,7.455107827597521,5.4256686514284365,2.314983283614374,1.4976939690296585,2.80712891364605,1.7912509465441055,2.5424598437496675,3.8929282132613436
1570181839652205.0,7.590038721290327,5.503473650737433,2.3193337427032574,1.50524613341269,2.8199591745675137,1.802955836592425,2.5579124196417697,3.9672253209541366
1570181839675252.0,7.7301794128350805,5.581674961055122,2.3235894355119684,1.5140023281672716,2.833288352093677,1.814156180848381,2.569262105843541,4.043374916990591
1570181839675252.0,7.874349185544914,5.659164631773681,2.329757958161007,1.5188320528644497,2.851535057749052,1.8243144604349357,2.581953445769499,4.125016076870852
1570181839676035.0,8.023673579446477,5.73858007532015,2.3370442400740776,1.5247061614772852,2.8702739555541497,1.8346389220515624,2.5909389319228238,4.204978697185695
1570181839676035.0,8.17501271596469,5.818766259902151,2.348884031382201,1.529453591476537,2.8910132714964707,1.84451364039356,2.6044352663706456,4.286686201059949
1570181839696975.0,8.330402338678867,5.900041001939495,2.363262788886134,1.5379293721839358,2.9137156206216512,1.8556295134907634,2.6170739332303325,4.364476309931933
1570181839696975.0,8.486417670346716,5.980077801716793,2.3796575687400416,1.547188556824217,2.9406946328086354,1.8656685216375317,2.6339245298305403,4.439230241938498
1570181839697971.0,8.645724272745262,6.062145479201509,2.396529368044707,1.5618823883343176,2.9687026210296263,1.8748916935597235,2.6471228833287537,4.503323782802596
1570181839697971.0,8.809069486715183,6.144920281328421,2.416045015626016,1.5763214801754468,2.9997124073047248,1.8845372039772648,2.6627621861557826,4.562119883515303
1570181839711932.0,8.977942618784507,6.229703430682882,2.4380886591297353,1.594022267290741,3.0314472307285785,1.8953808470654827,2.6746664694580864,4.606254020406892
1570181839711932.0,9.148925178429407,6.314781497223472,2.464496770341303,1.6115926503376923,3.0665873935753174,1.9036709881367306,2.6885832255172337,4.6352116311039495
1570181839711932.0,9.32241386367064,6.401394514376729,2.4920869809021364,1.6315123228057047,3.10178734882813,1.9109929627315634,2.699602035620446,4.6551745215671705
1570181839711932.0,9.496098706312551,6.487393343322149,2.5218759232485746,1.6484387393063034,3.1369931911249216,1.918804206793263,2.7136385839304475,4.678024262421808
1570181839734877.0,9.671922484085826,6.575972113237649,2.55301233478362,1.6675267447219022,3.1684985582934324,1.9269944278997404,2.7232575255191906,4.699839902392345
1570181839734877.0,9.84825309653834,6.667040591411504,2.5855774905832987,1.6845638940675776,3.197803022319661,1.9333611804127546,2.7371047025239363,4.726935131540354
1570181839736866.0,10.025827547501368,6.760161281231846,2.617750783188245,1.7013230870407314,3.2231357773332463,1.9409774610180857,2.7521981007677,4.754052398972796
1570181839736866.0,10.198936891515459,6.850243435473099,2.6516796659046924,1.7143725023374985,3.249009015528748,1.9481354051086057,2.7746287957485345,4.785580882981733
1570181839757857.0,10.360632849327292,6.935796710860269,2.6846331340431346,1.7298394777313337,3.2749382109089775,1.9520844311422345,2.7963700388206694,4.817996240430772
1570181839757857.0,10.480790488710385,7.006479629484779,2.7143465751096016,1.744691932462955,3.3027485844396254,1.9521592414386213,2.821128365722402,4.853414152367384
1570181839759058.0,10.528369673869989,7.051760607343488,2.7369471378300534,1.7639626650107973,3.3295715927278686,1.9520619660210332,2.842013033763629,4.884203628707498
1570181839759058.0,10.53094619788845,7.080761757642254,2.756607357643996,1.784694769163091,3.3565326916081393,1.9522253836738868,2.8663155799465443,4.913990713568184
1570181839771776.0,10.548627847235103,7.114741127942823,2.774966842092002,1.809766136593058,3.382054224340452,1.9528227830906242,2.887472016109639,4.943464606581908
1570181839771776.0,10.588353050608356,7.147525656930168,2.7915989433436748,1.8335299700275147,3.4096500694196394,1.9506507436954912,2.9098911285489555,4.975797958038064
1570181839779764.0,10.635976567226766,7.175121136637935,2.8052503006992398,1.859579297904578,3.437590924063956,1.9473478737354932,2.929731430510372,5.008504489261053
1570181839779764.0,10.688656000009553,7.20497602071578,2.8196303345050087,1.8848745612040332,3.4680201924677845,1.9453074485761352,2.9552163485949157,5.0506526149291435
1570181839794719.0,10.756822536081508,7.242134201212021,2.8321627691535425,1.9116963848422415,3.4976433632343116,1.94615682606862,2.979103085260819,5.0973081610963735
1570181839794719.0,10.841592133931071,7.281685790664346,2.8423607768630297,1.9349606457693531,3.5283239808808413,1.9463195269436866,3.0049810716599317,5.146954272005865
1570181839796792.0,10.929163675776753,7.32058992976013,2.8489171649108953,1.9593010280387813,3.5596589323232415,1.946728691726095,3.0240662331350188,5.187370893281866
1570181839796792.0,10.986354220808854,7.3468877816342255,2.8531950887478694,1.9811039599332116,3.5927002850763414,1.9491172498480578,3.0414276663680706,5.223481475452709
1570181839817652.0,11.008452756788294,7.359381603089939,2.8561924900528366,2.0021353500894916,3.6225618883075157,1.954040193992746,3.0523605834889116,5.259468448297794
1570181839817652.0,11.028801632628134,7.36800057037699,2.860355516437583,2.0183030039320857,3.646713360449316,1.9587852709681726,3.063874332490827,5.2944363021115155
1570181839818761.0,11.04932812684692,7.359978433608894,2.8577992268994246,2.0311930108805982,3.6551876914558505,1.9641689274318435,3.0676088349306645,5.315264680897475
1570181839818761.0,11.033390043575865,7.304783233765462,2.8396867337457845,2.0303796391754703,3.640703386036722,1.9671883112321102,3.063358321918053,5.308404555302133
1570181839830699.0,10.98513025970532,7.212716331869745,2.810234014833641,2.0177911152952897,3.6051890419432833,1.9682570796519592,3.0497641561910696,5.270353795033087
1570181839830699.0,10.918429660806488,7.1130541625917,2.7854048474934126,1.9953219901797745,3.5509496205139297,1.9698644814453652,3.04471071658825,5.233282495718132
1570181839839649.0,10.829568116405268,7.022824374407514,2.766458646577166,1.9680165024813678,3.478940104374682,1.9719641703124926,3.0449216292561294,5.205398966625456
1570181839839649.0,10.73187981366454,6.947028011905873,2.748874079641834,1.9368253985413013,3.408241899048718,1.9706148818772846,3.051032473455512,5.184357039313858
1570181839862568.0,10.652576052611463,6.887960195069182,2.727923790030688,1.9091842137248274,3.336663939480299,1.9675498728599545,3.055906508984629,5.163923248963842
1570181839862568.0,10.602410430690396,6.846472670959271,2.7041691982998834,1.8799756351026924,3.2553334262936384,1.9643436205837634,3.065687248595447,5.151021358332846
1570181839863806.0,10.576516076908762,6.818325139112991,2.6799620453490403,1.8494880549821664,3.1665845914532964,1.9636915209449761,3.072809362860636,5.146200943083104
1570181839863806.0,10.563591820117958,6.790036179010843,2.662218840204556,1.8202602006783435,3.0825289416580444,1.9651241696115556,3.081904161603349,5.147845280429355
1570181839877712.0,10.564968686624322,6.75987549664224,2.6491269445616283,1.7983371856577794,3.0069767032681427,1.9677381330362558,3.08861865119182,5.147538491498764
1570181839877712.0,10.588834375631762,6.733759273651811,2.638122716248423,1.7780923877455188,2.9377218056775622,1.9693853303236295,3.0984193479150237,5.147734711910389
1570181839878907.0,10.635775239806806,6.7156074934135725,2.627038415074459,1.759178665153497,2.8712832630318625,1.9725054771766777,3.104512817522755,5.144319655848347
1570181839878907.0,10.693086790492943,6.700282192091212,2.6149237732418897,1.7396100934803949,2.8107807506711295,1.9778350335488941,3.113042187565723,5.13893517041843
1570181839891548.0,10.762801574652217,6.688477774305499,2.6010432539027035,1.724936311731094,2.7549191001766227,1.985993211144858,3.1201031361362843,5.132259084466896
1570181839891548.0,10.856036483653236,6.684229143077941,2.5897021138611143,1.711739905547079,2.703284521129797,1.9929895099502473,3.1308750124169387,5.131014219489751
1570181839900436.0,10.975479050290865,6.6906620611048675,2.5814566639241074,1.7016248034713397,2.6514794407010513,1.998189768920813,3.136945137374144,5.125317812996799
1570181839900436.0,11.109725176286204,6.702831708032563,2.576462490508907,1.6927860927791265,2.599124740447705,2.002039120608555,3.1458186908276393,5.117867892395512
1570181839914430.0,11.238250173304264,6.7135402211876025,2.5728306774924823,1.6872005619810042,2.5470358979003045,2.0050860332154152,3.154774533365458,5.117122543701561
1570181839914430.0,11.329573594616067,6.702381673307759,2.570265618079265,1.678374595516238,2.496921121548023,2.0068681498477114,3.1656336413555017,5.129942746702571
1570181839916387.0,11.316488210829368,6.626411373413991,2.561132559718951,1.6682144150474811,2.447941464363491,2.0105942165753574,3.1704625509821494,5.142416612037225
1570181839916387.0,11.166253274659715,6.478844052370097,2.5451991610659643,1.657112059343805,2.402930452270491,2.014850900387102,3.1766725348154097,5.145054201122945
1570181839937348.0,10.961221952432776,6.313831313615777,2.5289171814360083,1.6485395780623242,2.35971276125461,2.0180167828719258,3.179958564301385,5.130320960294764
1570181839937348.0,10.76821821807071,6.159394681679104,2.5146785572658623,1.6384735167404945,2.3199688822698383,2.016940709711274,3.1857539390908904,5.102698555284669
1570181839939326.0,10.574652991958684,6.0183641680338305,2.4967790199920565,1.6261754380755113,2.283222736280205,2.010353436382128,3.1865463941600063,5.072490889374011
1570181839939326.0,10.375594728359845,5.896992456181811,2.4754904478472484,1.6082973056829204,2.2521554355223836,2.0000976182079704,3.1880252224399332,5.054882253506122
1570181839951404.0,10.190550921217218,5.789858674168582,2.4544414403806885,1.5898570560022673,2.223545619940413,1.9919283439685105,3.1881809853701206,5.041426480126063
1570181839951404.0,10.024609605681112,5.68829196691653,2.437660279793247,1.5699094319095095,2.1938756333268166,1.9849472620782531,3.193760341637738,5.033017807190755
1570181839960276.0,9.875928117543713,5.590327826533592,2.424754926070344,1.5542780955968964,2.164244341112599,1.9780794858457638,3.20066701572295,5.031419924964322
1570181839960276.0,9.743283673313998,5.492609091533867,2.4172097427273043,1.541202554962772,2.1422952604764367,1.9707559555005492,3.21355621672803,5.038581516595257
1570181839975406.0,9.62428774137038,5.399621190304721,2.412501685958674,1.5307177344831997,2.1257857504136393,1.9624884194206178,3.2230886163623755,5.050327439077121
1570181839975406.0,9.513478624140792,5.310038714372011,2.408578659355217,1.5183927885021138,2.1138820827753086,1.9507701413714658,3.233539196027745,5.067639876170308
1570181839977016.0,9.385534576746688,5.212872116288003,2.403900429299053,1.5068386771641258,2.1038517495475846,1.9389818452115066,3.240439276514708,5.079025915715247
1570181839977016.0,9.221189216583355,5.105836753052416,2.3980721984807007,1.494910734122323,2.094206035886239,1.927657569308867,3.247932100131575,5.086540175638892
1570181839997552.0,9.033020663406393,4.990682166960188,2.386074039683845,1.4854898802385923,2.082146203524605,1.9175900401536743,3.2515997076504277,5.0961896438710745
1570181839997552.0,8.836083796563688,4.856304541054232,2.368316493183168,1.4748431616026707,2.071101846444737,1.9090950210956954,3.2591972183535476,5.109679965559617
1570181839999170.0,8.62953446785238,4.703211816256687,2.3476095637690624,1.4666370262784307,2.0607587649640253,1.9032846465444953,3.2665069743683603,5.120389877464783
1570181839999170.0,8.417128404668034,4.546962054084785,2.327312653681333,1.4598406692269936,2.05381581082739,1.8996845847110924,3.2807411453014503,5.131410324177209
1570181840011217.0,8.201474163009363,4.395262635117615,2.3060081877612584,1.456975343961096,2.0486443798868184,1.8981697097191794,3.296274171631374,5.141131723075133
1570181840011217.0,7.9768003118000435,4.24792525598097,2.2862521880703692,1.454290872075142,2.046258488153488,1.895245563599841,3.3158097885508013,5.160095792219694
1570181840020115.0,7.74645379528607,4.102215938000827,2.267575533274622,1.4528088018698597,2.0472315439696156,1.8921677468767837,3.3331579334436263,5.185006086395363
1570181840020115.0,7.523948353452791,3.9587646685778344,2.2489040559083553,1.4479880472372388,2.054478711184829,1.8908003615571374,3.353676459485043,5.211924091169817
1570181840035212.0,7.314055468705329,3.8219985867169046,2.2282631395582615,1.4420842071165358,2.0645956722049985,1.8913778817797557,3.3688336605391367,5.233750529332848
1570181840035212.0,7.111743536199768,3.6917956544536996,2.2084686588160123,1.434369999022177,2.076786069280327,1.8901929357493112,3.3772360417250056,5.235013871776619
1570181840036073.0,6.913847204032766,3.5709443861305066,2.191236188610845,1.4310672739113488,2.087709942828519,1.8883349582919895,3.375555217846344,5.207750115308694
1570181840036073.0,6.723989631567014,3.460635388737254,2.176497864442475,1.4303336229280401,2.0993540384743645,1.886633894927106,3.3794955488265583,5.1791484831093
1570181840057242.0,6.533553979535394,3.3539327925342084,2.1618326596747592,1.4328805992256546,2.110728011861513,1.8857139534883922,3.386678481567249,5.154486941665073
1570181840057242.0,6.333608021040986,3.246465754984754,2.1508405357175193,1.433576172402138,2.124827403825499,1.8862215508712272,3.3992094671105595,5.13255530560079
1570181840059005.0,6.133042633142819,3.144148498380581,2.1445521668925798,1.4350628119521256,2.139785840411805,1.890961560497793,3.4089556506867,5.112764112591923
1570181840059005.0,5.94392950202012,3.0498295000906896,2.140554868311244,1.4342100911198954,2.1539929257599137,1.8971133697887086,3.4196411910698163,5.101353401802911
1570181840070977.0,5.76325955998352,2.964002523903603,2.1345449988518412,1.4323685748971011,2.1638600169352844,1.9037392691789181,3.428646725864571,5.100070970767412
1570181840070977.0,5.583637059099873,2.884430067729186,2.128978998288136,1.4281880681846584,2.1738338817480907,1.9112101694667956,3.443607363217086,5.110724996413395
1570181840079958.0,5.403310794143894,2.8103840122018373,2.1251037144856615,1.4277305519952856,2.1847211753859628,1.9208636508258476,3.4579891072013447,5.12703593768733
1570181840079958.0,5.229071998916436,2.741554582361198,2.1239441424039467,1.427548121084262,2.199107995710501,1.9292930301729905,3.474901421353794,5.152149170433374
1570181840094914.0,5.061103403844956,2.673542068499689,2.1210486656764647,1.4306926249981453,2.2142460055244406,1.934452827465366,3.4889535054610366,5.183978475367717
1570181840094914.0,4.893122535405858,2.6035679962120915,2.117543395990815,1.434123666455697,2.230420223218954,1.9352296335461363,3.505420546890043,5.219537178294027
1570181840095909.0,4.72517479483149,2.537882718731213,2.1161032422442436,1.4392979207489975,2.245916220719644,1.9343926937160214,3.5187093334436974,5.254451525435217
1570181840095909.0,4.565523983178157,2.4800990851659255,2.116339714114997,1.4429818636040532,2.263452737554189,1.934015040237123,3.532890561797295,5.297927249518915
1570181840116852.0,4.409924018819761,2.4298231586884405,2.1162933550355296,1.448975342358371,2.282553957626411,1.9374153098530593,3.5430465900337644,5.33898402811942
1570181840116852.0,4.249875485334638,2.3866342995417456,2.118823413201848,1.4553935452743134,2.3052850167744396,1.9430299746146424,3.557011485430026,5.373799686331154
1570181840119356.0,4.090798221640331,2.352576102941617,2.1230603335142892,1.465450530706409,2.327709662705782,1.9501648864904682,3.5721704056077597,5.409920604433434
1570181840119356.0,3.9432930768773904,2.3254697864884024,2.130046541016864,1.475769038634667,2.3506630146639016,1.9589539732203942,3.592607288086546,5.4549935584807905
1570181840139924.0,3.805119790942944,2.303722553658291,2.13954603092455,1.489802883256678,2.3740037063411994,1.971025111814666,3.609934550108664,5.503470955851214
1570181840139924.0,3.6732290399125467,2.2863415743330644,2.152155913751953,1.5028296046027947,2.400181784153907,1.9837785960394945,3.629043030897803,5.551244327816661
1570181840141793.0,3.548560937970877,2.2758060356994236,2.1654915854077554,1.5162984110808873,2.425651152092315,1.9949812693318107,3.6456437378789692,5.5827595793063
1570181840141793.0,3.4316532542844915,2.2729405816794035,2.181585876471141,1.5276331062182942,2.4520069325109044,2.0032504700877167,3.6630967650429413,5.58955657548416
1570181840154911.0,3.3176999674117704,2.2790825169355355,2.20030556753481,1.5414426914788724,2.4778194091923176,2.011486585932813,3.674894397829893,5.566493124439567
1570181840154911.0,3.205006284301893,2.291299672478308,2.2214452451700355,1.554680043836941,2.5030850282353505,2.0197927066120642,3.686733657483292,5.528841392232085
1570181840156743.0,3.092933081661996,2.309124928284811,2.2416616808212155,1.5699591854920316,2.5243389797652047,2.0296419778739714,3.696042473108941,5.4914786543429575
1570181840156743.0,2.9843572139667036,2.331569652373935,2.261171951137671,1.583767149119368,2.5433306294167024,2.0392818274186673,3.707438690011317,5.464930129955941
1570181840177876.0,2.8810311535833395,2.3571515839759463,2.277355595970426,1.5988212808664837,2.5594558425558636,2.047305481351794,3.713573035642635,5.446270544751984
1570181840177876.0,2.7846004513791875,2.381403360954604,2.28728283091124,1.61098190681888,2.5761244415371487,2.0539580143854876,3.71821712153967,5.423603862157341
1570181840178689.0,2.696029276719146,2.4048889750974003,2.2902594752857968,1.6206910082784944,2.5937497483701377,2.06292324645048,3.719009551779046,5.387562921240923
1570181840178689.0,2.6151510864648393,2.426826947431237,2.2897731871565026,1.6233469375170462,2.61578736611574,2.0728616160014783,3.724770263084874,5.353650868076616
1570181840199632.0,2.538467021986218,2.4504501602216737,2.2870273624877417,1.624775049162901,2.639096761873883,2.082854356895972,3.7303064148795078,5.3253141179754095
1570181840199632.0,2.465609204169156,2.4774303195677843,2.2872652476015367,1.6246890198586006,2.663712985474065,2.0921114251589237,3.7386645885089584,5.302584342640131
1570181840201626.0,2.398300329222757,2.5084224210337256,2.287730509474477,1.6274207189637209,2.6857984855845998,2.1020103631489673,3.740859701458923,5.274148595367334
1570181840201626.0,2.3348031144902404,2.540790242332054,2.2852388656372975,1.6322084826824046,2.703481160747231,2.1122682250125475,3.741409253066804,5.231405601341667
1570181840214590.0,2.2715294004016098,2.5742622405078563,2.2807259056563796,1.6432023080955875,2.7149726075224185,2.1250005230952795,3.742289218958829,5.1761561185941485
1570181840214590.0,2.209283503289572,2.604875138363943,2.2782765623014445,1.656030807563557,2.726877359111199,2.139478047229662,3.750579893691597,5.118830507986018
1570181840216592.0,2.1532244959804787,2.6338439367983897,2.276093875911213,1.672629913675557,2.739873204470611,2.154069003557883,3.7585413572523816,5.064045400036058
1570181840216592.0,2.1066380239442686,2.6636710400676162,2.275294414429036,1.6884335400143726,2.753920646945745,2.165810938438235,3.7702393513687604,5.022176085975759
1570181840237569.0,2.0674142021669786,2.694777846601975,2.274355668636322,1.7040716607694213,2.766851418304157,2.1772697520279407,3.781545983651192,4.992650361804542
1570181840237569.0,2.0333125272285124,2.7217759217657416,2.27215491291069,1.7163956661885007,2.7809301157354094,2.190962341604635,3.7958262494175283,4.971349119540695
1570181840238525.0,2.0054541336991556,2.747126291638147,2.2691877026312346,1.730055512635985,2.7927909020672463,2.208440119133887,3.803631126968056,4.941523329989438
1570181840238525.0,1.9841839765227929,2.7727457755883886,2.2682633679656097,1.7415438632446478,2.802818222214935,2.2274525912982144,3.808054962672182,4.899195944154992
1570181840260504.0,1.9671142417940846,2.7966121890990214,2.2648324168807257,1.751730264632678,2.8100920275711427,2.2475630904746136,3.806110616271317,4.841624211316169
1570181840260504.0,1.9512613452741212,2.8169390860721926,2.2594762043583914,1.7554992693619258,2.8194809031923933,2.266386211421674,3.806391758130667,4.7730757795835075
1570181840261465.0,1.9409182465366572,2.8412054941361116,2.255488611107262,1.7563924801546396,2.8300387093047434,2.2818122606449456,3.809218159794455,4.710027526687829
1570181840261465.0,1.9385412969405489,2.8697719670205846,2.2548389884207305,1.7528027558333845,2.841874467277852,2.2922978371791993,3.8209595023785057,4.666160751718704
1570181840275428.0,1.9411813533307107,2.9022321947631324,2.2554977991328715,1.7486997510224596,2.853749192255216,2.301928758777946,3.834816768166401,4.635294457395676
1570181840275428.0,1.9454921206879048,2.936250967279585,2.25570445595083,1.7429991704481962,2.867230820883289,2.310501231550392,3.85405011743873,4.616183083741545
1570181840276432.0,1.9539390406582462,2.9696675116982574,2.2529904903796387,1.7397363572130684,2.877276749189736,2.317893464808311,3.872694920298294,4.606449296063924
1570181840276432.0,1.9677795516888064,2.9997518904273224,2.252417930184066,1.7348898261153278,2.881785202622564,2.3244893058689167,3.8945255364305087,4.606422936826479
1570181840297514.0,1.9850831211532274,3.030707426949089,2.2563513927398597,1.7313087974360903,2.87939918703975,2.3314252362568046,3.9154248680136434,4.60814654623528
1570181840297514.0,2.002965609595498,3.0637961120577653,2.2655583436202593,1.7277712268830536,2.8767145633241173,2.337466609403915,3.939006239041372,4.6119093064884
1570181840299365.0,2.0212976260203477,3.1012040544716615,2.2765337413117472,1.7281741426405728,2.874633663539222,2.343291246529413,3.9582246389680287,4.61487786722416
1570181840299365.0,2.0390320802349713,3.1415508812694863,2.289222308228589,1.7286563825463932,2.872882990856621,2.3476078492056534,3.981128285452126,4.619721057980731
1570181840320309.0,2.058660222505045,3.184309696135122,2.301736312432875,1.7300244923169987,2.8685358810757586,2.3500622468651313,4.006510393075166,4.61754503352756
1570181840320309.0,2.0800632597998328,3.225859339241669,2.3134507406731375,1.7277569649285418,2.864548301478832,2.3497732590765064,4.0375715916357295,4.610566691443225
1570181840321304.0,2.1049575417235333,3.2664829284734105,2.3250922901507525,1.7245786726067514,2.8613511457428347,2.349798174075985,4.067160145318857,4.607776725402744
1570181840321304.0,2.1322310772906032,3.3058806749758474,2.3397390558935505,1.7196586686564255,2.861337628589101,2.3509574133370004,4.097992828270399,4.610504832059551
1570181840333273.0,2.1613714890790057,3.3466029685438006,2.3540745648816896,1.7181457717688549,2.861651668085211,2.3534768464963243,4.124316074208072,4.612719726681718
1570181840333273.0,2.1922066860369798,3.3866840902553927,2.3665023386744157,1.717780185178381,2.864414725697494,2.355797192731943,4.151483187693603,4.622384854351322
1570181840342250.0,2.227506622593574,3.4261223409153345,2.374656984412874,1.720117736729221,2.869857078405842,2.3604719030071863,4.175245528542726,4.639721499191914
1570181840342250.0,2.2634982466904825,3.4639479663459234,2.3814648267774094,1.7222351261554842,2.8807113901464816,2.368529994385388,4.20042944491103,4.6665258359633475
1570181840357207.0,2.2954849513850015,3.5023217308087684,2.3895033459599744,1.7288252703021987,2.895179271603794,2.378850737304522,4.222297047747502,4.697522765717168
1570181840357207.0,2.319107121182453,3.540803373882061,2.400568101381167,1.7356861974240307,2.9132285449931796,2.387135900727027,4.245406941083974,4.731451355606172
1570181840359202.0,2.338335369407542,3.5798503523670866,2.411726578466792,1.7444511119314623,2.9312100554198652,2.3936061678524454,4.2643094633070655,4.760559664922793
1570181840359202.0,2.3570371218052117,3.6168056239506607,2.423959156098259,1.7514689666826515,2.9505300703014297,2.3996395053552337,4.282038725600728,4.785871599964161
1570181840380286.0,2.379097510965627,3.653159915988733,2.436854839332362,1.757761967246219,2.969619480405271,2.406902868871703,4.295559991494904,4.811419353993996
1570181840380286.0,2.4017962530683508,3.6881294410145786,2.450647229525476,1.7613367135324145,2.990235184960957,2.4127888968592193,4.31406851115469,4.847741016650961
1570181840381614.0,2.4216327186577296,3.723126501717365,2.4642794218252604,1.7657235952951196,3.0110496702905247,2.4170018050482573,4.333119155196544,4.889837142234372
1570181840381614.0,2.439149613213509,3.757040081099093,2.477958078443737,1.7672162445844422,3.0320923950999776,2.4195539257886773,4.354900947152315,4.937903127634083
1570181840394113.0,2.4603553561360374,3.791238170182162,2.490207225667726,1.77000197692253,3.0487533640871782,2.422784092841186,4.3743071326157015,4.989268547021623
1570181840394113.0,2.4830896993321736,3.8245752659304806,2.5021595825745333,1.7724702408654258,3.0623000339264577,2.428189195532336,4.396319190584228,5.044186589179798
1570181840401437.0,2.5069432498088666,3.8584484082842785,2.5123314808587187,1.7759740138436029,3.072470970494737,2.436503770063615,4.4164014582114675,5.099213215477362
1570181840401437.0,2.5327764381404925,3.891744542230244,2.5230343457357445,1.7741329267568466,3.0822811408016224,2.4437106343721093,4.437226105147368,5.159716411737844
1570181840417238.0,2.5641726287193918,3.9262048997487096,2.5335220637126734,1.7701110112217426,3.091341424162922,2.4480357437978104,4.453371581800343,5.219705631663498
1570181840417238.0,2.59885315175384,3.9612793180875894,2.5444374130499696,1.7635724889815496,3.101167748943825,2.448979249644034,4.46966908538567,5.276719664360445
1570181840419096.0,2.635430880984379,3.997584278721637,2.5543145456908913,1.7584912989693327,3.1095814003425497,2.447757742743696,4.479685727602446,5.327806689387676
1570181840419096.0,2.671374120913194,4.032706453884337,2.5631459807943355,1.7531679770741497,3.1174220723660495,2.445292462285835,4.489773137004668,5.37206068967901
1570181840440144.0,2.7088313123738588,4.066464621137457,2.5700340378802853,1.7481733706972922,3.121564724900492,2.445483443361453,4.498813473717936,5.396613893707339
1570181840440144.0,2.7484785857566347,4.097652576899371,2.578870786913868,1.7392148104689211,3.1254394195074244,2.4486107600001845,4.513707192615372,5.414413316267077
1570181840440982.0,2.7927885199679765,4.1292702291345424,2.5910005719198153,1.7308659880011352,3.1301387815287036,2.4539275378833665,4.530864130506626,5.443007446835714
1570181840440982.0,2.840085064809833,4.160777689832511,2.6064428079458506,1.7207366328906395,3.1366089392974343,2.456695146478086,4.551072731170411,5.48404781050231
1570181840453954.0,2.8888590204440603,4.193633077772614,2.6223583042549237,1.7136306379144113,3.143875377626944,2.457517526406288,4.568050558447864,5.525439064184896
1570181840453954.0,2.9355705208171536,4.225549874667959,2.6403281709087842,1.709851779359446,3.156118535998913,2.459431525203058,4.5874679272117,5.567238189578792
1570181840461966.0,2.983338190741826,4.255547108509084,2.6608824178265995,1.712776930846884,3.17158112060139,2.464354318642399,4.6062148083116465,5.609061546846455
1570181840461966.0,3.0320649532372883,4.281689101487575,2.685536433428345,1.7181630691790042,3.1897128816290343,2.4703438964558218,4.630501815123435,5.6559180184303735
1570181840476895.0,3.081685426028432,4.308231764601457,2.7117963649993793,1.726964116659436,3.2061416433854912,2.4766087715972036,4.654296860966121,5.7044747389697585
1570181840476895.0,3.130642605856281,4.335543203935329,2.738955689948135,1.7337229322416425,3.2211906516023388,2.4800018855281474,4.679629055342112,5.757628031086424
1570181840479131.0,3.1810496457220307,4.362847411307056,2.7661315540073352,1.7414847637347906,3.235466234728009,2.4820190178387658,4.703522808491408,5.812151446872112
1570181840479131.0,3.232696402619095,4.389586788164763,2.794955553729266,1.7490718621330472,3.2517406664070236,2.4857335846192514,4.733249163273558,5.867142774045916
1570181840500041.0,3.287154245851465,4.417390725097289,2.823000095815878,1.7593640695024835,3.2672890867946496,2.4915249188818143,4.763850757106353,5.912951747613357
1570181840500041.0,3.3412101534209686,4.444595394140232,2.851203559397235,1.768849484257276,3.2842310088333044,2.496036843161516,4.796995955801363,5.942442664426826
1570181840501828.0,3.3937735496313737,4.472006270776302,2.8789092567203514,1.7800960381667774,3.3000083783341214,2.499318679186227,4.82694824259339,5.947175361096858
1570181840501828.0,3.4417081682951407,4.498122513167516,2.9053191940839462,1.789454467487746,3.3142353340799624,2.501753570625636,4.859015792855558,5.939325296817455
1570181840514014.0,3.4825693042069594,4.5250972549321276,2.9277686248361814,1.7984327731889622,3.326291225402968,2.506149842723686,4.890072479653474,5.924210857704199
1570181840514014.0,3.51395734156853,4.551705235657293,2.9472428590553275,1.8033189466343496,3.3396300102833023,2.5125194680142124,4.923828620282817,5.896629455530311
1570181840522768.0,3.5437977472527855,4.580462268914615,2.9638053326835467,1.808297661373833,3.3547617174118174,2.520772520241484,4.95243685096143,5.85938463771349
1570181840522768.0,3.5770389927886113,4.610563770812612,2.979896902913376,1.812263435929446,3.374592367414015,2.528881331351703,4.979667538169282,5.828112357164323
1570181840537965.0,3.6163893101750215,4.641846764515019,2.996109157575948,1.8188196849356162,3.3955883131227282,2.536031654628109,5.004332092107178,5.796104256770431
1570181840537965.0,3.659217317619463,4.673098834564191,3.013807669960418,1.8256229691363126,3.416647351445426,2.5408558368385044,5.03058530962487,5.760368951196344
1570181840538726.0,3.7037064717798294,4.704212544600532,3.030291395329243,1.8350359297618786,3.435257933439953,2.5454375518270203,5.05278488846306,5.723126251542191
1570181840538726.0,3.744494526412471,4.7333484259408625,3.046143248279127,1.8428083203520644,3.453382908198779,2.5511191689882735,5.078317945927921,5.6949394341313
1570181840560664.0,3.780849002489826,4.7632717119899,3.0602319198312538,1.8526579366326033,3.469845364975693,2.5591439842263783,5.103141275604187,5.674801020067386
1570181840560664.0,3.812363618739018,4.79472918666753,3.0727646542385143,1.8606851858452758,3.488491778561041,2.567642724718203,5.127141195466939,5.662795122923913
1570181840561662.0,3.8434548616469906,4.829058213215058,3.0835096319658373,1.8672551065107919,3.50902182705447,2.57752596769499,5.1459965169563295,5.656754454272724
1570181840561662.0,3.876888382808048,4.863592378785159,3.0945396231356934,1.8715792374031166,3.5305268341229854,2.5872790378334165,5.1669881609734,5.655859930578632
1570181840574669.0,3.9132826351237786,4.899507275754496,3.103996409112987,1.879332940996645,3.5498264588942576,2.5981877465630983,5.18532829316451,5.655468839279167
1570181840574669.0,3.9471044290213477,4.936520861416203,3.11295799269676,1.8883695006000538,3.569111059336057,2.6110213101778488,5.203300782693032,5.658381935682546
1570181840580965.0,3.9806014490318526,4.97660888214068,3.1211696230685964,1.9032200529522822,3.587029807870923,2.6248032755401787,5.2137367737661195,5.648289565645048
1570181840580965.0,4.017569710737997,5.017845482597867,3.1303828277450307,1.920229274922508,3.604948793709126,2.6373975834102783,5.219548526603143,5.608478616219946
1570181840597747.0,4.060602081034321,5.060696237248994,3.141056019188014,1.9409208130392357,3.623016540616463,2.648450584682292,5.2202453480381985,5.538555034369491
1570181840597747.0,4.105307245963137,5.10546967021474,3.154687158417184,1.9612441309488062,3.6455524913722575,2.6570603305299856,5.2270396990820895,5.460950100796588
1570181840598607.0,4.149229121813813,5.153840431764513,3.169146564216584,1.9827311386996644,3.6706877774962945,2.665468506277389,5.238701531782721,5.392517437913257
1570181840598607.0,4.190874788821553,5.203047268665425,3.183977729431525,2.0022824837828797,3.6977432681913736,2.6728302685940784,5.257922873845539,5.342596331333472
1570181840619677.0,4.233492148134847,5.252752736710939,3.1963266265464525,2.0228440779679073,3.7249890208508587,2.6808097651663947,5.279031850645839,5.30578833747441
1570181840619677.0,4.27399892853835,5.302221735965431,3.206280836535229,2.0407193596892577,3.754305856172219,2.6908645770039925,5.304416027626033,5.2791083915058925
1570181840621595.0,4.311338671390621,5.3533101711277435,3.2131725890341785,2.05973258172965,3.7823227994576,2.7049207579566437,5.329223975962009,5.260525519384185
1570181840621595.0,4.345731442248339,5.4032713769102445,3.21800417038947,2.0784858869197937,3.810049675333048,2.7221726460356233,5.357765822562328,5.250982185232913
1570181840634475.0,4.382673536948816,5.450626876411789,3.2209446196783063,2.0999394630211388,3.8374295871407584,2.7417450662190475,5.385968561252687,5.245339547188819
1570181840634475.0,4.422729760979783,5.494957350102897,3.224896855011817,2.1210637873658262,3.8657560990718784,2.7610410173076687,5.41784162251723,5.251769990212213
1570181840641539.0,4.465472573026324,5.542024808241524,3.2288475751011663,2.1453670657752277,3.8927700923714834,2.780934595275621,5.447296885219021,5.271050012946465
1570181840641539.0,4.507306275130826,5.592481464410929,3.2337936850775812,2.1689040684504857,3.9214371263142738,2.8010308940613693,5.479407965772233,5.301961309831525
1570181840656537.0,4.546961217341723,5.645667712724593,3.2415587364941785,2.192620686969768,3.950051676371516,2.819979273628196,5.5122464235497475,5.338160249918427
1570181840656537.0,4.583272030303831,5.698646891319856,3.254157819137749,2.2131081463571713,3.9774465421221645,2.835401440649962,5.550524770670319,5.379837363483827
1570181840665458.0,4.620052428073898,5.751246577605957,3.2671274918280604,2.234754361828118,4.00258742291407,2.8502610010968423,5.589108371401354,5.420275667167619
1570181840665458.0,4.65717458864978,5.80237515111606,3.2786737018585392,2.2548012937460933,4.030182171475247,2.866723556446774,5.6316292068356315,5.460436408997149
1570181840680272.0,4.694457860725722,5.853043940233968,3.288582789448002,2.2756622019596136,4.058895187789373,2.885219891999539,5.673589237029198,5.500049194178285
1570181840680272.0,4.728891902690382,5.901521260903793,3.2990472811863745,2.293546143609547,4.087754703783323,2.9043756002715266,5.717033807722572,5.540502489729053
1570181840681427.0,4.763171276435062,5.949634217983297,3.310327249523692,2.3099825094163986,4.111817057745488,2.925117029726139,5.756591135749181,5.579177608459966
1570181840681427.0,4.796076008014058,5.997338252005755,3.325506270508425,2.3238349011605015,4.131814343433853,2.944875723157583,5.7972706153184985,5.622333945351814
1570181840694568.0,4.827894436468369,6.04659795050049,3.34304452234659,2.3391742439473306,4.1510137367823905,2.961225219616762,5.8358155987261595,5.663459467425687
1570181840694568.0,4.859884554565053,6.09544656715,3.3602177671001026,2.3519146219833935,4.174963628481308,2.9726995794359383,5.874576742434341,5.699069229612416
1570181840701468.0,4.896026063424632,6.143856318267907,3.372789366256273,2.364644540795419,4.201045913637094,2.982746986722362,5.906958925131213,5.728511667975391
1570181840701468.0,4.936041476940517,6.191244762303962,3.3833554591252963,2.372215767916705,4.229408616497017,2.9938318947197717,5.939312550282547,5.759209645155678
1570181840717381.0,4.979451711274756,6.239417714317656,3.3954655037848256,2.376789212476317,4.258079936895772,3.008485290547545,5.968178180995001,5.786841667154757
1570181840717381.0,5.022446935626502,6.28796225995021,3.4119878170742832,2.37941613136548,4.288483759575356,3.0267939906568087,5.995209300509182,5.804925862466487
1570181840719239.0,5.065896544991528,6.339121140972602,3.43225837608568,2.384799604770661,4.3189081119587165,3.0489878638684393,6.01812911540413,5.811343948384988
1570181840719239.0,5.11035047422143,6.391631899776069,3.4562311348969152,2.3893810821237045,4.348864771939927,3.072459393137515,6.044605234311595,5.822091362145202
1570181840740416.0,5.157529437022602,6.444354626741225,3.480122501845212,2.3951290267891028,4.375382899856775,3.097895780012909,6.071972311929256,5.840685199817927
1570181840740416.0,5.204821428060925,6.493447868092522,3.505190196830901,2.3982781064245895,4.400436492877394,3.1253657474315175,6.1024465113095925,5.8598256422267285
1570181840741185.0,5.254007170205306,6.540507364493371,3.5319257141503058,2.4020168383917047,4.4243350396225525,3.1547805739323764,6.132029465976172,5.872332813839534
1570181840741185.0,5.3034566311705404,6.586260823824999,3.560919444469634,2.4046020202249165,4.448559093919595,3.184119932218569,6.167980291893756,5.890808039853741
1570181840753757.0,5.351434387407533,6.631970325775276,3.5902365276747745,2.4103509063962756,4.471191601707012,3.212607200663222,6.205230099555853,5.915817335494899
1570181840753757.0,5.3944287065874965,6.67790995152814,3.620285917307086,2.4165262662257496,4.494775851938969,3.239435328877194,6.2437301983840765,5.9422005159364915
1570181840762124.0,5.431721721349469,6.725412867584082,3.651079312925806,2.423878972939921,4.517885002060868,3.267042135628787,6.2761935902761365,5.960149325016703
1570181840762124.0,5.45965704677561,6.771277532640932,3.683305379810536,2.4307350302649895,4.5436010107669285,3.2948631166772575,6.306167884543957,5.9621094091910285
1570181840777139.0,5.483247042689029,6.815588063352179,3.7151307882373934,2.440611761411664,4.571403050926385,3.323598940701307,6.334855992448742,5.942448618465185
1570181840777139.0,5.510330732457683,6.858190480587198,3.7489042364460903,2.448813030445977,4.599345731159503,3.3522832186019342,6.370750809243278,5.918632658375865
1570181840779078.0,5.5442345194567855,6.902736269310705,3.783783006559131,2.459134156326113,4.623558863277759,3.3796786150882068,6.407926515892165,5.896235009773594
1570181840779078.0,5.578863690467696,6.949345091970081,3.8184803595737407,2.4695857928563,4.648768819006883,3.4055641589210834,6.446571654730639,5.868246917132819
1570181840800216.0,5.612030209045243,6.9984938006852815,3.850596582758842,2.4831759790536236,4.6757440691926435,3.431914280675724,6.479421618839939,5.816073972902186
1570181840800216.0,5.6456198201511425,7.048714668612318,3.8815544380883247,2.498038774599192,4.704279466194576,3.4592568062689044,6.5134317242523245,5.748189347112021
1570181840801149.0,5.68534830732204,7.1010594896946015,3.912894075463746,2.516940778352111,4.732123649091009,3.4899478065162097,6.5490698651226396,5.691826796938253
1570181840801149.0,5.728354301977052,7.15473388556949,3.9465719001337196,2.53696580366668,4.760947556272956,3.522221879244096,6.589552414550168,5.656202583873539
1570181840814036.0,5.772573396069334,7.211344888104129,3.978299428242749,2.559619802893812,4.790979857064199,3.55495789120488,6.628858839009551,5.625207302239359
1570181840814036.0,5.813742230753136,7.268317206253358,4.008311092605468,2.5791580875575684,4.824493341238136,3.585798475059117,6.670156770664444,5.592924493669746
1570181840822965.0,5.852279433524939,7.32521062485836,4.039736418973775,2.596422330525844,4.858695187834755,3.6146054848049562,6.711682888901066,5.558797123800479
1570181840822965.0,5.889472816438521,7.382575140461383,4.0750383743206955,2.6117208432498797,4.893087679207332,3.641461125046922,6.757185616815485,5.53140117570369
1570181840837930.0,5.9298200687189855,7.44176080111948,4.110471432639152,2.631060197778353,4.926240964077229,3.669904118106731,6.801563007239805,5.513334916012247
1570181840837930.0,5.976099418527646,7.501435547364376,4.145771356365426,2.650993611499219,4.963552321130885,3.7003758493772207,6.849856280983371,5.510039785814373
1570181840839252.0,6.029601450219825,7.564524901476835,4.181047170194853,2.672952628352134,5.005344130349879,3.731179785583188,6.898053266900696,5.516418714217811
1570181840839252.0,6.0856907255077966,7.6310321966731465,4.216950438261942,2.6930584193041835,5.051145875068106,3.7623731927203528,6.94952194080669,5.533031953999511
1570181840859913.0,6.14403873905436,7.700845775312044,4.251016057522937,2.714301504632871,5.097603055473808,3.7969162385463493,7.000172756205683,5.557137589771312
1570181840859913.0,6.202519661525768,7.770086949429567,4.282172797035643,2.7345262995894166,5.144602487719501,3.832773474651096,7.053398092295236,5.586647446187702
1570181840861023.0,6.260102693242499,7.8404500173319045,4.310117182445541,2.7570837463959887,5.1905763778535405,3.868803695897907,7.1049341367974685,5.61484503030914
1570181840861023.0,6.314489736784792,7.9140004734480245,4.338672127508979,2.7801592899051464,5.236106676146285,3.904685101440603,7.16011907944592,5.644780862201371
1570181840873926.0,6.371474789252194,7.9918822755195205,4.368904978342084,2.805835869134129,5.278333461287725,3.941861943841692,7.215127883699337,5.676941419166154
1570181840873926.0,6.433709557413378,8.070576659981795,4.4015920848500665,2.830341282371883,5.322380754537326,3.97839851981626,7.271594263698632,5.717692323416026
1570181840882987.0,6.499279743474906,8.148951426973689,4.432006648221379,2.8573737215287767,5.3698947596650575,4.012962438237752,7.323977865309683,5.766005624493044
1570181840882987.0,6.564296614985574,8.227058224095908,4.458856341970273,2.883557028871075,5.420022819054862,4.043864064083227,7.376334558454491,5.8248256677746975
1570181840897814.0,6.629976160195285,8.307150920730315,4.483112836497051,2.9101506643738624,5.470160468701237,4.072020422760763,7.42801125496681,5.8882667278877925
1570181840897814.0,6.69698242539145,8.387283740135167,4.509867932473103,2.9367312373681678,5.521336254189257,4.098422828247586,7.485389233163261,5.957598373443925
1570181840898762.0,6.769001454026865,8.469103110345543,4.53899027571148,2.968275791380935,5.571210191521721,4.125706996939675,7.545729212618935,6.030279319385463
1570181840898762.0,6.844182730767375,8.552969428974798,4.56821590450402,3.0004368661778007,5.621710147479152,4.153633523310436,7.613160508143079,6.109745940899234
1570181840919706.0,6.9206173443098935,8.639382368203401,4.598718390743909,3.0334983877050603,5.672021684570919,4.180774986632229,7.680961985153473,6.194583471201788
1570181840919706.0,6.9958515030075015,8.724554252421115,4.63309127242633,3.0638032150660908,5.7241623923603875,4.203396535363234,7.749135591133738,6.283679895272046
1570181840921784.0,7.073760830634528,8.807935829032404,4.6657677413559115,3.09509540478291,5.7771812845667965,4.223719041852035,7.813359014878376,6.372345849797454
1570181840921784.0,7.154596240120524,8.890343791690444,4.699032335193213,3.1256433764531093,5.831376884716802,4.245406001836265,7.880742778227301,6.465889706108575
1570181840933985.0,7.236734690796619,8.974290990824905,4.7378225872549615,3.1572504327155118,5.885696087806762,4.270390124366575,7.9495148711433625,6.560505541685293
1570181840933985.0,7.3175312559635035,9.058121095164516,4.782567078046296,3.187518453299396,5.942239433890482,4.297176921385683,8.021345441081689,6.657785354588973
1570181840942687.0,7.400939640705955,9.143373387771177,4.828864254044969,3.220321036340955,5.998483583335645,4.326048199627756,8.089537348348518,6.757256266772098
1570181840942687.0,7.487244366250125,9.229997555457304,4.876313050678014,3.2524258954686402,6.055801418738408,4.356272093189928,8.15833959321047,6.863903753246619
1570181840957855.0,7.57512734950542,9.319940035816913,4.924866912314511,3.285356293328919,6.113302498891354,4.388884105413521,8.226552228521092,6.971760271151797
1570181840957855.0,7.6624447985973525,9.413641871939605,4.976845004895274,3.3145918974534814,6.172498615396998,4.423875318746916,8.298898845947797,7.08193445864067
1570181840958603.0,7.751354401309888,9.512069665375215,5.031023281080971,3.341569217162799,6.232174845658242,4.4610299500697455,8.370096855701785,7.191446426334845
1570181840958603.0,7.840023167999173,9.612584949004418,5.08557730619747,3.365574029518488,6.29385882045356,4.498377193294393,8.441801019158504,7.299714700253688
1570181840979775.0,7.930439975087709,9.716519341311686,5.137849339728914,3.3918024400549385,6.35631037214171,4.537249566926878,8.511779669087572,7.401106000737999
1570181840979775.0,8.022953749155766,9.823474786015003,5.190419643019009,3.4186123077908803,6.421364530317531,4.578444189665943,8.587902260201117,7.5004849686689745
1570181840981650.0,8.116755260152095,9.933403356671056,5.244765470129645,3.4499035184275364,6.488056399126857,4.622419122316418,8.66508844289074,7.592955870385174
1570181840981650.0,8.207552201968612,10.045754096509178,5.3020379891415566,3.4839813921706506,6.556577632070207,4.6661881958702125,8.742803133705149,7.66676351961384
1570181840993779.0,8.293970742934128,10.16292353317374,5.359837601340599,3.522564634595829,6.626140337544462,4.7094340598198805,8.820389720071091,7.725512280755128
1570181840993779.0,8.374835619739354,10.28338458023236,5.418628439550523,3.5600357749319866,6.698992382656603,4.752540822812225,8.906488923304988,7.793997666903399
1570181841002484.0,8.456068358451043,10.405463670973596,5.4774275615728065,3.59892665872896,6.770973351537134,4.794901952717677,8.995178642269538,7.8669419827057
1570181841002484.0,8.539791722094414,10.526645477797748,5.538740707992613,3.6397698328739776,6.842867288552915,4.832650057894636,9.086946704130636,7.933367575025348
1570181841017614.0,8.62677638958468,10.649941978802174,5.603978098802514,3.685511993408735,6.915341646067679,4.867783824667949,9.179107372971718,7.991540995364965
1570181841017614.0,8.717630668890115,10.776400782908981,5.673484465690769,3.731354016282922,6.989974759254349,4.906008618166543,9.277334300315916,8.05773996424649
1570181841018611.0,8.815117324335894,10.907473097611389,5.745310825399367,3.779555775978741,7.065083460758296,4.950485511610601,9.37819557586068,8.133109566905475
1570181841018611.0,8.916646486590942,11.042547623548623,5.820352874975474,3.8277158270578973,7.141912882803637,4.997207975592114,9.484181737145697,8.214662508308358
1570181841040410.0,9.022093200092293,11.18195253193499,5.897545994534808,3.8761450222856,7.218596406743139,5.0446365880183635,9.589891548171938,8.29653530693533
1570181841040410.0,9.129731972870319,11.323820244838739,5.9759011243967235,3.9199271569017777,7.295677676056522,5.092448276519916,9.697209976440329,8.37289855172451
1570181841041508.0,9.240532061839248,11.468000786043513,6.053385199325889,3.962383533995405,7.3719850941237075,5.141633276722627,9.803715520431401,8.438852736726597
1570181841041508.0,9.353341007270794,11.6117094034672,6.131689011295679,4.003826900325386,7.448948095759572,5.191685701832517,9.914837059446082,8.507669939276393
1570181841053347.0,9.467839887245285,11.756991847826013,6.210454727394279,4.048472394024825,7.526916609695989,5.243391167549221,10.027371293821705,8.580645874221243
1570181841053347.0,9.580683084677663,11.906053812446329,6.291161218178614,4.093453310132171,7.609666365551306,5.296513499177667,10.14515343022566,8.65289183981447
1570181841062762.0,9.689543402815415,12.061744059037524,6.3730368686970635,4.140941549805013,7.695249612824614,5.352656347891237,10.261587487089528,8.71266260843859
1570181841062762.0,9.788650776260907,12.22364321952218,6.4552718673491505,4.188297974891693,7.783485554292964,5.410572134218778,10.37728400148964,8.757464395359433
1570181841076424.0,9.87919501273687,12.392249739114174,6.538228019256885,4.237991504839587,7.874230751996489,5.467512371648374,10.48887624896446,8.785903807367603
1570181841076424.0,9.968770097048731,12.564640041590671,6.625260304022634,4.287426409459709,7.970830938284775,5.522009130088303,10.601447943747893,8.814484698624124
1570181841085270.0,10.067500304875614,12.739430355771006,6.7147418895576285,4.339257509243158,8.07135508878649,5.57819602627537,10.712473868968257,8.847977134364978
1570181841085270.0,10.17553129613235,12.914780516268083,6.805378499231242,4.391196830795164,8.17614138230727,5.63634695782252,10.82644056895949,8.885930740076917
1570181841100290.0,10.29025891852986,13.091590078933324,6.893921585357788,4.443393316557234,8.283707509930265,5.695210378079693,10.941054648243076,8.933254483670027
1570181841100290.0,10.407967837890803,13.268484625637942,6.983582245232967,4.4910417137578085,8.393194399709762,5.753708613225512,11.060009276687671,8.995456576346909
1570181841101899.0,10.529718437771152,13.449022422020795,7.077464511488465,4.53930119899147,8.502123192447993,5.812876138715794,11.17727865405557,9.065570972576776
1570181841101899.0,10.653116846454509,13.633276466708715,7.175313185093231,4.588385024859193,8.612840330556633,5.872095941632196,11.293114196541929,9.142513717649884
1570181841113195.0,10.77716610725871,13.818728256056033,7.273421275776924,4.641465317220282,8.723719526731491,5.930071089941849,11.40451410054633,9.216096973255025
1570181841113195.0,10.90038941344522,14.005016998711032,7.371701120347038,4.697612915341572,8.831801068639914,5.984091237928902,11.51583632386929,9.279579744148842
1570181841122195.0,11.022859721403462,14.196703541966652,7.47206282572904,4.758241196815276,8.933059344439748,6.033623133660674,11.625843452536698,9.327466761736304
1570181841122195.0,11.13786363567461,14.392425294287463,7.577841179825225,4.819100315634029,9.029882082186598,6.080108964916943,11.74137280765765,9.355689012752158
1570181841137299.0,11.243032623527174,14.59214184243932,7.687194233106309,4.882645165468269,9.120520235899443,6.1269896401958555,11.855590546957636,9.3543382902433
1570181841137299.0,11.346034792030109,14.798157001854308,7.7996357712557565,4.945322853650756,9.20616067822664,6.1709568758460875,11.964841664271407,9.343237368700514
1570181841139118.0,11.458688633567427,15.012501994920074,7.913290491615062,5.008493732827517,9.28589467452546,6.210302970933976,12.064232357488287,9.345861247387
1570181841139118.0,11.578601176334478,15.23090616076429,8.027261031674913,5.068678542228276,9.358336770533594,6.243546161292968,12.159950452169628,9.368961583462134
1570181841160139.0,11.69813844336912,15.454041331738678,8.140126523758225,5.1276679836504195,9.420602523506005,6.270716360289867,12.249822023574325,9.404522416954563
1570181841160139.0,11.813788826742915,15.684306533034906,8.254103526884611,5.184206692699738,9.477058285150843,6.2961455425435,12.336305559616983,9.443059888125934
1570181841161319.0,11.930718164204244,15.923328255180834,8.368476353508738,5.240261555340333,9.530077553071747,6.323412982319315,12.411966912936595,9.46971455360853
1570181841161319.0,12.049102087790097,16.167178259434465,8.480726736695285,5.293632120222843,9.581925598207658,6.350747910420847,12.48684717275892,9.493871204537044
1570181841182246.0,12.167400605231672,16.414949733733923,8.585827335213049,5.344820340404232,9.62997101921092,6.377284151906797,12.571051221848993,9.524716102400774
1570181841182246.0,12.283832834844722,16.663965307483075,8.68308939814825,5.388710952697814,9.661983830306628,6.3961647396509305,12.663263141268276,9.567144261290657
1570181841184110.0,12.402552216033161,16.911666994565532,8.772502153121948,5.430049697064355,9.664514931585972,6.399916207799542,12.74898951074496,9.621897698461183
1570181841184110.0,12.521726386472203,17.15451901226964,8.855609098814842,5.466757925617686,9.63357225253629,6.383675233442591,12.832389043030863,9.686614686512764
1570181841197961.0,12.63589452452005,17.393128201102076,8.933698738338826,5.4908724828097455,9.56429075256335,6.348314877464789,12.912907324745058,9.750018151800234
1570181841197961.0,12.738425768284245,17.628659990853738,9.013381418235937,5.499099663372598,9.472194682385442,6.301481968896433,12.992673731097545,9.808970764146414
1570181841199149.0,12.836916274587496,17.862751338031455,9.09147420064142,5.503932090196159,9.380718745112029,6.256427554797103,13.075028735275431,9.859615089492333
1570181841199149.0,12.93379606193933,18.090031445217814,9.154543906007186,5.5001001092472706,9.285109343244597,6.211653976034667,13.16676006905886,9.895621128438092
1570181841219989.0,13.01593132400721,18.301226792986874,9.201471060916631,5.48380787707427,9.16821969225986,6.159246431871631,13.25758704763326,9.899530562517615
1570181841219989.0,13.085603502266569,18.492458176673498,9.246246724744578,5.463646224290118,9.040242566641627,6.104980913109013,13.351012952797227,9.878357638932183
1570181841221053.0,13.164730095034818,18.673094433198344,9.292809215213422,5.449221408593568,8.906514879564112,6.051744345107653,13.445711401087912,9.84855001963673
1570181841221053.0,13.251324631960903,18.842167296556813,9.332076148560622,5.431216335533834,8.765526990245831,5.996041280638211,13.54319157822587,9.813679752755569
1570181841241845.0,13.329771274028051,18.984474760989286,9.34656191184263,5.408348563281689,8.620047586544745,5.944638451226493,13.639679785106075,9.758075047000164
1570181841241845.0,13.406105121778502,19.103769927085004,9.343015880663268,5.389703732504761,8.47676281904684,5.900616206169394,13.727082015755403,9.685152784570246
1570181841249823.0,13.499852917937703,19.230218493264623,9.347166560629214,5.385780966622548,8.34513212516353,5.864731998335119,13.796222521186735,9.616244200653101
1570181841249823.0,13.610160979948363,19.364196719607815,9.363278639545003,5.390933714450181,8.230550543126046,5.838658557127283,13.859170437291427,9.569727561248596
1570181841257031.0,13.728327118234914,19.481073501953208,9.385575276576239,5.403079714039219,8.128566792694095,5.824658315574476,13.913198451141493,9.544993289706323
1570181841257031.0,13.839930508139847,19.559352330090988,9.423058340662415,5.42298467617119,8.027479072258833,5.819867735366288,13.96845491256081,9.534798745207986
1570181841264036.0,13.94695248444277,19.599160013879256,9.471605847701621,5.4499306794245586,7.9071520226291305,5.816158932684212,14.039114242241938,9.515092556432133
1570181841264036.0,14.053782466194011,19.621095529643366,9.513825037406507,5.470523687027974,7.766034993503637,5.806150805786727,14.118645009131708,9.480925228832957
1570181841279748.0,14.156964526531146,19.65651199963924,9.541339204622256,5.482968630203688,7.621668761587962,5.795455645155794,14.190839719859342,9.440644886471798
1570181841279748.0,14.25799230187105,19.710443687926094,9.565826986356555,5.490526348230444,7.493259775651196,5.791476023625862,14.263155526050378,9.396728223399457
1570181841281739.0,14.358146808663006,19.743782210887034,9.60096646371808,5.488206004032451,7.386555531128659,5.793622587319074,14.329592684640028,9.348032217123594
1570181841281739.0,14.462462285150353,19.74012598076723,9.648922839310186,5.47157276538939,7.289765183241846,5.793541979333955,14.383689969886513,9.301723810967479
1570181841302688.0,14.58108691328015,19.730976872145032,9.697063251950789,5.4510312379817405,7.1827988730941055,5.783475672266714,14.43239639679598,9.262465785203801
1570181841302688.0,14.7055508032314,19.736516650856732,9.725625784231788,5.427966272250286,7.063212954528616,5.763569370085385,14.490428076671167,9.234688928376778
1570181841304319.0,14.824913173142008,19.7583523394855,9.73392475387751,5.406872501472038,6.9396395417576064,5.737873005523603,14.540708537298288,9.209169895148715
1570181841304319.0,14.93830984572158,19.795271558055322,9.745594948194743,5.38592367091379,6.819013126482438,5.69914809056495,14.557565499158585,9.168897101270092
1570181841315732.0,15.05545642917218,19.855018715037655,9.756288514106574,5.361457929615183,6.701696617382294,5.6444891224377365,14.513851651139609,9.107033575046069
1570181841315732.0,15.17586739212206,19.92909011872042,9.758332635485699,5.333768021545793,6.587847389358535,5.586239072996657,14.43459480281718,9.052864387335697
1570181841324743.0,15.297488059654299,20.00727082699135,9.76825849783314,5.310433083146734,6.479058833689134,5.535092840118221,14.37128241488659,9.022649569904889
1570181841324743.0,15.418066621602238,20.087594871558014,9.789557157979008,5.293413231077771,6.381690604260212,5.486862645504245,14.323766953723808,9.01116766490277
1570181841339804.0,15.529691760337899,20.138116294015745,9.799962340202036,5.281867153115539,6.296869861855971,5.442505518768742,14.260946217321045,9.00132185801883
1570181841339804.0,15.62514502590521,20.14697319262936,9.785213567746238,5.2722577376269735,6.220533641150144,5.408825351402859,14.206234513371774,8.986162755514076
1570181841341574.0,15.702556650664572,20.135979316772374,9.74743090654424,5.2683013543080035,6.14470266379623,5.384525135013966,14.189127778166814,8.966807751496967
1570181841341574.0,15.771483106775852,20.122677532879763,9.703262000955625,5.266222062055795,6.06827846727904,5.36659703360862,14.21040907599914,8.953541645119092
1570181841362722.0,15.850301348886209,20.138916221411378,9.676072374080821,5.257328489769208,5.994700232640224,5.359620686633996,14.253367841148563,8.957017451950902
1570181841362722.0,15.92855848663365,20.178008645572184,9.66615078678157,5.2283730427010315,5.925111381147183,5.36306500770134,14.307180219409444,8.979128160412074
1570181841363975.0,15.97723385226116,20.195529655861375,9.642728624131218,5.175261619320259,5.856731319859783,5.3748859241848965,14.356604996020504,9.007798780190837
1570181841363975.0,15.979707414124688,20.16318892499428,9.588240825396728,5.109772913645791,5.798028011380563,5.396119336536111,14.40727133223396,9.038393751327188
1570181841375568.0,15.976217163833994,20.112439215239217,9.520039341533739,5.052848211338105,5.756022123609231,5.424850974948773,14.468625589770841,9.069735619178825
1570181841375568.0,16.009619369731592,20.10270292294942,9.449604806552175,5.002353350430677,5.730703845632702,5.453190861640506,14.53443628325775,9.103973727023753
1570181841385463.0,16.067764393676946,20.146117979452058,9.376275131103425,4.948656798762047,5.716310608706374,5.481065598624777,14.58998845338293,9.130776760740096
1570181841385463.0,16.127730923086876,20.203467139129405,9.314977034112898,4.889712880419372,5.7108765927770255,5.511021093277242,14.644484940019277,9.153617498801806
1570181841400420.0,16.192504607396778,20.256786817519952,9.267790054014188,4.830460382428077,5.711642292556975,5.542132043706941,14.689823712191174,9.17606018238682
1570181841400420.0,16.276752578539256,20.304602298386456,9.216968174110928,4.770713589610892,5.715150115702928,5.574217752941191,14.718355642006454,9.190089783265336
1570181841401576.0,16.38438594219323,20.331674611567042,9.158479891814272,4.716658368438578,5.722592656114083,5.608614230910812,14.733152872846892,9.194124136916624
1570181841401576.0,16.500945834989768,20.342690842784414,9.105344181360431,4.67394723596056,5.736443941626684,5.641627163299917,14.71484417642184,9.204862897057323
1570181841422496.0,16.620651116483597,20.34694570892669,9.05554686603527,4.637787468012306,5.751372524723712,5.671542887326537,14.635070921597967,9.213019971530702
1570181841422496.0,16.7454220227144,20.346683036457733,8.990069325219856,4.589868420543152,5.766082883910592,5.6997531371068355,14.532329808753849,9.21415719528394
1570181841424354.0,16.869418650406534,20.33246661843951,8.888471388853564,4.521108161054484,5.777912177643572,5.727873539106195,14.448033186675367,9.215102336761177
1570181841424354.0,16.99249263680296,20.31128878269719,8.760829669845837,4.440257763759205,5.792811831741455,5.755084119865632,14.394404744659273,9.222784501628903
1570181841436352.0,17.13073328710275,20.32478677844044,8.63379570344397,4.366224875759438,5.816920375804909,5.783720394248096,14.371450463354087,9.240092454619068
1570181841436352.0,17.262916793260818,20.34175525066377,8.517302584610654,4.307057473898244,5.848112413183383,5.814972239341045,14.36321855519886,9.26861832680396
1570181841444850.0,17.350916995309497,20.276528650515363,8.405283582974272,4.264286289869817,5.880860663123695,5.848370127227281,14.362397209353537,9.304848520246534
1570181841444850.0,17.41617506968431,20.138163606808803,8.289145920413569,4.233086227527786,5.91666913716316,5.883648330247699,14.392575545133427,9.351284338967671
1570181841460261.0,17.499754564783014,19.99296654677054,8.173677342605107,4.207892696138499,5.959452870473583,5.926326944940724,14.447321360560291,9.401629989606166
1570181841460261.0,17.604414904303827,19.84742292142061,8.065856760299036,4.180382372983552,6.013145542655779,5.980210870993614,14.504396543340615,9.448718576712105
1570181841461258.0,17.73376353985282,19.698697250581947,7.962092049339746,4.153851687756899,6.075978791722191,6.043147308425542,14.556449564711077,9.483035635773774
1570181841461258.0,17.88750705209363,19.556932984785917,7.858910242830039,4.129010375516628,6.148961196319788,6.108782519345073,14.619241405302068,9.504242328200096
1570181841482581.0,18.06745707428025,19.43864046230694,7.752539336178508,4.103019865194677,6.229029142413546,6.1732218683837425,14.69363737345984,9.515035743976176
1570181841482581.0,18.27039349710191,19.34808135077557,7.647331272537801,4.080726303557343,6.313304421047577,6.236444901460247,14.768927370046471,9.531382276153648
1570181841484409.0,18.481915940336577,19.233661087361593,7.547438855866174,4.071196610834698,6.397473976357683,6.3037557741363255,14.820676593058757,9.56712249362889
1570181841484409.0,18.70346973143142,19.07594826436734,7.450200403310625,4.0739520804895255,6.480088103550509,6.376949413691107,14.829561420474892,9.62886150334137
1570181841496170.0,18.945479602133307,18.923888795666556,7.359552359077375,4.088723381771701,6.559652941603111,6.453039620411676,14.81612593555977,9.7092642742928
1570181841496170.0,19.195744235808718,18.784427755727954,7.278649187546977,4.106503538121579,6.633221861617443,6.52421400790837,14.830320287177848,9.799089014632433
1570181841505151.0,19.436726501308776,18.625003535270565,7.19452607319534,4.121768385081762,6.699020515431065,6.592645630002548,14.876140194185872,9.88737552436812
1570181841505151.0,19.673987519699605,18.439695234283406,7.093901794893336,4.136941570765521,6.7647695536200345,6.665433161233067,14.93121964454644,9.981050400602284
1570181841527087.0,19.928803468017712,18.246393431076562,6.982036140577332,4.155640225666119,6.832008384228851,6.738794811332577,14.97914992984947,10.083191616533817
1570181841527087.0,20.20483409947343,18.067571775985815,6.876130388436661,4.175939589117652,6.904807655021757,6.806550622614293,15.00149075056628,10.186708980154904
1570181841529073.0,20.491444242130783,17.912934887104512,6.777885523140131,4.201787424945297,6.987357430800943,6.865683551881849,14.972828829481998,10.283108783061827
