timestamp,emg1,emg2,emg3,emg4,emg5,emg6,emg7,emg8
1570180510344100,-3,-5,3,3,0,-2,0,3
1570180510344100,7,8,0,-1,1,1,0,-6
1570180510348063,0,-3,-4,-1,-1,-1,-2,-1
1570180510348063,-3,-1,2,1,-1,0,1,1
1570180510349062,9,2,-1,-2,-4,-4,-3,-6
1570180510349062,-4,-5,-2,1,2,15,4,3
1570180510349062,-1,-4,1,1,-2,-5,1,0
1570180510349062,6,2,1,-1,3,3,-3,3
1570180510354174,-2,-2,-1,-2,-7,-10,0,2
1570180510354174,0,1,1,1,2,1,0,5
1570180510361154,5,2,-1,0,4,13,-2,1
1570180510361154,3,0,-1,0,-2,-4,2,-6
1570180510376185,-16,-3,-2,0,3,4,0,-1
1570180510376185,1,0,-3,-2,-3,-8,-3,-3
1570180510383971,-4,-1,0,0,3,5,0,2
1570180510383971,3,-4,0,0,-4,-9,-5,-3
1570180510390410,4,0,-3,-2,3,16,2,1
1570180510390410,22,9,1,-2,-6,-16,-3,-3
1570180510414935,-53,-22,-5,-3,-3,-8,-1,-6
1570180510414935,-1,4,0,0,-7,-6,-4,-2
1570180510417227,0,-1,-1,0,0,-1,-1,0
1570180510417227,8,2,1,2,4,3,-2,6
1570180510435011,21,7,1,-2,-7,-14,-1,7
1570180510435011,-1,1,1,2,9,22,8,-2
1570180510469167,10,8,1,0,1,-12,-5,-18
1570180510469167,-32,-14,-4,-2,4,9,-11,21
1570180510469738,15,7,1,1,1,3,-10,20
1570180510469738,1,2,0,1,0,0,1,0
1570180510472839,15,5,1,0,-3,-4,4,13
1570180510472839,20,15,1,0,3,6,1,-12
1570180510473728,-89,-38,0,2,0,-5,2,-14
1570180510473728,63,23,4,-1,-1,-4,0,-4
1570180510481709,-21,-10,-3,-4,1,16,0,-3
1570180510481709,24,9,1,2,-1,-13,3,-5
1570180510487742,-6,0,-2,0,12,26,18,0
1570180510487742,-6,0,3,2,-5,-3,3,-1
1570180510503700,-7,-3,-3,0,2,3,1,-8
1570180510503700,2,-2,-1,-1,-1,0,1,2
1570180510509685,47,23,1,-1,-1,0,1,0
1570180510509685,-59,-15,-2,0,1,-7,-6,-5
1570180510525590,31,6,3,1,3,4,3,13
1570180510525590,-46,-18,-3,-1,-2,-1,-2,-8
1570180510541598,35,7,-12,-9,-10,-17,-10,-5
1570180510541598,-19,-7,7,1,3,5,2,4
1570180510542751,-4,-2,-2,0,-2,-6,-2,1
1570180510542751,-14,-10,0,1,0,2,5,-2
1570180510563670,-5,-3,1,0,-3,-5,0,-2
1570180510563670,25,5,-6,-3,-1,2,1,3
1570180510565481,-26,-5,3,4,1,1,-1,-3
1570180510565481,12,-3,-7,-6,-5,-9,-3,-2
1570180510577695,6,-1,1,0,-2,-1,-2,-1
1570180510577695,3,-1,-4,-3,-2,1,-3,-4
1570180510586432,-4,-1,2,-1,-2,-2,0,1
1570180510586432,3,2,0,-2,0,3,3,1
1570180510601785,5,3,1,-1,-1,-5,-2,0
1570180510601785,-5,-3,2,2,2,-1,-3,-2
1570180510602400,-3,-2,-3,-4,-3,-2,-1,-3
1570180510602400,15,8,-1,-1,-2,2,1,-1
1570180510624331,-4,-4,-1,-1,-3,-3,-6,-5
1570180510624331,-5,-5,-4,-3,-2,-10,-1,-1
1570180510625438,1,-1,-4,-2,0,-4,-2,4
1570180510625438,4,3,2,-1,-1,-1,0,-5
1570180510637516,-5,-2,2,1,-1,-5,-1,0
1570180510637516,-8,-2,-3,-1,0,4,0,-2
1570180510646265,5,0,-1,-2,-1,-1,-2,-3
1570180510646265,4,4,1,2,0,-2,-1,0
1570180510661428,-3,-2,-1,1,-1,3,1,1
1570180510661428,4,0,-1,0,-1,1,-1,1
1570180510663219,-2,-3,-1,-1,1,1,1,-3
1570180510663219,-1,8,-3,-4,-2,-1,-1,3
1570180510684216,13,32,10,0,1,0,0,2
1570180510684216,-7,-54,-20,5,5,3,1,-2
1570180510685519,-5,0,-3,-1,-2,-4,-2,-3
1570180510685519,-6,-7,-2,0,-2,-1,0,-1
1570180510697228,6,5,-5,-5,-1,-1,2,6
1570180510697228,-2,14,-2,-8,-4,-1,0,6
1570180510706104,-7,-8,1,4,2,-1,-2,-7
1570180510706104,9,3,8,7,3,2,-2,-2
1570180510721067,-10,-6,0,-3,-3,-1,-3,-6
1570180510721067,20,45,25,2,1,-1,1,14
1570180510727058,-35,-2,-7,-1,3,4,5,8
1570180510727058,7,-78,-28,-1,-2,-6,-13,-24
1570180510744058,11,53,-1,-6,-6,0,4,4
1570180510744058,5,-7,9,-7,-5,-6,-14,-29
1570180510745065,-25,-35,-2,11,4,0,0,-4
1570180510745065,18,19,3,-1,1,2,8,16
1570180510757071,19,44,6,4,0,5,15,34
1570180510757071,28,0,-15,-17,-7,-3,-6,0
1570180510765947,-19,-43,2,-5,-3,-5,-9,-19
1570180510765947,53,39,-5,-1,1,0,9,29
1570180510780907,-100,-75,16,8,0,-9,-29,-61
1570180510780907,36,34,-52,-10,3,2,7,5
1570180510787891,11,-24,2,5,5,1,0,-5
1570180510787891,-26,-31,-4,3,1,2,3,-5
1570180510803881,21,36,14,-4,-4,-3,4,11
1570180510803881,-32,-7,3,-1,-5,-4,3,12
1570180510804841,-7,-4,24,18,2,-1,-10,-19
1570180510804841,18,53,12,3,3,1,5,12
1570180510817974,14,-9,-9,0,5,1,1,4
1570180510817974,-40,-40,-3,-16,-19,-7,-6,-10
1570180510827000,39,27,-5,6,12,4,4,7
1570180510827000,-31,14,12,3,4,0,0,9
1570180510840753,16,-17,-7,6,7,-1,-2,-1
1570180510840753,-20,-26,11,6,3,3,1,-7
1570180510847735,6,17,1,-14,-11,-3,0,5
1570180510847735,-17,-4,-11,-8,-7,-1,-4,-7
1570180510863719,-4,-37,-22,-20,-12,2,-2,-12
1570180510863719,13,9,1,13,11,4,9,9
1570180510865763,-2,18,-1,-11,-3,2,4,1
1570180510865763,-10,-3,10,11,7,-5,-7,-28
1570180510877661,3,-10,-4,2,-8,-2,2,-9
1570180510877661,9,12,17,10,10,4,1,-16
1570180510886639,19,13,-12,-7,-5,-1,2,-6
1570180510886639,-5,-16,-3,-6,-17,-7,-8,-14
1570180510900586,11,8,19,22,1,6,4,10
1570180510900586,-43,-25,-17,-7,37,4,-7,-5
1570180510908801,8,5,0,-1,-5,-4,2,23
1570180510908801,-3,-7,-7,-14,-9,-5,-5,4
1570180510923535,-5,0,7,7,-1,1,0,-1
1570180510923535,-8,-9,-9,-4,-20,-14,-8,4
1570180510925533,13,-11,-28,-16,-11,-10,-2,13
1570180510925533,5,15,29,20,16,7,5,9
1570180510946593,-5,0,-12,-1,2,-3,-5,-4
1570180510946593,6,22,26,11,-4,0,-1,6
1570180510947809,0,-10,-12,-12,-4,3,1,3
1570180510947809,-5,-8,-7,-6,-6,-3,2,2
1570180510961424,30,-4,-13,-6,3,-1,0,7
1570180510961424,3,8,3,0,0,4,3,6
1570180510969414,-16,8,11,6,-2,-1,-3,-4
1570180510969414,20,-7,-5,0,1,6,1,4
1570180510984496,-12,-11,-9,-5,8,5,3,0
1570180510984496,25,14,4,1,-9,-8,1,3
1570180510985678,-14,5,12,5,2,2,3,2
1570180510985678,4,-10,-13,-12,-10,2,-7,-8
1570180511006308,22,3,7,7,8,-7,3,16
1570180511006308,-30,-18,-1,1,2,12,9,9
1570180511008301,-21,8,5,4,7,33,-2,-21
1570180511008301,55,16,-6,-7,-11,-39,-10,-5
1570180511020849,-12,-11,-1,-2,3,8,-1,8
1570180511020849,-48,-23,-7,-7,-13,-1,3,6
1570180511027478,15,9,5,4,3,-9,5,18
1570180511027478,1,13,8,2,3,6,-1,-15
1570180511044204,-5,1,-1,-5,-7,-6,-7,-10
1570180511044204,22,10,4,7,10,5,-1,-6
1570180511045453,-4,0,-6,-8,0,-1,-1,3
1570180511045453,-19,-6,1,3,5,4,4,6
1570180511066299,-1,0,3,3,-3,-7,-2,-1
1570180511066299,6,1,-1,-1,-2,2,1,-6
1570180511068146,-3,12,6,2,-4,-2,1,11
1570180511068146,-19,-17,1,-1,-1,4,5,15
1570180511080106,21,22,-15,-13,-7,-5,-5,-23
1570180511080106,-10,-7,0,1,-2,-3,-6,-7
1570180511089087,-11,-7,-2,-1,-6,-11,-10,-13
1570180511089087,-21,-8,-1,2,7,0,-1,-2
1570180511104043,-21,-12,1,-1,1,7,9,13
1570180511104043,-2,14,6,6,1,-4,0,-12
1570180511105700,29,-1,-5,-6,-3,7,4,15
1570180511105700,-11,0,0,-4,3,-6,1,17
1570180511126128,-11,-14,-5,-2,-3,-5,-9,-16
1570180511126128,29,20,8,6,3,2,9,16
1570180511128171,-27,-14,-7,-3,-2,-12,-18,-45
1570180511128171,-2,1,-3,-4,-5,6,0,-7
1570180511139952,0,3,1,2,-2,-4,1,5
1570180511139952,6,-12,-3,-3,-1,6,-4,0
1570180511148933,14,11,2,0,1,0,7,15
1570180511148933,-13,0,1,-3,-11,2,0,-7
1570180511163886,-2,-5,2,4,7,-3,-2,-2
1570180511163886,-3,-3,-5,-3,-2,-4,-1,0
1570180511164878,5,0,-1,-1,0,-1,1,5
1570180511164878,-4,2,-1,0,1,3,0,-3
1570180511185823,3,-8,-2,-2,-3,-1,0,5
1570180511185823,5,2,-1,-1,-3,-2,-4,-1
1570180511192804,9,7,4,4,2,-1,0,-1
1570180511192804,-5,2,1,1,0,0,-2,-4
1570180511200378,6,-4,-3,-1,2,4,2,8
1570180511200378,-2,-4,-3,-2,-1,-2,-6,-16
1570180511208764,5,1,1,1,-1,-5,3,14
1570180511208764,-6,-4,-1,1,3,3,-1,-11
1570180511224772,-13,-5,-5,-4,-2,-2,-2,-15
1570180511224772,12,13,4,-1,-3,-2,1,9
1570180511226712,-1,-20,-4,2,1,-1,2,1
1570180511226712,-1,-1,-4,-3,-1,1,1,4
1570180511246659,4,22,-6,-5,-3,-1,-2,0
1570180511246659,-11,-35,-1,-1,-1,-4,-4,-10
1570180511247658,6,14,13,10,2,1,2,1
1570180511247658,-1,5,-4,2,1,2,0,2
1570180511259673,-7,-18,-3,-8,-5,-1,-1,-5
1570180511259673,2,23,-6,-7,-2,-2,-1,1
1570180511268607,-2,-29,-12,-2,0,0,4,5
1570180511268607,-6,-3,5,4,2,-1,-9,-7
1570180511283609,-1,2,5,1,-3,-1,2,18
1570180511283609,-6,10,-4,-4,-4,-1,-3,-26
1570180511285564,-2,-4,0,-3,-2,-4,-9,5
1570180511285564,8,7,0,-2,-1,1,4,13
1570180511306594,-8,-6,-6,-2,0,-1,-2,-8
1570180511306594,13,9,-8,-3,-2,-1,9,20
1570180511308025,-8,38,35,15,9,6,-1,-18
1570180511308025,-21,-65,-8,1,2,-1,-1,-11
1570180511319956,0,-8,4,6,-1,-5,-7,5
1570180511319956,1,-4,-4,-2,0,-5,-14,-8
1570180511328847,5,13,2,-1,-1,-1,2,-7
1570180511328847,14,21,1,-3,-6,1,11,13
1570180511343502,-8,6,-1,-2,0,3,-4,-10
1570180511343502,-3,-17,-6,-3,-3,-3,-2,9
1570180511345398,10,11,-8,-7,-4,-1,0,10
1570180511345398,-2,0,4,1,2,1,0,7
1570180511366339,-4,10,-4,-5,-5,-4,-4,-20
1570180511366339,-3,-18,-1,3,1,-1,-1,1
1570180511367337,-4,-11,-5,2,1,-3,-3,-6
1570180511367337,16,27,18,6,1,0,1,1
1570180511380353,-6,-22,-9,2,8,4,7,12
1570180511380353,18,-17,8,1,-3,-1,1,15
1570180511389279,-10,-20,-11,-7,-8,-2,3,-18
1570180511389279,5,-2,-17,-9,-6,-4,-3,11
1570180511404241,-4,16,4,0,-1,2,4,7
1570180511404241,6,17,17,7,3,-1,-2,-10
1570180511405236,-6,-7,-10,-6,-3,-5,-9,-20
1570180511405236,6,14,6,2,1,1,0,3
1570180511426425,-6,-8,0,-2,0,-2,-5,-15
1570180511426425,3,9,-7,1,-1,1,4,6
1570180511428265,2,13,3,0,-3,-1,-1,8
1570180511428265,-22,-21,-5,-2,1,0,-3,-19
1570180511449270,30,40,-4,-4,-5,-2,6,34
1570180511449270,-34,-59,19,8,0,-1,-7,-24
1570180511450119,9,20,-8,-5,-2,3,4,13
1570180511450119,-16,-28,3,3,0,-5,-9,-9
1570180511471190,-11,-8,-11,-4,-3,2,13,35
1570180511471190,13,20,-5,0,2,2,0,10
1570180511473055,-3,2,9,1,0,-2,-2,-2
1570180511473055,2,4,-5,-1,0,0,-6,-15
1570180511486091,8,-3,5,1,0,-2,3,9
1570180511486091,-11,4,-5,-5,-3,-1,-2,-15
1570180511492200,8,-7,-4,-4,-2,-1,4,19
1570180511492200,-3,11,-10,-5,-3,-3,4,8
1570180511509104,0,-8,9,4,2,0,-6,-20
1570180511509104,5,6,-6,-1,0,3,3,8
1570180511510435,0,-9,-5,-1,-1,-2,-3,-13
1570180511510435,7,13,7,0,-1,1,-1,-7
1570180511530899,-1,-12,2,1,-3,-1,-5,-18
1570180511530899,-2,6,-2,0,-1,-2,1,-1
1570180511532897,5,2,-1,-1,0,-1,2,7
1570180511532897,-8,-3,-1,0,1,1,-3,-10
1570180511545912,5,-5,3,0,-1,0,0,10
1570180511545912,3,12,-2,-2,-1,0,2,8
1570180511552898,-1,-9,-4,0,-1,-1,-2,1
1570180511552898,1,1,-2,-2,0,0,2,2
1570180511583763,-3,-1,4,3,2,-1,-2,-12
1570180511583763,-4,5,-1,-3,-1,0,-3,-4
1570180511585759,-3,-7,-5,-2,0,2,2,7
1570180511585759,4,0,2,0,1,0,-1,4
1570180511591797,11,5,2,1,-2,-1,-3,-7
1570180511591797,-20,-2,2,0,0,0,0,-18
1570180511593040,18,-3,1,-1,-2,-1,-4,8
1570180511593040,-11,6,-2,-1,0,2,0,-10
1570180511604808,-8,-12,-4,-3,-3,-3,-5,8
1570180511604808,6,8,-3,0,1,0,4,8
1570180511613753,16,11,12,6,1,1,4,8
1570180511613753,-16,-9,-6,-4,-4,-9,-14,-39
1570180511628775,-4,-4,-3,-1,2,0,-4,-7
1570180511628775,5,-1,-2,-2,-2,1,3,17
1570180511630774,-32,-2,-1,-1,0,-2,-2,-15
1570180511630774,52,11,-1,0,-1,0,6,36
1570180511651618,-28,-17,-1,-3,0,0,-1,-11
1570180511651618,-3,-3,-4,-3,-2,-1,-3,-3
1570180511657782,-2,0,-2,1,2,0,0,1
1570180511657782,-4,0,2,2,0,0,0,-7
1570180511673729,1,7,2,1,-1,1,3,0
1570180511673729,7,17,4,3,0,0,-3,-11
1570180511675514,-12,-33,-17,-6,-5,-2,-1,6
1570180511675514,-16,-8,8,5,2,1,4,9
1570180511688482,22,9,2,3,1,0,2,5
1570180511688482,5,7,1,-1,0,-1,1,9
1570180511690475,8,12,-1,-3,-2,-1,-7,-20
1570180511690475,-37,-15,-5,-2,-2,-1,0,-5
1570180511711423,10,2,1,3,1,1,1,-7
1570180511711423,-3,-8,-4,0,-1,-3,-2,-4
1570180511712415,11,5,0,-2,0,-1,-2,-2
1570180511712415,27,5,-1,1,1,2,3,12
1570180511725460,-7,-1,1,-2,-2,0,-3,-11
1570180511725460,5,2,-2,-2,-1,0,-1,-5
1570180511734358,-5,-2,0,-2,0,0,2,7
1570180511734358,9,5,5,3,4,0,0,9
1570180511749522,31,12,-1,-1,-1,-4,0,7
1570180511749522,13,1,-2,-2,-1,-1,-4,-6
1570180511750595,-42,-13,0,-1,-2,-1,0,4
1570180511750595,32,11,-4,-4,-2,0,-3,-10
1570180511771565,-43,-16,-4,-3,-2,-3,-3,-2
1570180511771565,-38,-20,-6,-6,-3,-1,-3,-9
1570180511773254,10,14,2,-1,-1,-1,0,-9
1570180511773254,-20,-9,0,2,0,-2,2,2
1570180511785224,16,8,6,2,1,0,-2,10
1570180511785224,49,11,3,3,0,-1,0,0
1570180511801301,-36,-9,-4,-2,-2,-2,-2,-1
1570180511801301,20,6,-3,-3,1,1,1,6
1570180511809207,-55,-19,-7,-1,-1,-1,-5,-17
1570180511809207,8,2,3,2,0,0,0,0
1570180511810530,18,3,1,1,2,2,8,52
1570180511810530,7,4,1,0,-1,-3,-9,-24
1570180511831196,-36,-16,-4,-3,-4,-4,-4,-15
1570180511831196,-11,2,2,2,2,2,-2,-10
1570180511833099,33,16,4,2,-1,1,4,9
1570180511833099,-20,-18,-10,-7,-4,-3,5,2
1570180511845280,20,10,2,1,1,0,-14,10
1570180511845280,-16,-8,-3,-1,-2,-1,2,20
1570180511854037,22,7,1,-1,-1,-3,-7,-22
1570180511854037,-16,-2,1,1,-1,2,4,-9
1570180511869047,48,16,1,-1,1,4,11,18
1570180511869047,-53,-31,-8,-7,-4,-4,-8,-30
1570180511869995,11,2,2,4,4,1,6,-11
1570180511869995,12,7,1,2,-6,-7,-19,12
1570180511890941,21,4,0,0,1,-1,1,-7
1570180511890941,1,10,1,0,2,1,1,-8
1570180511892933,-21,-12,-7,-6,-1,5,28,-83
1570180511892933,-4,2,4,-2,-6,-3,1,5
1570180511913876,-13,-4,0,3,3,0,2,6
1570180511913876,12,0,2,6,-4,-3,-1,16
1570180511914888,-16,7,2,4,8,0,-4,-19
1570180511914888,2,1,-4,-8,-8,-5,-14,-16
1570180511928837,-2,-2,-1,-1,-1,1,-3,-8
1570180511928837,21,21,4,-5,0,3,9,16
1570180511930831,-3,-28,-9,-1,5,1,-6,28
1570180511930831,2,3,2,4,6,3,6,4
1570180511951777,-7,5,4,-1,-4,-1,-1,4
1570180511951777,-14,1,-4,-7,-4,-5,-6,-15
1570180511952977,8,-1,3,4,4,0,-4,20
1570180511952977,-17,-9,-6,-1,0,1,-2,-21
1570180511964830,-15,-11,-4,-4,-7,-4,-4,-65
1570180511964830,1,4,2,0,-6,1,3,17
1570180511973777,-2,8,1,-1,3,-2,-11,6
1570180511973777,-5,-12,-3,-4,0,3,6,22
1570180511988927,12,6,5,9,9,4,6,17
1570180511988927,19,8,13,14,3,6,10,1
1570180511990678,10,1,-1,-2,-8,-5,-5,19
1570180511990678,-15,-1,-1,-2,2,-2,-5,-15
1570180512011616,-5,9,-1,-4,-3,-1,2,-6
1570180512011616,-12,-36,-22,-8,1,-5,3,-42
1570180512012664,1,17,9,1,1,2,3,3
1570180512012664,-2,-10,7,6,3,3,9,3
1570180512024795,15,-8,-11,-10,-9,-5,-7,21
1570180512024795,-4,1,-7,-7,-4,2,2,-5
1570180512033559,11,-2,-17,-25,-15,-11,-8,17
1570180512033559,-9,14,18,41,18,4,1,-19
1570180512049516,2,11,13,4,2,2,5,5
1570180512049516,2,5,3,8,5,1,-5,10
1570180512051517,12,-10,-9,-8,-5,-1,-8,-9
1570180512051517,-16,-10,-13,-17,-6,-1,-2,18
1570180512071649,-11,-13,-1,6,5,0,1,2
1570180512071649,11,11,2,-3,1,0,6,29
1570180512072865,-4,0,4,4,-1,2,-7,-3
1570180512072865,26,3,-4,-7,-5,-2,9,30
1570180512085458,-5,-3,-1,2,0,-1,-2,1
1570180512085458,1,-6,-5,-6,-1,-1,0,12
1570180512093729,-15,-1,2,2,2,1,10,-41
1570180512093729,-1,2,0,2,-3,1,-2,1
1570180512108504,-4,-7,-8,-7,-2,-1,-1,1
1570180512108504,1,0,3,3,1,-2,-5,-9
1570180512110352,-10,-8,-6,-1,0,1,5,8
1570180512110352,5,8,4,1,5,5,4,-2
1570180512130508,3,0,0,0,2,3,-1,-3
1570180512130508,-2,-3,1,2,-1,-3,-9,-1
1570180512139282,1,5,6,10,3,1,-2,4
1570180512139282,-2,0,-6,-10,-7,-5,-7,-4
1570180512145266,10,-2,-5,-4,-4,-1,3,18
1570180512145266,7,-4,-4,-2,8,6,6,28
1570180512154234,-2,0,5,4,11,4,-3,59
1570180512154234,1,0,-4,-8,-23,-10,-5,23
1570180512168408,8,24,9,-1,-5,-1,5,-7
1570180512168408,10,21,1,2,-1,-5,-26,39
1570180512175368,-7,-40,-8,-2,-1,-2,-3,3
1570180512175368,-5,-9,-12,-5,5,0,6,-12
1570180512191412,-5,-2,1,6,20,12,1,-8
1570180512191412,-1,18,8,5,25,19,18,-17
1570180512193128,22,20,2,-4,-42,-17,-21,61
1570180512193128,-5,-8,-5,-12,-27,-23,-23,-4
1570180512205329,5,0,1,-2,-9,-5,7,10
1570180512205329,23,-1,2,5,7,7,-1,82
1570180512214427,-1,2,4,11,27,12,3,53
1570180512214427,-5,-2,0,3,19,4,-5,-8
1570180512228037,7,-1,-3,-1,-8,12,0,32
1570180512228037,-4,-12,-2,-1,-3,-7,10,-28
1570180512235251,-2,-2,0,-3,-13,-15,-4,-42
1570180512235251,9,9,5,0,3,5,2,4
1570180512251137,-10,-4,-1,-4,6,-4,-7,-25
1570180512251137,-10,-11,-4,-2,-8,-4,8,-37
1570180512252972,-9,6,-1,0,3,5,-8,-50
1570180512252972,-16,-1,0,2,0,-8,-9,-30
1570180512265086,4,-9,-7,-2,-3,-6,-5,6
1570180512265086,-14,-6,1,0,-17,-22,-8,-14
1570180512273977,1,5,-2,-1,8,43,23,-19
1570180512273977,11,8,3,2,2,6,15,37
1570180512288301,-13,-6,0,2,-4,-2,-3,22
1570180512288301,4,1,-3,-10,-7,-7,-7,-6
1570180512302837,-9,0,0,8,2,-25,-2,-27
1570180512302837,-3,0,1,5,21,23,8,-50
1570180512310890,6,3,0,-4,-1,5,7,2
1570180512310890,5,-1,-3,-6,-22,-10,0,3
1570180512312873,-8,-1,1,-3,5,6,6,-1
1570180512312873,-4,-6,-3,-4,-7,-9,4,-28
1570180512324996,-4,-4,-2,-2,-3,-11,-6,-10
1570180512324996,18,6,1,2,9,7,0,51
1570180512333755,-7,-1,1,-1,-5,-5,12,-4
1570180512333755,-3,1,0,-2,-2,-1,-7,15
1570180512348714,0,-2,-1,-2,0,1,5,-11
1570180512348714,-8,-5,-3,-2,-2,3,-1,-28
1570180512354702,-9,1,-2,-3,-4,-6,-6,-30
1570180512354702,19,0,-4,-5,0,-4,-5,21
1570180512371821,-9,-3,2,7,6,-1,-9,-25
1570180512371821,-17,-6,0,2,2,1,-1,-28
1570180512373006,14,4,2,-1,3,-4,2,30
1570180512373006,5,-3,-2,-3,-3,0,2,23
1570180512393598,-9,-5,-5,-4,-5,-2,-6,-3
1570180512393598,-3,-2,-8,-11,-5,-2,-3,-26
1570180512395591,6,7,7,11,2,-1,0,3
1570180512395591,17,20,14,12,9,9,16,41
1570180512407776,20,0,0,1,-2,-2,3,17
1570180512407776,2,-4,-11,-10,-6,-1,1,20
1570180512416540,-68,-26,-10,-7,1,-4,-13,-24
1570180512416540,-13,-5,-3,-1,-2,6,3,-19
1570180512431714,-29,-5,3,3,1,-2,0,8
1570180512431714,70,32,-8,-5,-3,-3,-5,-14
1570180512432494,-64,-57,-22,-22,-14,-8,-10,-13
1570180512432494,50,39,25,19,8,7,14,24
1570180512454527,10,24,13,-3,7,5,3,-13
1570180512454527,-20,-36,-8,2,-3,-4,-12,-25
1570180512455565,33,5,-14,-6,-7,-9,-14,-28
1570180512455565,27,13,-7,5,5,2,7,14
1570180512468576,-11,0,18,12,8,9,15,39
1570180512468576,-36,-18,-19,-30,-19,-10,-18,-45
1570180512475376,79,12,-1,6,4,-2,-3,-1
1570180512475376,80,13,-8,-9,-18,-11,-11,-1
1570180512491343,-27,-11,-14,-8,-4,-6,-5,-2
1570180512491343,-20,21,38,35,23,15,18,14
1570180512492338,45,25,11,3,3,5,10,30
1570180512492338,-43,-15,0,-9,1,9,6,-17
1570180512514440,26,41,19,7,0,3,-1,-21
1570180512514440,-103,-114,-49,-25,-17,-17,-28,-52
1570180512520263,66,46,-13,-11,-13,-13,-11,2
1570180512520263,-29,-7,29,18,12,11,13,23
1570180512527367,127,69,-39,-31,-21,-15,-14,5
1570180512527367,-116,-46,18,11,7,9,18,19
1570180512536887,99,8,7,-7,-7,-1,1,5
1570180512536887,-33,-23,-14,-6,-2,-12,-16,-14
1570180512551526,3,-17,13,23,16,7,9,15
1570180512551526,28,32,10,8,3,7,10,14
1570180512553291,-53,11,19,20,20,11,11,16
1570180512553291,29,17,-16,-20,-15,-10,-16,-16
1570180512581443,36,-2,-8,-7,-8,-6,-8,-12
1570180512581443,65,47,9,-2,-1,3,6,7
1570180512583092,-128,-85,9,14,8,8,7,-8
1570180512583092,-113,-63,6,-2,0,-2,2,7
1570180512587182,49,18,-29,-10,-4,-10,-15,-18
1570180512587182,68,58,-10,-30,-22,-2,2,16
1570180512596098,-37,-15,18,28,19,10,9,8
1570180512596098,-61,-16,-24,-5,-4,-6,-13,-25
1570180512611369,8,6,40,23,12,7,8,7
1570180512611369,-69,-54,19,8,-6,-1,-4,-12
1570180512613005,58,39,-14,-6,2,2,-2,-1
1570180512613005,40,1,-10,-7,-4,0,-3,0
1570180512632956,-4,-3,-7,-7,-4,2,-3,-4
1570180512632956,-22,-17,6,10,8,1,0,-2
1570180512641055,-53,-15,-18,-22,-20,-10,-7,-22
1570180512641055,29,8,-4,1,-2,-6,-4,-5
1570180512648957,-28,-15,-3,-13,-11,0,5,1
1570180512648957,39,16,8,19,22,2,-1,3
1570180512655893,8,5,0,-1,-8,-2,1,3
1570180512655893,30,11,3,5,15,8,10,16
1570180512670856,-116,-65,-9,-9,-10,-8,-13,-41
1570180512670856,79,41,-5,-6,0,1,4,13
1570180512672848,-49,-41,-11,-3,-2,-8,-12,-15
1570180512672848,5,2,-4,-3,-8,-5,-6,-7
1570180512693790,-19,-20,-3,-11,-7,-5,0,6
1570180512693790,25,18,0,13,21,1,3,10
1570180512695793,56,32,11,7,4,3,3,11
1570180512695793,-7,1,7,9,7,1,2,1
1570180512707754,-36,-25,-7,-7,-10,-6,-5,-2
1570180512707754,-12,-11,-5,-2,-4,-5,-6,-11
1570180512716730,29,16,0,-12,-8,-4,-1,4
1570180512716730,-22,-19,-3,-8,-7,1,-1,-4
1570180512731698,25,2,-1,3,1,7,5,9
1570180512731698,-10,1,-2,9,12,-3,-4,-2
1570180512732724,-20,2,11,12,11,6,3,2
1570180512732724,25,3,-6,-8,-8,-4,-5,-2
1570180512753783,-11,-5,-2,-1,3,1,0,-1
1570180512753783,21,4,-9,-8,-11,-1,0,7
1570180512755626,-4,-1,7,-8,-14,-1,-1,-4
1570180512755626,7,5,-4,6,13,1,-1,3
1570180512767790,27,14,-4,-7,-5,-4,0,2
1570180512767790,-34,-15,1,3,-6,-3,-1,0
1570180512776574,19,2,3,2,4,0,1,2
1570180512776574,8,12,1,0,-3,0,-2,0
1570180512798694,-9,-5,-1,-2,-3,2,1,1
1570180512798694,-11,-16,-8,-7,-2,-1,-2,-3
1570180512800513,6,-3,-7,-6,-5,-3,-3,-1
1570180512800513,7,3,-1,-1,-4,-5,-2,0
1570180512813693,-5,1,6,7,8,1,0,-1
1570180512813693,37,20,3,-4,-4,-1,3,5
1570180512815470,-23,-11,-4,-1,2,0,0,-4
1570180512815470,7,-6,-2,-5,-5,-3,0,-3
1570180512827648,-15,-10,-5,2,3,0,1,-1
1570180512827648,30,14,11,9,7,2,0,1
1570180512836484,8,1,-12,-6,-4,-1,-1,0
1570180512836484,-15,-13,3,1,2,1,-2,-5
1570180512858970,-5,-4,0,2,2,1,1,1
1570180512858970,-8,-6,-4,-1,-6,-2,-1,2
1570180512860346,4,6,0,-2,3,-1,0,0
1570180512860346,9,3,3,-1,-4,1,1,0
1570180512873615,8,1,3,4,1,0,-3,1
1570180512873615,-7,-1,0,2,0,0,1,1
1570180512880293,8,2,1,-3,-2,0,0,-2
1570180512880293,0,2,2,-1,-2,1,2,3
1570180512887506,-30,-9,-7,-1,5,-1,-7,-16
1570180512887506,-5,7,6,11,3,-3,1,4
1570180512896251,25,30,13,5,1,1,4,5
1570180512896251,-31,-29,-9,-3,-3,-4,0,-2
1570180512911366,8,-3,-1,0,0,-1,-1,-1
1570180512911366,0,-5,-11,-13,-5,2,2,0
1570180512913208,-15,-15,-3,1,-2,-2,-4,-4
1570180512913208,23,33,13,6,6,1,0,-3
1570180512934150,3,6,-1,1,-1,2,2,6
1570180512934150,-11,-2,-4,-3,0,-1,-1,2
1570180512940336,15,3,3,0,-6,0,2,4
1570180512940336,4,-10,-9,-6,-6,0,0,-2
1570180512947322,0,-3,6,6,-3,-1,0,0
1570180512947322,4,3,-2,-1,7,4,-1,-2
1570180512957446,7,8,-12,-5,1,-1,-3,-1
1570180512957446,-7,-7,1,-3,-4,-3,-1,2
1570180512971050,5,8,5,4,-1,-1,3,6
1570180512971050,1,-6,3,2,1,0,0,-2
1570180512971050,-15,-5,-2,-2,-3,-3,-3,-5
1570180512971050,7,14,7,2,-2,-1,0,1
1570180512992994,40,5,-11,-10,0,-2,0,6
1570180512992994,-8,-7,-4,0,-2,1,-1,-4
1570180512994047,3,-5,-5,-5,-2,-4,-3,-2
1570180512994047,-2,2,4,5,-2,1,1,-1
1570180513016001,-10,-10,-1,1,2,-3,-2,-2
1570180513016001,-9,11,19,7,-2,-2,-2,-1
1570180513016001,7,-3,-24,-5,0,1,1,1
1570180513016001,5,0,-1,-12,-3,2,2,2
1570180513030893,-6,9,6,11,9,-1,1,3
1570180513030893,11,4,-4,-1,-1,-2,2,-3
1570180513030893,-5,2,17,4,0,-1,-8,0
1570180513030893,-11,-5,-1,2,1,0,0,0
1570180513053025,-10,-7,-2,-6,-2,1,0,-5
1570180513053025,-5,3,1,-1,1,1,2,-3
1570180513053838,-9,1,6,-1,-3,0,1,-1
1570180513053838,2,-21,-12,-3,-2,-1,-3,-8
1570180513075925,-19,-7,-1,-1,-2,0,1,-2
1570180513075925,11,1,-3,-3,-6,-7,-7,-2
1570180513076769,-18,-12,-4,-2,0,-1,-2,-6
1570180513076769,-2,21,5,2,0,-2,0,-2
1570180513090967,6,-9,0,-1,-1,0,1,2
1570180513090967,-2,8,1,-2,-2,3,4,6
1570180513091728,19,-6,-5,-4,-2,-3,-2,5
1570180513091728,4,10,-4,-1,-1,-2,-5,-2
1570180513112674,-9,12,32,16,-3,-2,-4,-2
1570180513112674,5,3,-35,-19,-3,-2,1,2
1570180513113672,23,12,25,11,4,-1,2,5
1570180513113672,-26,-42,-12,-2,4,2,3,1
1570180513135718,-9,2,-2,1,2,1,5,5
1570180513135718,17,-9,0,-4,-8,-6,-10,-9
1570180513136615,-10,2,-5,-2,0,0,2,1
1570180513136615,15,11,-1,-2,-3,-1,0,7
1570180513150949,-23,-4,-2,-3,-3,-2,-7,-32
1570180513150949,-2,-6,-2,-3,-1,3,7,29
1570180513151817,4,4,0,2,-5,-1,0,-4
1570180513151817,6,14,19,4,5,1,0,3
1570180513173561,9,-19,-23,-2,0,0,1,6
1570180513173561,-3,9,8,5,0,0,-2,-12
1570180513173561,-12,-6,-2,-2,-2,0,-3,-16
1570180513173561,11,-6,3,2,1,2,4,7
1570180513195629,21,5,-2,-6,-2,-2,-1,15
1570180513195629,-10,-3,-3,0,2,0,0,-11
1570180513196456,-7,-4,-2,-3,2,-1,-1,5
1570180513196456,0,9,-2,-1,0,1,3,2
1570180513210004,3,1,-3,-4,0,0,-4,-18
1570180513210004,-12,-12,1,2,-2,-3,-1,1
1570180513218390,4,2,-6,-3,-1,2,1,0
1570180513218390,20,18,7,7,5,4,11,33
1570180513233519,-14,-5,-2,-2,-2,-4,-11,-40
1570180513233519,3,6,7,1,1,-3,-5,12
1570180513234349,-28,-9,0,0,-3,-2,-1,-10
1570180513234349,36,2,-9,-6,-3,-1,-4,-6
1570180513255532,29,7,2,-3,2,1,9,34
1570180513255532,16,10,5,4,3,2,-1,-13
1570180513256296,-7,-7,0,3,1,-4,-5,-15
1570180513256296,-12,-4,2,0,-2,-3,-1,9
1570180513270256,64,20,5,3,-1,0,1,2
1570180513270256,6,-3,-13,-10,-2,-1,0,15
1570180513271369,-65,-36,-14,-10,1,-1,-4,-16
1570180513271369,-2,-1,-2,-3,-5,-4,-7,-21
1570180513293588,-1,-1,-1,-2,-2,-2,-1,14
1570180513293588,-10,1,13,7,-1,0,0,-8
1570180513294195,78,25,-8,-4,-3,2,3,15
1570180513294195,-59,-27,-7,0,1,-2,-8,-26
1570180513316128,11,14,8,1,3,1,5,16
1570180513316128,-5,3,7,16,8,2,2,3
1570180513316128,27,17,5,6,1,2,3,3
1570180513316128,30,9,-1,-1,-3,0,0,1
1570180513331284,-46,-26,-15,-5,-4,-1,-2,0
1570180513331284,-15,-8,2,-4,-1,0,2,-8
1570180513331284,-23,7,6,2,2,0,-4,-13
1570180513331284,10,4,-9,-14,-7,-3,1,12
1570180513353367,-42,6,8,3,1,1,-3,-22
1570180513353367,-8,-21,-9,-6,0,-3,-7,-3
1570180513354028,-1,-4,0,-1,-5,-3,1,-1
1570180513354028,-3,4,1,3,2,0,-4,-11
1570180513375967,-3,4,1,2,-1,0,0,-3
1570180513375967,3,5,-1,-10,-8,-1,2,-7
1570180513375967,36,3,2,0,4,4,6,37
1570180513375967,-18,0,5,15,10,2,0,12
1570180513390949,-1,-1,4,3,3,1,-5,-24
1570180513390949,-1,0,-5,-1,-7,-3,-1,13
1570180513390949,34,0,-2,-1,1,-1,2,14
1570180513390949,-50,-34,-7,-6,-2,-3,-3,-7
1570180513413080,13,4,-3,-5,-2,1,4,11
1570180513413080,-5,-2,1,-1,3,-1,0,-3
1570180513413874,-4,-3,-2,-3,-3,-4,-3,-1
1570180513413874,-2,9,2,0,-3,4,-2,-25
1570180513435979,-7,-4,-2,2,1,0,5,17
1570180513435979,20,6,-2,-3,-1,1,-3,-21
1570180513442990,-18,-6,-7,-7,-5,-3,-1,24
1570180513442990,4,1,-1,4,-1,-3,-2,-3
1570180513450975,-12,-11,-5,-6,-3,-1,1,11
1570180513450975,12,13,3,6,1,0,-1,1
1570180513451767,-8,-1,3,2,7,0,-2,-17
1570180513451767,14,5,1,-2,-7,-1,1,8
1570180513472923,-2,-2,-4,-2,-3,0,-2,-6
1570180513472923,-11,-9,-1,1,5,2,-1,4
1570180513473706,2,3,-1,-2,-2,-1,-2,-9
1570180513473706,-1,-2,-1,-4,-5,-4,-2,1
1570180513495695,-8,1,0,-1,1,1,-3,-19
1570180513495695,5,-2,1,-2,-3,1,-1,8
1570180513496699,-7,-4,0,1,3,2,7,17
1570180513496699,7,3,-2,-3,2,-3,-2,-6
1570180513510615,-17,-1,-1,-1,-1,4,-7,-42
1570180513510615,-3,-1,0,2,4,1,2,-4
1570180513511604,-2,1,2,1,-3,3,0,-1
1570180513511604,18,2,1,-1,0,7,5,28
1570180513533583,10,-2,-6,-3,-2,-12,-2,20
1570180513533583,-12,1,3,0,2,8,10,-18
1570180513533583,12,1,0,4,-1,-7,-18,47
1570180513533583,5,1,-2,-3,-1,-7,-2,-1
1570180513555602,-9,-4,-1,-2,-2,25,4,-7
1570180513555602,7,2,1,2,4,3,-4,12
1570180513556497,-6,-1,1,-1,8,34,9,-14
1570180513556497,1,-3,-3,-6,-19,-50,-11,-1
1570180513570454,15,4,-2,-1,2,-7,-2,27
1570180513570454,-1,-3,-4,-3,-10,-9,0,-21
1570180513571561,-40,-7,-1,2,-2,2,1,-38
1570180513571561,-12,-7,0,1,7,15,6,10
1570180513593391,-3,5,-1,-1,-1,-4,3,-21
1570180513593391,8,1,-2,-4,-5,-8,-2,-5
1570180513594185,5,1,-2,-2,0,-11,-4,-19
1570180513594185,7,1,3,0,4,8,5,-1
1570180513615562,-8,-5,0,0,-3,-10,-3,-2
1570180513615562,-3,-2,-2,0,4,8,3,17
1570180513616333,1,-1,-1,-2,-5,-7,-1,-5
1570180513616333,-18,-3,0,1,3,8,2,-19
1570180513630428,18,8,1,2,-1,0,2,25
1570180513630428,26,-1,-3,-3,-3,-5,1,53
1570180513631406,6,-2,-1,-1,-2,-4,2,5
1570180513631406,-5,3,-1,-2,-2,2,-4,-20
1570180513653546,-3,-8,-1,-1,-1,-3,-4,6
1570180513653546,18,8,2,0,-1,-3,-2,0
1570180513654231,-38,-8,2,0,-1,-7,-2,-7
1570180513654231,0,-20,0,3,4,8,2,7
1570180513675909,38,37,2,0,0,-3,-1,15
1570180513675909,-5,0,-4,-3,-4,-5,-4,-14
1570180513676164,56,16,6,2,0,2,2,3
1570180513676164,-96,-37,-7,0,2,2,-1,-15
1570180513692121,-3,-18,1,2,3,0,3,0
1570180513692121,-8,7,-6,-4,-4,-6,-10,-18
1570180513693118,-8,0,-1,-1,-1,-3,-1,-3
1570180513693118,22,19,6,1,2,4,1,17
1570180513713069,10,-8,-6,-3,-4,-6,-1,-8
1570180513713069,6,-3,0,0,0,0,1,17
1570180513714117,-12,-9,-4,-1,-3,-3,-3,-1
1570180513714117,37,17,2,1,0,0,1,6
1570180513736132,-27,-11,0,0,-1,2,1,0
1570180513736132,-3,7,3,1,2,5,1,2
1570180513736132,-32,-23,-9,-7,-10,-10,-4,-12
1570180513736132,33,13,1,-1,1,-1,0,7
1570180513750971,-12,-5,-2,-4,0,-2,0,-3
1570180513750971,20,1,4,1,0,2,-3,-9
1570180513750971,5,9,-6,-5,-5,-3,-7,-18
1570180513750971,16,5,-5,-3,-1,1,-5,9
1570180513773042,-17,-4,-2,-2,-5,-5,-2,-3
1570180513773042,-49,-20,-5,-2,-6,-13,-4,-4
1570180513773905,-3,-4,1,3,6,-4,3,-9
1570180513773905,26,6,-3,-3,-1,25,2,5
1570180513795989,-12,-5,1,2,0,0,-2,4
1570180513795989,6,2,0,1,0,2,2,-3
1570180513795989,-25,8,5,2,1,-3,2,9
1570180513795989,27,-1,-2,-1,-2,-5,1,-11
1570180513810999,37,9,2,0,1,3,0,17
1570180513810999,-52,-31,-6,-3,-1,0,-7,-28
1570180513811803,22,11,-2,-2,1,8,-1,1
1570180513811803,-25,-2,-1,-1,-3,-3,3,-9
1570180513832927,3,3,3,2,1,-6,-2,-3
1570180513832927,40,11,3,0,1,4,7,11
1570180513833752,28,3,1,0,2,5,3,6
1570180513833752,-18,-12,1,-1,1,-1,2,7
1570180513855825,-2,-2,-4,-1,-2,-8,-7,-6
1570180513855825,-2,11,5,2,3,2,1,-5
1570180513856681,14,-4,0,-1,0,-1,-4,9
1570180513856681,-2,-3,-3,-2,0,0,2,-3
1570180513878791,-39,-5,-1,-4,-2,1,1,-6
1570180513878791,30,12,-3,-3,-1,-4,-5,0
1570180513879619,-8,-9,2,0,-2,2,3,-7
1570180513879619,-10,-2,-3,-1,0,-8,-1,1
1570180513892584,-7,-6,5,4,3,4,2,-1
1570180513892584,-22,-9,1,2,2,2,3,-1
1570180513893580,6,11,-2,-1,-2,-8,-6,5
1570180513893580,-15,4,1,-1,-1,0,-1,-5
1570180513915856,24,5,-4,-5,-3,0,-1,4
1570180513915856,-17,-7,0,0,-1,1,0,-16
1570180513916522,10,-4,-1,1,0,-2,-1,5
1570180513916522,-2,2,1,0,2,-2,-3,-2
1570180513930483,-7,0,-2,-1,1,3,0,-5
1570180513930483,10,0,-2,-2,1,0,-2,24
1570180513937654,-23,-16,-1,0,-3,5,0,-2
1570180513937654,-8,10,7,3,4,3,1,-10
1570180513953556,48,7,-9,-7,-11,-21,-16,34
1570180513953556,-24,-21,-5,-2,0,0,-2,-24
1570180513953556,-4,3,3,1,1,4,3,15
1570180513953556,1,-8,-2,-2,-4,-2,-2,1
1570180513975789,3,9,6,3,2,8,7,-12
1570180513975789,-3,3,0,-1,-2,-1,-1,-6
1570180513976363,-4,-5,-5,-2,-2,-13,-1,0
1570180513976363,3,8,1,2,2,16,-3,-8
1570180513990337,-24,-9,-1,0,0,-6,3,-4
1570180513990337,25,4,0,-2,-3,-8,-4,6
1570180513998511,-26,-3,2,3,4,1,0,-3
1570180513998511,16,4,-2,-3,-3,-6,-3,7
1570180514013486,5,2,0,0,2,6,0,-5
1570180514013486,-11,-5,-1,0,-2,0,2,8
1570180514014263,12,3,-2,-3,-1,5,1,-7
1570180514014263,22,5,3,3,0,-2,0,-4
1570180514035390,-34,-20,-8,-6,-4,-2,-7,-15
1570180514035390,-14,1,0,1,-1,-4,-2,-16
1570180514036269,7,2,-1,-1,0,3,-3,-1
1570180514036269,-2,3,1,0,-3,-17,-4,-1
1570180514050291,4,1,2,2,1,-7,1,2
1570180514050291,-3,0,1,0,4,20,4,5
1570180514058292,4,1,-1,-2,-3,-4,-4,-9
1570180514058292,-11,-5,-3,-2,-2,-6,-5,-4
1570180514073284,3,4,3,3,3,6,6,2
1570180514073284,-4,-1,-1,-2,1,1,-1,2
1570180514074101,9,3,1,-1,-1,3,-2,-6
1570180514074101,-8,-4,-1,0,0,-3,-1,-2
1570180514096084,5,2,1,0,0,2,1,0
1570180514096084,4,2,0,-1,2,2,2,1
1570180514096084,0,0,-2,-2,-1,-5,-3,3
1570180514096084,-4,-5,-1,-1,-2,-1,1,0
1570180514110403,-1,-1,0,-1,0,2,-1,-6
1570180514110403,0,0,-1,-1,-2,-6,-2,1
1570180514118215,-6,0,0,0,1,8,2,-7
1570180514118215,-3,-5,0,-1,7,0,-4,-8
1570180514133125,6,1,0,-1,-11,-6,3,8
1570180514133125,-1,1,1,-1,-2,-7,-2,-3
1570180514134167,-1,-1,-1,-1,0,-2,1,5
1570180514134167,-3,0,-1,-1,-1,6,0,0
1570180514165170,0,0,1,-1,3,2,-3,-4
1570180514165170,1,0,0,0,-2,-5,-3,-2
1570180514165856,-3,-4,-4,-2,-5,-6,1,1
1570180514165856,-2,0,0,-1,-2,2,2,-5
1570180514169843,0,2,2,1,3,1,-4,-3
1570180514169843,2,0,-3,0,-3,-4,0,1
1570180514177831,0,-2,-2,0,1,2,-1,-4
1570180514177831,-2,-2,-1,-2,-3,-8,3,2
1570180514193019,0,-1,-1,0,0,7,-3,2
1570180514193019,0,-2,-2,0,1,2,1,7
1570180514193790,2,-1,0,0,-3,-7,-3,-4
1570180514193790,-2,-1,-2,-1,-3,-5,-2,6
1570180514216003,1,-1,0,-1,0,1,0,0
1570180514216003,-3,1,2,-1,2,14,0,-1
1570180514216729,0,1,2,1,4,-2,-2,-3
1570180514216729,-5,-5,-6,-5,-15,-10,2,7
1570180514229739,1,1,-1,1,5,-2,-3,-1
1570180514229739,-2,-1,0,-1,1,-2,1,0
1570180514237802,0,-1,0,-2,1,-1,0,1
1570180514237802,1,-2,2,0,2,9,-2,-4
1570180514253649,-1,-1,-2,-1,-2,1,3,5
1570180514253649,1,-1,-1,-2,-4,-12,-3,1
1570180514253649,-5,-1,-1,0,1,1,-1,-9
1570180514253649,0,0,0,1,1,0,-2,1
1570180514275565,0,-2,-1,0,-2,0,3,-2
1570180514275565,0,1,0,-2,1,-2,0,-1
1570180514276563,1,0,0,0,-2,0,0,0
1570180514276563,-2,0,-2,0,2,2,0,4
1570180514298502,0,-1,-1,0,-1,-2,-2,-1
1570180514298502,1,-1,0,2,0,1,-1,-2
1570180514305659,-1,-1,-1,0,-2,-2,0,3
1570180514305659,1,0,0,0,-2,-3,-2,-3
1570180514313459,0,0,-1,-3,0,0,-1,1
1570180514313459,-15,0,0,0,0,-2,-4,-45
1570180514313459,21,4,1,0,-1,-1,6,44
1570180514313459,7,1,1,0,2,0,-3,2
1570180514335453,0,2,0,-1,1,0,3,0
1570180514335453,1,-3,-1,-1,-2,0,-1,7
1570180514336413,-5,0,1,-1,-2,-1,-5,-13
1570180514336413,-2,-2,-1,1,0,1,1,-6
1570180514359345,2,-1,-1,-2,1,0,0,4
1570180514359345,3,1,0,0,-1,-4,-2,10
1570180514359624,-5,-2,-1,-2,0,0,-1,-6
1570180514359624,2,0,-1,-3,-1,-2,0,8
1570180514373532,-13,0,1,1,-1,0,-3,-30
1570180514373532,18,1,-2,-1,0,0,6,42
1570180514374297,-4,-2,-2,0,-1,-1,-2,-15
1570180514374297,-5,0,0,0,1,-1,-2,-9
1570180514395245,-2,-2,-1,-1,0,-2,0,-1
1570180514395245,-1,-1,-1,-1,-2,0,-3,-4
1570180514396375,-2,0,-1,1,0,-1,0,0
1570180514396375,1,1,-1,0,1,2,-1,3
1570180514419233,2,-1,-2,0,-1,1,0,4
1570180514419233,-2,-1,-1,0,-2,-2,-1,1
1570180514419233,-1,-3,-1,-3,-1,-2,0,-9
1570180514419233,-6,-1,0,0,-1,1,0,-6
1570180514433189,0,-4,-2,-3,-2,-2,-2,9
1570180514433189,0,-1,1,-1,-1,-1,0,2
1570180514434144,-5,-1,-1,-1,1,0,-2,-2
1570180514434144,3,0,-1,0,-1,-1,-1,1
1570180514456080,-2,0,0,-1,0,-2,2,-4
1570180514456080,-1,-1,-1,-1,0,0,2,6
1570180514456080,-3,-1,-1,-3,-1,-2,-2,-9
1570180514456080,5,-1,-1,-1,-1,-1,1,7
1570180514479228,2,0,0,1,-2,-2,-6,6
1570180514479228,-2,-2,0,-2,-2,-1,-2,-9
1570180514480085,0,0,0,0,-1,0,1,6
1570180514480085,-2,-1,0,-1,0,-2,-1,-4
1570180514493029,1,-3,-1,-2,-1,0,4,-1
1570180514493029,0,-1,-4,0,0,-1,-1,1
1570180514494115,-4,0,3,1,-1,-1,-3,-9
1570180514494115,2,1,-3,1,-1,1,1,7
1570180514515946,0,0,-2,-1,0,0,-2,2
1570180514515946,-3,-1,-1,0,0,2,2,-11
1570180514523973,0,0,0,0,-1,0,1,14
1570180514523973,-5,-1,0,0,-1,-1,-3,-10
1570180514538858,0,-2,2,-1,-1,-2,0,6
1570180514538858,-6,-1,0,-1,-1,-3,-3,-11
1570180514539624,-2,-2,-1,0,-1,0,0,-5
1570180514539624,6,1,0,-1,-1,-1,0,11
1570180514552822,0,1,-1,1,0,-1,-3,-1
1570180514552822,-4,0,1,-1,0,-1,-3,-1
1570180514553819,-2,-1,-1,1,-1,0,-3,-2
1570180514553819,-4,0,-2,-2,-2,-1,-1,0
1570180514575875,1,1,-1,-2,-1,-1,0,-10
1570180514575875,2,0,0,0,1,-1,-1,0
1570180514576757,3,0,-1,-1,0,1,2,11
1570180514576757,-3,-1,0,0,-1,0,-1,-9
1570180514598911,-1,-1,-1,-1,-2,0,-2,-4
1570180514598911,0,-1,-1,0,-2,-1,-1,-1
1570180514599696,0,-1,-2,-2,-1,0,-1,2
1570180514599696,-5,-2,0,-1,0,-2,-1,-5
1570180514612666,1,0,-2,0,-2,-2,1,5
1570180514612666,0,0,0,-1,-1,-1,2,10
1570180514613719,-5,-3,-2,-4,1,-1,-3,-7
1570180514613719,8,2,-1,0,1,-1,0,4
1570180514635816,-1,-1,1,-1,0,-1,0,8
1570180514635816,0,0,-2,0,0,-1,1,2
1570180514636608,0,0,0,-2,-1,-1,0,-2
1570180514636608,-6,-2,-1,0,0,0,-1,-5
1570180514658651,2,-1,-1,0,-1,0,0,11
1570180514658651,-4,-3,0,-2,-2,-2,-4,-8
1570180514659535,1,2,0,1,-1,0,-1,5
1570180514659535,-2,-1,-1,-2,-1,1,-1,-9
1570180514673607,1,1,1,1,-2,-1,-1,-2
1570180514673607,-3,0,-1,0,-2,-1,0,-1
1570180514673607,1,-2,-1,-2,-1,1,2,6
1570180514673607,-1,1,1,1,0,-1,-3,-14
1570180514695549,-1,-3,-3,-1,0,0,-1,0
1570180514695549,1,-3,-1,1,0,0,-3,-1
1570180514696437,0,-1,-2,1,0,-1,1,2
1570180514696437,-2,-2,-1,-1,0,0,1,1
1570180514718425,-6,-1,-1,0,2,0,-3,-17
1570180514718425,2,1,-1,-1,-1,-2,1,2
1570180514719462,1,-1,-1,0,0,0,0,-2
1570180514719462,-1,-2,2,1,1,-1,0,9
1570180514733351,-2,-2,1,-1,-2,-1,-4,-15
1570180514733351,0,0,0,1,1,0,-1,0
1570180514734336,-3,-2,-2,-1,1,1,0,-6
1570180514734336,0,0,0,0,0,-4,-2,3
1570180514755412,1,0,2,-1,0,0,-1,5
1570180514755412,0,-1,-1,-1,-1,-1,0,-1
1570180514756285,-1,-1,-2,-2,0,-1,1,0
1570180514756285,-4,-1,-2,-1,-1,-1,0,-6
1570180514779215,6,1,0,0,0,-3,-3,0
1570180514779215,0,0,0,-1,-2,-1,-3,-11
1570180514779215,0,0,-2,0,-1,-2,-2,0
1570180514779215,-1,-1,-2,-3,-3,1,-4,-14
1570180514793180,-3,0,1,0,-1,-1,2,-1
1570180514793180,-5,-2,0,-2,0,1,-1,-4
1570180514794173,2,-1,-1,-1,-1,1,0,3
1570180514794173,-1,0,1,0,0,-1,-3,-3
1570180514816117,0,-2,-3,-2,-1,1,3,5
1570180514816117,0,1,0,2,0,-2,-1,0
1570180514816459,0,0,1,-1,0,-2,0,1
1570180514816459,1,-3,-4,-1,-1,1,3,12
1570180514839204,-1,-1,0,1,1,0,1,-2
1570180514839204,0,-2,-2,-1,-1,-1,-2,4
1570180514840066,-1,-1,1,-1,1,-1,-1,-1
1570180514840066,2,-2,-1,-3,-1,1,2,10
1570180514853066,-1,-2,-2,-3,1,0,0,3
1570180514853066,-3,-2,-1,-1,-1,0,0,-2
1570180514854017,0,0,0,1,-1,1,0,-1
1570180514854017,0,-2,-1,-1,-1,-3,-3,0
1570180514876226,-3,-1,0,0,-1,0,0,-2
1570180514876226,1,-1,0,0,1,0,0,5
1570180514876226,-2,-2,-2,0,-1,0,-3,-4
1570180514876226,-3,-1,1,0,0,0,2,6
1570180514899118,-3,-1,-2,0,-1,-3,-4,-15
1570180514899118,1,-1,-2,-1,0,1,2,4
1570180514899897,-1,-3,-2,-3,-4,-2,-1,-4
1570180514899897,-1,1,1,1,-1,0,-3,-1
1570180514913060,0,0,-1,-2,2,0,1,5
1570180514913060,0,0,-1,-1,1,0,1,-2
1570180514921019,-1,0,-3,1,0,1,3,-2
1570180514921019,-7,-2,-2,0,-2,-1,-7,-17
1570180514935798,9,2,-1,0,-1,-2,2,32
1570180514935798,-3,-2,1,-2,-1,1,2,0
1570180514935798,-2,2,0,1,0,-3,0,6
1570180514935798,1,0,-1,-1,-1,-3,3,-3
1570180514958744,-4,-1,-1,-2,-1,0,-5,-14
1570180514958744,1,-1,-1,0,-1,1,0,7
1570180514959736,3,1,1,0,-1,-2,-5,0
1570180514959736,1,0,-2,0,0,0,1,0
1570180514972736,-3,-2,-1,-2,-1,-1,0,-4
1570180514972736,3,3,1,1,1,0,2,12
1570180514980816,-4,-2,1,1,-1,-1,-2,-8
1570180514980816,1,0,-2,-2,-1,-1,0,3
1570180514995874,-2,-3,-1,-1,-2,1,3,3
1570180514995874,-2,-1,-2,-1,-2,-1,-1,-8
1570180514996633,-3,0,-1,0,0,1,2,5
1570180514996633,1,-1,-1,0,0,1,1,4
1570180515018838,-6,-1,-1,-2,0,-1,-2,-15
1570180515018838,0,-1,0,-2,-3,-1,-2,-1
1570180515019570,1,0,0,-1,-1,0,0,2
1570180515019570,-1,-1,0,-1,-1,0,-1,1
1570180515032667,0,-1,-2,0,1,0,-1,0
1570180515032667,-2,-2,0,-1,-1,-2,0,-4
1570180515040514,1,-1,0,0,-1,-1,-2,-1
1570180515040514,-3,1,2,0,-1,0,-2,-5
1570180515055720,1,-3,-3,0,-1,-2,-1,0
1570180515055720,-2,0,0,-1,-1,-3,-2,1
1570180515056479,2,-1,-2,0,0,-1,-2,2
1570180515056479,-1,-1,-2,0,0,0,1,1
1570180515078421,2,1,1,1,-1,1,-2,2
1570180515078421,1,-2,-2,-1,0,-2,-3,-2
1570180515079412,-2,0,0,-1,-2,0,-1,-6
1570180515079412,-1,1,1,0,0,1,0,2
1570180515092515,8,-2,-4,-3,-2,1,7,25
1570180515092515,1,0,0,1,0,0,0,-2
1570180515100525,0,-1,1,-1,-1,-1,-2,-4
1570180515100525,-3,-2,-1,-2,-2,0,0,-10
1570180515115551,-3,0,1,0,0,-1,1,-7
1570180515115551,-1,0,0,-1,0,0,-1,-2
1570180515116316,1,-1,-2,-1,-2,0,-2,-1
1570180515116316,2,2,1,-1,0,-2,-1,2
1570180515139292,-5,-1,0,0,0,0,-1,-6
1570180515139292,5,-1,-1,-2,-2,-1,0,-4
1570180515139292,-1,1,-2,1,1,2,0,0
1570180515139292,-1,-1,-1,-1,-1,-1,-2,1
1570180515152586,-2,-1,1,1,-1,-1,-1,-1
1570180515152586,-3,-2,-2,-1,0,-1,3,-1
1570180515160225,-1,-2,1,-1,-1,-1,1,-3
1570180515160225,0,-3,-3,0,-1,-1,-3,-19
1570180515175154,0,0,0,0,-1,-2,-4,1
1570180515175154,-2,-2,-3,0,1,0,0,-2
1570180515176154,0,-1,1,-1,0,-2,-2,-5
1570180515176154,-3,-2,-2,-1,-1,-1,1,7
1570180515199099,3,1,1,0,1,-1,-1,1
1570180515199099,-2,0,-2,2,0,1,-3,-4
1570180515199099,0,-1,-2,-2,0,-2,0,4
1570180515199099,0,1,1,-1,-1,2,1,0
1570180515221269,-2,-2,-1,-1,-1,2,5,-3
1570180515221269,-1,1,1,0,-2,-2,-1,4
1570180515222543,-1,-1,-1,-1,-1,0,1,-1
1570180515222543,-1,-3,-2,-2,0,-1,1,4
1570180515235993,0,1,-2,-2,0,-1,-1,-8
1570180515235993,-1,-2,-2,-2,0,1,2,-3
1570180515235993,-3,2,-1,-1,-2,-1,-2,-2
1570180515235993,0,-1,-1,-1,-1,0,0,3
1570180515258932,0,0,0,-2,-1,-2,-1,1
1570180515258932,-3,0,-1,-2,-1,-1,-2,-3
1570180515259929,-1,-1,-1,-3,-1,-2,-3,-5
1570180515259929,1,-1,3,1,0,-3,-2,10
1570180515281872,3,-1,-1,-1,0,-1,-2,1
1570180515281872,-1,0,0,-1,-1,0,0,0
1570180515281872,-3,0,-1,-1,-2,1,1,-8
1570180515281872,0,2,0,0,0,1,0,-2
1570180515296047,-1,-1,-1,1,0,-1,3,12
1570180515296047,1,0,0,1,-2,0,-4,3
1570180515296834,1,-1,-1,1,-1,-1,1,2
1570180515296834,-2,0,-1,-1,0,-1,1,0
1570180515318938,-4,-1,0,0,-2,-2,-3,-8
1570180515318938,-2,-2,-1,-3,-1,0,1,0
1570180515319776,-1,0,0,-2,0,1,-1,4
1570180515319776,1,-1,-2,0,-1,1,-2,-2
1570180515357977,-1,-1,-3,-1,0,2,1,-3
1570180515357977,2,0,0,0,0,-2,-2,4
1570180515358678,0,-1,-2,-2,1,-2,-1,0
1570180515358678,2,-1,-2,-1,0,-1,0,0
1570180515359711,-1,0,-1,0,-3,-2,-2,-7
1570180515359711,1,0,0,1,-1,-1,-1,0
1570180515363653,0,-4,-2,-1,1,1,4,0
1570180515363653,1,1,-1,-1,-1,-3,-5,14
1570180515378818,-3,-1,-1,-1,0,-1,-3,2
1570180515378818,-2,-1,-1,0,-1,-2,-4,-3
1570180515379674,0,0,0,0,-3,-1,1,6
1570180515379674,-2,-1,-1,-1,0,0,-1,-6
1570180515401722,1,-1,-1,-3,0,1,0,0
1570180515401722,-1,-1,-1,-2,0,-3,-1,-4
1570180515401722,-2,0,-1,-1,0,0,-2,-3
1570180515401722,0,-1,-1,-1,1,1,1,-1
1570180515415633,-3,-1,0,-1,0,0,2,-2
1570180515415633,5,1,0,-1,-1,0,-2,7
1570180515416518,-3,0,-1,1,-1,-2,-1,-4
1570180515416518,-3,0,-2,1,0,-2,-1,-7
1570180515439451,2,1,0,0,0,-1,0,7
1570180515439451,-4,-2,0,0,-1,1,2,-3
1570180515439451,0,-1,-1,-1,-1,0,1,-2
1570180515439451,0,-3,-2,0,0,-2,0,4
1570180515468495,0,1,1,1,0,-3,-6,-7
1570180515468495,-2,0,0,1,0,-3,-2,-4
1570180515469373,2,-1,-2,-1,-1,-1,2,11
1570180515469373,-3,0,1,-1,-1,1,-2,-14
1570180515475356,-1,-1,-1,1,-2,-2,0,0
1570180515475356,0,-1,-2,-2,-1,1,-2,-2
1570180515483337,0,2,1,-1,-1,0,0,2
1570180515483337,1,-1,0,-1,-2,0,0,1
1570180515498405,0,-1,-2,0,-1,0,1,3
1570180515498405,-2,1,1,1,-1,-1,0,-8
1570180515500350,-2,2,2,2,4,-3,-7,-13
1570180515500350,4,0,-1,-1,0,1,4,16
1570180515521351,-2,-1,-2,-2,0,0,-2,-6
1570180515521351,0,-1,-2,-2,0,0,1,-5
1570180515523226,-2,-1,-2,-1,-1,-1,-1,-2
1570180515523226,-3,0,-1,-1,-1,-1,0,0
1570180515535200,-1,-1,0,0,0,0,-3,1
1570180515535200,-2,-2,1,0,-1,-3,-1,2
1570180515544169,0,-2,0,-1,0,0,0,3
1570180515544169,-4,0,-1,1,-1,-1,-3,-5
1570180515559130,0,-1,-2,-2,0,0,4,-3
1570180515559130,-4,-2,-2,-2,-1,-4,-7,-18
1570180515560127,-1,-2,-2,-1,-2,-1,1,-4
1570180515560127,4,1,1,-1,-1,-2,-16,12
1570180515581197,2,1,-1,-1,0,-1,-9,15
1570180515581197,0,1,-1,0,1,2,3,7
1570180515583065,1,0,0,0,0,1,1,-11
1570180515583065,0,0,1,-1,-2,0,1,0
1570180515595181,-3,-2,-3,0,-2,-2,1,-6
1570180515595181,1,-1,-2,-1,-1,1,-1,10
1570180515604141,0,-2,0,-2,0,0,1,4
1570180515604141,-3,-2,-2,-1,0,1,5,-8
1570180515619013,1,2,0,0,0,-1,-1,-3
1570180515619013,0,-1,-2,-2,0,-1,1,0
1570180515620591,-3,-2,-1,-2,-2,0,2,1
1570180515620591,0,-1,-2,-2,-1,-2,-2,-3
1570180515640958,2,-1,1,1,-1,0,3,5
1570180515640958,-1,1,0,0,-3,-2,0,-3
1570180515642993,3,2,1,-1,0,-2,-3,3
1570180515642993,-1,-1,-1,0,0,0,1,0
1570180515654920,-1,-3,-1,-1,1,-2,1,-1
1570180515654920,0,-1,0,0,-1,-1,3,-1
1570180515663940,-3,-1,-2,-1,-1,-2,0,0
1570180515663940,-2,-2,1,-1,-2,-1,2,-2
1570180515678808,-1,-1,-1,-2,0,0,-2,-4
1570180515678808,-2,-2,-1,-2,1,1,0,-3
1570180515680802,2,-1,-2,2,0,0,-3,5
1570180515680802,0,0,-2,0,1,-1,1,-1
1570180515700791,0,-2,-3,0,1,1,3,-1
1570180515700791,-2,-3,-3,-3,-1,1,0,1
1570180515702744,2,1,-2,0,-4,-2,-2,7
1570180515702744,0,-1,-1,0,1,0,-1,-8
1570180515715709,-2,-1,1,-1,-3,-1,0,-2
1570180515715709,-1,2,2,-1,0,0,0,-1
1570180515723687,3,0,0,-1,-1,0,3,4
1570180515723687,-4,-2,0,-1,0,0,0,-8
1570180515738704,-2,1,2,0,-1,-1,-3,-13
1570180515738704,6,1,1,0,-1,-3,-6,10
1570180515744640,-2,-2,-2,-3,0,-1,-1,0
1570180515744640,0,-2,-1,-1,-1,0,-1,9
1570180515761587,-2,1,0,-1,-1,-1,-5,-14
1570180515761587,0,-2,-3,1,0,-1,2,2
1570180515762605,-4,-1,-2,0,0,0,-3,-7
1570180515762605,1,-1,-2,0,-1,-1,2,9
1570180515774551,-2,0,1,1,-2,0,-2,2
1570180515774551,-2,-1,1,0,-2,0,-1,-3
1570180515783690,-2,-1,0,-2,-2,-3,-1,-7
1570180515783690,7,0,-2,-2,0,1,1,6
1570180515798615,-1,-1,0,-1,0,-1,0,3
1570180515798615,-4,-3,-1,0,0,-1,-2,-9
1570180515800484,0,0,-1,-3,0,1,2,-8
1570180515800484,-2,1,1,2,-2,-3,-4,-7
1570180515821555,1,-1,-2,0,0,-1,1,3
1570180515821555,-1,1,-1,-1,-1,2,3,-2
1570180515822425,-7,0,-1,0,-1,-1,9,-23
1570180515822425,-3,-1,0,-2,-3,1,7,-12
1570180515834391,3,0,-1,0,0,-1,-2,5
1570180515834391,-2,-1,-1,-2,-1,1,1,1
1570180515843414,-1,1,1,0,0,1,0,-3
1570180515843414,-2,-2,-1,-2,-2,-1,1,-5
1570180515858332,1,-1,1,-1,0,-1,0,-2
1570180515858332,0,-1,-1,-1,-1,-1,0,-3
1570180515860325,0,-2,-2,-2,-1,0,-4,3
1570180515860325,1,2,2,3,0,-2,0,19
1570180515881267,4,1,-2,-2,-1,0,2,5
1570180515881267,4,2,-1,0,2,-2,-3,9
1570180515883261,1,0,-1,-1,-2,-2,-2,6
1570180515883261,-2,-1,-1,0,0,1,-4,-5
1570180515895234,-2,1,0,0,-1,1,-1,-3
1570180515895234,-1,0,0,-1,-1,0,2,1
1570180515904205,0,-1,-1,1,0,0,-2,3
1570180515904205,-1,0,-1,-1,0,0,0,-5
1570180515918167,-1,-2,0,0,-2,-2,0,0
1570180515918167,1,0,-1,-1,-1,-1,-4,4
1570180515920163,-1,-1,-2,0,-3,-4,-7,1
1570180515920163,0,-1,-2,-1,1,0,-2,-1
1570180515941225,-3,-1,-2,-1,-2,1,5,-1
1570180515941225,5,0,-1,1,-2,-2,-3,19
1570180515943149,-2,-1,0,-1,1,-2,1,-1
1570180515943149,-1,0,0,-1,-2,-2,-2,-2
1570180515955259,0,-1,-4,-3,-1,0,0,3
1570180515955259,-3,-1,1,1,-1,-2,-1,-10
1570180515964020,-1,-1,-3,-2,1,2,0,2
1570180515964020,1,0,0,1,0,0,-1,1
1570180515978941,-2,-1,1,0,0,-4,-6,-13
1570180515978941,-2,-1,-1,-1,0,0,-1,-2
1570180515980014,1,0,1,0,-1,0,0,-2
1570180515980014,0,-1,-2,-2,0,0,0,-1
1570180516001069,-1,-2,-2,-1,-1,-1,-1,0
1570180516001069,-2,0,-3,-1,-1,0,1,-1
1570180516002883,1,1,-1,0,0,0,0,0
1570180516002883,0,-2,0,-1,-1,-1,1,-3
1570180516015162,0,1,-1,-2,0,-1,-1,4
1570180516015162,-2,0,2,1,0,-1,-2,-4
1570180516024243,-4,-1,0,1,0,0,-6,-8
1570180516024243,6,2,-1,-1,0,0,3,17
1570180516038284,-1,-2,-1,0,-1,2,-2,0
1570180516038284,1,-2,-1,-2,0,-1,1,1
1570180516040276,-1,1,0,1,1,-1,0,0
1570180516040276,-4,-2,-1,0,0,-1,-3,-11
1570180516061215,1,0,-1,-1,-1,-1,-1,4
1570180516061215,-2,0,1,1,-2,0,-1,-1
1570180516063220,1,0,1,0,-1,-2,-1,9
1570180516063220,-4,-1,-2,-2,0,0,2,-6
1570180516074928,0,0,-1,-1,0,0,2,5
1570180516074928,-3,-1,-1,-1,1,-2,-2,-5
1570180516083912,2,-2,-3,-2,-1,1,-1,6
1570180516083912,-1,0,-1,-1,-2,-1,-2,-4
1570180516099063,-3,0,0,0,0,0,0,-8
1570180516099063,4,1,-1,-1,-1,1,1,7
1570180516100060,1,-1,0,0,-1,0,0,-2
1570180516100060,-2,2,0,1,0,-1,-5,-3
1570180516121263,0,-1,1,0,-1,-1,-1,1
1570180516121263,-1,-3,-1,-2,-1,-1,-1,-1
1570180516123260,-1,0,-2,0,-1,-2,0,0
1570180516123260,1,-1,0,0,-2,-1,-3,-3
1570180516136322,0,-1,-1,0,-1,-1,1,3
1570180516136322,2,1,-2,-2,0,2,4,15
1570180516144202,-2,0,2,-1,-2,0,-4,-10
1570180516144202,-1,-2,-1,-1,-1,0,0,-2
1570180516158561,0,0,-1,-1,1,-1,0,-1
1570180516158561,-2,-2,0,-1,-3,-1,2,-5
1570180516160556,-2,-2,-2,-1,-2,0,1,0
1570180516160556,0,-1,-1,-1,-1,1,1,7
1570180516188725,0,-2,0,2,1,-1,-4,-1
1570180516188725,-1,-1,-2,-1,-1,-1,-2,-9
1570180516190711,2,0,-1,-2,-1,-1,0,3
1570180516190711,-1,-1,0,-1,-2,0,-1,-2
1570180516203787,-1,0,-1,0,-2,-1,-1,-6
1570180516203787,1,-1,0,1,-1,-2,0,3
1570180516205670,-3,-1,-2,1,-1,0,7,4
1570180516205670,-1,-1,-3,-1,0,1,-1,3
1570180516219231,-2,0,-1,-2,-1,1,-2,-2
1570180516219231,-3,-1,1,-1,-2,-2,-2,-2
1570180516220230,0,-1,0,-3,1,0,-1,0
1570180516220230,-3,-2,0,-1,-1,-3,-3,-8
1570180516241218,-1,1,1,0,0,-1,-1,-6
1570180516241218,-2,-2,-3,-1,-1,1,0,-6
1570180516243243,1,-2,-1,-2,-1,0,1,5
1570180516243243,-1,-2,1,1,-1,-1,-1,-3
1570180516264110,1,0,-1,0,-2,-2,-3,4
1570180516264110,-2,1,1,1,0,-1,-1,-3
1570180516265108,-2,0,0,-2,0,-1,-4,-1
1570180516265108,0,-1,-1,-4,0,0,-1,-7
1570180516279069,4,-1,-2,-1,-2,-1,2,12
1570180516279069,1,1,-2,-1,0,-2,-2,0
1570180516280068,1,0,-1,-1,-1,0,-1,2
1570180516280068,0,0,0,-1,-2,0,-2,-8
1570180516302070,-5,-2,-2,-2,0,0,0,-2
1570180516302070,0,0,-1,0,-1,0,-1,-2
1570180516303005,-2,0,-1,-1,-1,-1,-2,-4
1570180516303005,3,1,-1,-2,0,-2,-3,-3
1570180516324113,-3,-2,1,-1,-1,0,0,-5
1570180516324113,-1,-2,0,-1,1,1,-1,-1
1570180516325945,-1,-1,1,0,-1,-1,-1,-1
1570180516325945,-3,-2,0,1,0,1,7,-1
1570180516345891,1,-1,-1,-3,-1,0,1,2
1570180516345891,-2,-1,1,0,0,-1,-1,-7
1570180516348225,4,-1,-2,0,0,0,0,2
1570180516348225,-2,1,0,1,0,-3,-5,0
1570180516360850,-2,-1,0,-1,-1,0,-3,-3
1570180516360850,0,0,-2,-1,0,1,0,0
1570180516362844,-1,-1,0,-1,-1,1,0,-3
1570180516362844,-1,1,-2,-1,1,1,0,5
1570180516383793,-2,-1,0,0,-1,-2,-1,-3
1570180516383793,-2,0,0,0,-1,-2,-2,-5
1570180516384785,1,-1,1,2,1,-3,-1,3
1570180516384785,1,-4,-3,-1,-1,1,3,5
1570180516398342,-2,-1,0,-2,-1,-1,1,2
1570180516398342,-1,-1,-2,-1,-3,0,-1,-2
1570180516404589,3,1,-1,-2,-1,-2,2,11
1570180516404589,-3,-1,0,-1,0,0,-3,4
1570180516421281,1,-1,-1,-2,-2,1,-2,-8
1570180516421281,-2,-1,-1,-1,-2,-2,0,-1
1570180516423273,-4,-2,-2,-1,-1,0,-3,-10
1570180516423273,2,-1,-1,-2,-2,0,-2,6
1570180516443228,-3,1,0,2,1,-2,-2,-1
1570180516443228,4,1,0,-1,0,1,0,4
1570180516445266,-1,-1,1,1,0,-1,-1,-5
1570180516445266,-1,1,0,0,0,-2,-3,1
1570180516466230,1,-2,-2,-2,-1,-1,1,0
1570180516466230,-1,-1,-1,-1,-1,0,1,-2
1570180516468160,1,-2,-2,-3,0,1,1,5
1570180516468160,1,-1,3,2,-2,-3,-6,-13
1570180516481122,0,-1,-1,-3,-1,0,-1,2
1570180516481122,-1,-2,-2,1,0,-1,-2,0
1570180516483124,1,-1,-2,-1,-2,1,2,2
1570180516483124,-3,-3,-3,-1,-1,-3,-5,-14
1570180516504062,1,1,1,0,0,0,0,-1
1570180516504062,-2,-1,0,-1,-1,-1,0,-5
1570180516506063,2,0,-1,1,1,-2,-2,4
1570180516506063,-1,0,-1,-1,-1,1,1,-2
1570180516518024,-4,-1,-2,-2,-2,-1,1,-4
1570180516518024,0,-3,-3,-1,0,0,3,7
1570180516525101,-5,0,-1,0,0,-2,-4,-8
1570180516525101,2,-1,0,-1,-1,0,1,6
1570180516541486,1,-1,-1,0,0,-2,0,9
1570180516541486,1,-1,-1,-1,-1,1,-1,-6
1570180516542956,-4,-2,-1,0,-1,0,-1,-3
1570180516542956,-1,-1,1,-1,0,-1,2,3
1570180516564193,0,1,-1,0,-1,-2,0,-1
1570180516564193,-3,-1,0,0,0,-1,-1,-2
1570180516564898,1,-1,0,-2,-2,-1,-1,0
1570180516564898,1,1,-2,0,0,-1,-1,3
1570180516577862,2,0,-1,0,0,1,0,-2
1570180516577862,-3,-2,0,-2,-1,-4,-1,1
1570180516584845,0,0,1,-1,0,-1,1,-3
1570180516584845,-1,-1,0,-1,0,0,1,3
1570180516601800,1,-1,0,-1,-1,0,-1,-1
1570180516601800,-1,-1,0,0,-1,0,0,-2
1570180516602796,-3,-2,-2,-3,0,0,-3,-12
1570180516602796,0,1,2,1,-2,-1,1,5
1570180516623739,2,0,-1,0,0,1,1,3
1570180516623739,-1,-1,-1,0,1,0,-3,-2
1570180516625734,2,-2,-1,1,-1,-2,2,3
1570180516625734,-5,-2,-2,-1,0,1,0,-3
1570180516637701,0,1,0,-1,0,-2,1,-6
1570180516637701,3,-1,-1,1,-1,-2,0,21
1570180516644712,-5,-1,1,0,0,-1,-4,-16
1570180516644712,-3,-1,0,-1,-1,-1,-2,-2
1570180516660739,-1,-2,-2,-2,1,0,0,-2
1570180516660739,4,0,0,-1,-1,1,5,15
1570180516663154,0,0,0,-1,0,-1,1,3
1570180516663154,1,1,-1,0,-1,-2,1,2
1570180516683608,-2,0,0,0,-2,-2,-3,-9
1570180516683608,1,0,-1,0,0,-1,-1,-5
1570180516685572,-1,-1,-1,0,1,-1,-4,-6
1570180516685572,2,-1,0,-1,0,2,2,7
1570180516697541,-2,-2,-1,-2,0,1,0,0
1570180516697541,0,-1,-1,-3,-1,-2,-3,-3
1570180516706517,-1,0,-2,-2,-2,-1,3,9
1570180516706517,0,0,-1,0,-1,-1,-3,-6
1570180516721477,0,-1,-1,1,-1,-1,0,3
1570180516721477,-2,-1,-2,-1,0,-1,-2,-10
1570180516723134,-3,-3,-4,-3,-1,3,4,2
1570180516723134,-1,0,1,1,-2,-2,-1,0
1570180516743419,-1,-2,-1,0,-1,-1,-2,-1
1570180516743419,3,-1,1,-2,-1,0,0,3
1570180516745412,0,-1,0,-1,-1,-1,0,3
1570180516745412,-1,-1,-2,0,0,1,0,2
1570180516757386,-1,0,0,-2,0,-1,0,1
1570180516757386,-2,-2,-2,-1,-1,-1,-3,-26
1570180516766362,0,2,2,1,-1,-1,-3,3
1570180516766362,0,-1,-3,-2,-1,-1,1,1
1570180516781318,-1,1,2,0,0,-2,-4,-3
1570180516781318,-3,-1,-2,0,-2,0,-2,-2
1570180516783312,0,-1,1,0,0,-1,0,-3
1570180516783312,1,0,-2,-2,-1,0,-1,0
1570180516803347,1,-1,-1,-2,-2,-1,0,5
1570180516803347,-1,-1,-1,-2,-2,0,-1,2
1570180516805253,1,-1,-1,1,-1,-1,-1,2
1570180516805253,-3,0,2,1,2,0,1,-5
1570180516817222,-1,-3,-4,0,0,2,1,4
1570180516817222,-1,1,5,2,0,-3,-6,-10
1570180516826196,0,0,-3,-2,1,1,0,0
1570180516826196,0,-1,-3,-2,1,0,-2,2
1570180516841156,-2,-2,-2,0,-2,0,2,-1
1570180516841156,-1,-1,-1,-2,0,-1,2,5
1570180516843151,1,1,1,1,0,-3,-4,1
1570180516843151,-1,-1,-1,-2,-2,-1,-2,-8
1570180516864096,1,0,0,1,1,-1,0,-1
1570180516864096,0,-1,-2,-1,0,-1,1,9
1570180516865097,-1,-1,0,-2,0,-1,2,1
1570180516865097,-1,-1,0,0,-2,-1,0,0
1570180516877158,-4,-1,0,1,0,-2,-5,-4
1570180516877158,1,1,0,-1,-1,1,1,1
1570180516886669,-3,-2,-1,0,0,-1,-3,-2
1570180516886669,-4,-1,-2,-1,-2,-1,0,-5
1570180516900997,-1,2,2,0,-2,-2,-2,-5
1570180516900997,-3,0,-1,-2,0,-1,0,1
1570180516902992,1,-1,-2,-1,-1,1,0,2
1570180516902992,-2,-1,0,-1,-2,0,2,-2
1570180516923936,2,0,-1,0,2,0,0,6
1570180516923936,-2,-1,-1,0,0,-1,0,-3
1570180516925018,-2,0,-1,0,-2,-1,-1,-4
1570180516925018,-1,-1,-1,-1,0,0,0,1
1570180516937006,-1,-2,-2,-1,-1,3,5,6
1570180516937006,0,0,0,-1,0,1,0,3
1570180516945876,-1,-1,-3,-1,-2,0,0,5
1570180516945876,2,0,-1,1,0,-2,-2,1
1570180516960837,0,-2,-2,-2,-1,-1,0,-4
1570180516960837,0,0,-1,-1,-1,1,3,-1
1570180516962831,-2,-1,0,-2,-1,1,1,0
1570180516962831,-3,-2,0,1,1,-3,1,-1
1570180516983831,-1,0,-1,-2,-1,0,-2,0
1570180516983831,0,1,-2,1,-1,-1,0,-5
1570180516984773,0,-1,-1,-1,0,-1,1,-4
1570180516984773,1,0,1,0,0,0,-3,5
1570180516997744,1,1,1,0,0,-2,0,-3
1570180516997744,-1,-4,-1,-1,-2,-1,-3,0
1570180517006715,-1,1,-2,-1,0,0,-1,-2
1570180517006715,-1,-3,-2,-3,0,0,-1,-4
1570180517021675,0,-1,-1,0,-2,-1,0,8
1570180517021675,0,1,0,0,1,0,5,15
1570180517023669,1,0,1,2,0,-1,-1,6
1570180517023669,0,-1,-3,-2,-3,0,-1,2
1570180517043617,-3,0,-1,-1,0,0,0,-4
1570180517043617,-1,-1,-1,0,0,-1,-3,-6
1570180517045610,-1,-3,-1,-1,0,0,-2,-1
1570180517045610,0,1,-1,-1,-1,0,0,6
1570180517057645,-2,-2,0,-3,-1,-3,-1,-6
1570180517057645,-1,-1,0,1,-2,0,-1,-4
1570180517066727,-3,0,-1,-2,0,0,2,-4
1570180517066727,2,0,1,1,0,-1,0,-1
1570180517081514,-2,-1,0,1,0,1,-2,-3
1570180517081514,-1,1,-3,1,-2,0,-1,3
1570180517082516,-1,1,-1,-1,0,0,-2,-9
1570180517082516,-2,-3,-1,-1,0,0,2,-1
1570180517103456,-1,0,0,1,0,-1,-3,-2
1570180517103456,0,-2,-1,0,-2,0,-1,0
1570180517105449,-1,0,-1,-1,0,0,-3,-3
1570180517105449,0,0,-1,-2,-2,-2,1,6
1570180517126394,1,0,1,-2,-1,0,1,0
1570180517126394,1,-1,-1,0,0,-1,2,12
1570180517127391,-1,-1,-1,-2,-1,-3,-2,-4
1570180517127391,-1,0,2,0,0,1,-2,-3
1570180517141354,-1,-1,-2,-2,-2,-1,1,6
1570180517141354,-2,-2,-1,-2,-1,1,1,-8
1570180517142351,-1,0,-1,-1,-2,-2,-3,3
1570180517142351,0,-2,1,-2,-1,-1,-4,-1
1570180517163566,-1,-1,0,-1,-2,0,-2,0
1570180517163566,-1,-1,0,0,-1,0,-1,-6
1570180517165290,-1,-1,0,1,0,0,1,0
1570180517165290,-1,-1,-2,0,-1,-1,-1,-5
1570180517186234,-1,1,1,1,0,-1,-3,-3
1570180517186234,-2,-3,-4,-2,0,-2,2,-3
1570180517187240,1,0,2,1,-1,-1,-1,1
1570180517187240,-1,-1,-2,0,0,0,0,-6
1570180517201245,0,1,0,-1,-1,0,-1,-1
1570180517201245,-4,-2,-1,0,-2,-2,-3,-8
1570180517203188,2,1,-2,0,0,1,5,16
1570180517203188,-2,-2,-2,0,0,-1,2,-3
1570180517223134,1,0,0,0,1,-3,-1,-3
1570180517223134,-1,0,1,0,-1,-1,-2,-1
1570180517225134,-1,-2,-2,-2,-1,-1,-2,-5
1570180517225134,1,0,-1,0,-1,0,1,8
1570180517246608,0,-2,-3,-2,0,-2,1,1
1570180517246608,-2,-1,0,0,0,0,-2,-3
1570180517248079,0,-1,-1,1,0,-3,-3,-2
1570180517248079,2,0,0,-1,0,-1,1,0
1570180517261036,-2,-3,-2,-1,0,0,-3,-6
1570180517261036,3,-1,-1,-1,-1,-1,0,2
1570180517263028,-2,-1,-1,-1,-1,1,0,-6
1570180517263028,0,1,0,-1,0,-2,-5,1
1570180517283973,-4,0,-2,1,-1,-3,-2,-5
1570180517283973,0,0,-2,-1,1,-1,2,5
1570180517284970,0,-2,0,0,-1,1,0,-6
1570180517284970,1,-1,0,-2,0,1,0,0
1570180517305913,2,0,2,1,-1,-1,-3,4
1570180517305913,-1,1,-2,-1,-3,-2,-6,-14
1570180517307908,-3,0,-1,-1,0,-2,-2,-3
1570180517307908,-1,-1,0,0,-2,-4,-3,-1
1570180517321148,1,-1,-2,-1,-1,1,2,6
1570180517321148,-2,0,1,0,0,-2,-1,-5
1570180517326859,0,-2,-1,1,-2,-1,-1,3
1570180517326859,-2,0,-2,0,-1,-1,-2,-5
1570180517343913,-1,-2,-2,-2,-2,-1,5,8
1570180517343913,1,0,2,1,2,-2,-6,-10
1570180517344811,-1,-1,-1,-1,-2,0,2,0
1570180517344811,-1,-1,-2,-1,1,-1,2,1
1570180517366753,1,-1,-2,-1,-1,-1,0,1
1570180517366753,-3,-2,0,-1,-1,1,1,3
1570180517367749,-1,1,0,0,-2,0,0,-4
1570180517367749,-2,-1,-1,0,-3,-1,0,-6
1570180517380720,-1,-1,-1,-1,0,0,-2,-3
1570180517380720,0,-2,-2,-2,-1,0,1,4
1570180517387852,-1,-1,0,-1,0,-2,-3,-7
1570180517387852,3,-1,-1,-2,-1,1,4,17
1570180517404652,0,-2,-1,0,0,0,0,0
1570180517404652,1,0,0,-2,-1,-2,-1,3
1570180517405649,-3,-2,-1,-2,-2,-1,1,2
1570180517405649,1,0,1,-2,0,-1,-1,-5
1570180517426592,-3,0,0,1,0,1,2,-8
1570180517426592,0,-1,-2,1,1,-1,0,8
1570180517427622,-2,-2,-1,0,0,2,3,6
1570180517427622,-1,0,-2,-1,-1,-1,-3,-5
1570180517440555,0,2,2,1,-2,0,0,1
1570180517440555,2,-1,-2,-2,-1,0,0,6
1570180517447540,0,-1,-1,0,0,1,0,-1
1570180517447540,0,-1,-1,1,1,1,0,-3
1570180517463585,0,-1,-2,-1,-1,0,-1,-3
1570180517463585,-6,-1,-1,-2,1,-1,-1,-12
1570180517465488,8,2,1,-1,-1,-2,-1,13
1570180517465488,-1,-1,-1,0,0,1,-3,-8
1570180517486436,0,-1,-1,1,-2,0,2,0
1570180517486436,0,0,0,1,0,0,0,1
1570180517487431,-2,-3,-2,0,0,-1,0,-9
1570180517487431,-1,-1,-2,-1,-2,-1,0,3
1570180517500756,1,0,0,-1,0,-2,-2,-2
1570180517500756,-1,-2,-2,0,-2,0,1,-3
1570180517507419,1,1,-2,-2,-2,1,1,0
1570180517507419,-2,-2,2,0,0,1,1,-1
1570180517523460,0,0,0,1,0,0,-6,0
1570180517523460,3,-1,-1,-1,-2,1,0,8
1570180517525329,-2,-1,0,1,-3,-2,-3,-4
1570180517525329,-1,-1,-3,-1,-2,0,0,2
1570180517546397,-3,0,-2,0,-2,-2,-1,1
1570180517546397,1,0,1,-1,0,-1,2,8
1570180517547269,-2,0,-1,0,0,1,-1,5
1570180517547269,-2,-1,-1,-3,0,1,-1,-9
1570180517560236,1,-1,1,0,-2,-3,-3,2
1570180517560236,-2,0,-1,0,-2,-1,2,-2
1570180517575200,-2,-3,-2,-3,-2,0,1,-1
1570180517575200,-2,0,-1,1,0,-2,0,0
1570180517583492,2,-1,-2,-2,-2,0,1,4
1570180517583492,0,1,-1,-2,0,-1,-1,-5
1570180517585171,1,1,1,0,0,-1,-2,-2
1570180517585171,-1,1,0,0,-1,-2,-2,-2
1570180517606207,-4,-2,-1,0,-1,0,1,-6
1570180517606207,-1,-1,-3,1,-1,-2,0,-2
1570180517608111,0,-2,-1,-2,-1,2,-1,1
1570180517608111,-3,-1,1,1,-2,-2,-3,-3
1570180517620080,-1,0,-1,-1,-1,0,5,4
1570180517620080,1,-1,-1,0,-2,0,-1,-2
1570180517629061,-2,-1,-1,1,-1,-1,-1,-6
1570180517629061,1,1,0,-1,-2,1,3,11
1570180517644030,-1,-1,-2,-2,1,-1,-1,-9
1570180517644030,-1,-1,-2,-2,-1,0,0,0
1570180517645014,-1,0,0,0,-2,0,-2,-3
1570180517645014,-1,-2,-1,-1,-1,0,-3,-2
1570180517667197,-1,-1,0,-1,1,1,0,-1
1570180517667197,1,-1,-1,1,0,2,-1,2
1570180517667949,-2,-1,0,1,0,-2,-2,-1
1570180517667949,1,-1,-2,0,1,-1,0,-2
1570180517679915,1,-2,-1,-3,0,-1,0,4
1570180517679915,-4,0,0,0,-1,-3,-4,-4
1570180517688892,1,-2,-3,-1,-1,0,1,-1
1570180517688892,-1,-1,-1,1,1,0,-3,-10
1570180517703989,0,1,1,1,-2,-3,-5,6
1570180517703989,1,-1,-2,-1,-1,-2,-1,6
1570180517704850,-3,-1,-1,-1,0,1,2,-6
1570180517704850,-1,1,-1,0,-1,-1,-1,-2
1570180517725891,0,1,0,0,-1,0,-1,-4
1570180517725891,-3,-1,-3,0,0,0,2,-4
1570180517727833,-1,0,-2,-2,0,-1,0,6
1570180517727833,-2,-2,-3,-2,0,3,2,-1
1570180517739755,-2,0,-1,-2,0,1,0,-1
1570180517739755,1,1,1,0,-1,0,-1,-1
1570180517748736,0,0,-2,0,0,0,-1,-3
1570180517748736,2,1,0,0,-1,-2,1,6
1570180517763695,-1,-1,0,-1,2,0,1,5
1570180517763695,-3,-1,1,0,0,-2,-3,-5
1570180517765687,3,1,0,-1,-1,-1,-1,5
1570180517765687,-1,-1,-1,0,-2,0,-2,0
1570180517786630,0,-2,-1,1,-1,-1,0,-1
1570180517786630,0,1,1,0,-1,0,-2,-3
1570180517787631,-1,0,0,0,0,-3,-4,-2
1570180517787631,-1,-1,-1,-1,-1,-1,0,3
1570180517799603,-2,-2,-1,-1,0,1,0,-5
1570180517799603,1,-3,-3,-2,0,2,0,9
1570180517808577,-1,-1,-1,2,-1,-1,0,-2
1570180517808577,0,0,2,-1,-1,-1,-2,-4
1570180517823696,-1,1,-3,0,-2,0,2,5
1570180517823696,-2,-1,-2,-4,0,-1,-4,-9
1570180517825532,-1,1,2,-1,0,0,-1,-3
1570180517825532,4,-2,-1,-1,0,-2,0,8
1570180517845597,-2,-1,-1,-1,-1,-2,0,-3
1570180517845597,0,1,-1,-1,-1,-1,0,-2
1570180517854449,-2,-1,-1,-1,0,0,-2,3
1570180517854449,-2,0,-1,0,-1,-1,-1,-6
1570180517859442,-2,-1,-1,-2,-1,0,-2,-9
1570180517859442,-4,-3,-2,-2,-1,-2,-2,-16
1570180517868416,-1,-2,-1,-2,-1,-3,0,-5
1570180517868416,0,0,-1,0,1,-1,-1,0
1570180517883374,-1,0,-1,1,0,-1,0,-2
1570180517883374,-1,0,1,-1,-1,0,0,1
1570180517885373,-1,0,-1,0,-1,2,1,2
1570180517885373,-1,-2,0,0,-2,-1,-2,-2
1570180517906310,0,-1,-2,-2,0,-1,-1,1
1570180517906310,1,-1,-1,0,-1,-1,-3,1
1570180517907314,-2,0,1,0,-2,-1,0,-1
1570180517907314,1,0,-2,-1,1,1,4,4
1570180517920272,-3,-1,0,-1,-1,0,-1,-4
1570180517920272,1,-2,1,0,-1,0,1,3
1570180517929256,-1,-2,-3,-1,1,1,3,0
1570180517929256,-3,0,0,-1,0,-1,-2,-5
1570180517943213,4,1,1,1,-1,0,2,13
1570180517943213,0,1,-1,0,-1,-1,1,1
1570180517945207,2,0,0,-1,-1,0,-1,1
1570180517945207,-1,-2,0,-2,-2,0,-2,-3
1570180517966252,-1,-2,-1,-1,-1,-1,-2,-5
1570180517966252,1,1,0,-1,-1,-2,-3,4
1570180517968146,2,0,0,0,0,-1,-1,4
1570180517968146,-4,-1,1,1,0,-1,-2,-3
1570180517980118,-1,0,-2,-1,-1,-1,-2,-4
1570180517980118,-3,-1,-2,-1,0,0,1,-2
1570180517989089,-2,0,-1,1,-1,-3,-3,-1
1570180517989089,0,0,1,-1,0,-1,-1,-2
1570180518004048,2,1,1,0,2,-1,1,12
1570180518004048,-2,-2,-1,0,1,0,0,0
1570180518005045,0,0,-2,-2,-1,-1,-1,-5
1570180518005045,-2,-2,-4,-1,-2,1,0,0
1570180518025993,-2,-1,1,1,-2,-2,0,-10
1570180518025993,-1,0,2,1,-1,-1,0,-4
1570180518027984,0,-1,-1,0,-1,-2,0,2
1570180518027984,0,0,0,1,1,-1,0,4
1570180518039957,-1,0,0,-1,-1,-2,-2,-5
1570180518039957,-3,-1,0,-1,-1,0,0,-1
1570180518048928,2,-1,0,-2,-2,1,1,0
1570180518048928,-2,-3,-3,-1,-1,2,8,-6
1570180518063895,1,0,2,1,-1,-4,-16,13
1570180518063895,6,2,3,1,1,-1,-15,17
1570180518064992,-5,-3,-2,-1,0,-3,-2,2
1570180518064992,-1,-4,-2,-3,-1,1,2,-5
1570180518086327,-2,-1,-1,-3,-1,-1,2,-8
1570180518086327,-2,-1,-2,-1,-2,0,4,-4
1570180518087824,-2,-1,0,-1,-1,1,-6,1
1570180518087824,-1,1,-1,-1,0,-1,-4,4
1570180518108773,-2,-2,-2,-2,0,2,7,-9
1570180518108773,-1,-3,0,-3,1,-1,2,-2
1570180518110763,0,-1,0,0,-2,1,2,-4
1570180518110763,0,0,-1,1,-1,-1,0,0
1570180518130710,0,-1,-1,1,-1,0,1,-3
1570180518130710,-1,0,-2,-1,-2,0,1,-2
1570180518133131,2,-1,-2,-2,-1,1,2,15
1570180518133131,-3,-1,1,-2,0,-1,3,-11
1570180518146672,5,-2,-2,0,-1,0,-2,9
1570180518146672,0,-3,-2,-1,-1,0,3,0
1570180518147664,-1,-1,0,2,-2,-1,-3,-3
1570180518147664,-2,-2,-1,-1,-1,-1,-1,-4
1570180518168752,-3,-2,-1,0,0,0,3,-4
1570180518168752,-1,0,0,-1,-1,0,0,-6
1570180518170604,0,1,0,-2,1,-1,-1,0
1570180518170604,0,1,2,2,-1,-2,-3,2
1570180518183655,-1,0,-2,0,-2,-2,-1,-2
1570180518183655,0,-2,-2,0,0,0,-1,0
1570180518185564,-1,0,0,1,-1,0,-3,-9
1570180518185564,1,0,0,-1,-1,0,-1,5
1570180518206512,-2,0,-1,-2,1,0,0,-3
1570180518206512,-1,-2,1,-1,-1,-1,-1,-4
1570180518207506,5,-2,-1,-3,-2,-1,1,-2
1570180518207506,-1,-1,-1,0,-1,-1,0,-2
1570180518228448,-2,-1,-1,-1,-1,-1,-1,-2
1570180518228448,-1,1,-1,0,0,1,3,16
1570180518230518,-4,-2,-2,0,0,-1,0,-3
1570180518230518,-1,0,1,1,1,-3,-1,3
1570180518243410,3,1,-1,-1,0,0,-2,3
1570180518243410,1,1,-1,0,-1,-1,1,-4
1570180518249395,-3,-2,-1,-2,-1,0,-2,-5
1570180518249395,0,-1,-1,-1,-1,1,1,5
1570180518266416,-4,-3,-1,-1,-1,-1,0,-6
1570180518266416,1,-1,-3,0,-3,0,0,0
1570180518267344,-2,0,1,1,1,-3,-1,-1
1570180518267344,-1,-1,-1,-2,-2,-1,-3,-13
1570180518288293,-3,-2,0,0,-2,-1,-2,-5
1570180518288293,2,-1,-1,-1,0,0,0,3
1570180518290285,-2,0,0,0,-1,1,1,1
1570180518290285,1,1,-1,-2,-1,-1,0,3
1570180518303253,0,1,0,-1,-1,-3,-2,1
1570180518303253,-2,0,-1,-1,-1,-1,0,-6
1570180518310232,-2,-3,-2,-2,-2,2,0,-2
1570180518310232,-4,-2,0,0,-2,-1,-3,0
1570180518326190,1,-2,0,0,0,2,3,-1
1570180518326190,0,-1,1,0,0,0,-1,-2
1570180518328183,1,-1,1,-2,0,-2,-3,-1
1570180518328183,1,0,-1,0,-1,-2,-1,0
1570180518349130,1,-1,-1,0,-3,0,3,12
1570180518349130,2,0,1,1,0,-1,-6,-3
1570180518350123,1,1,-1,0,0,-1,-1,-3
1570180518350123,1,-2,-2,0,-1,2,2,1
1570180518363218,2,0,0,0,-2,-2,-7,-2
1570180518363218,0,1,0,0,0,-1,1,0
1570180518370167,-1,0,1,-1,-2,1,0,-3
1570180518370167,-5,-2,-3,-3,0,-2,6,-28
1570180518386031,1,-1,-2,-1,0,-1,-1,4
1570180518386031,1,0,0,-1,0,-1,-1,0
1570180518388024,-3,-2,-1,0,-1,-2,-3,0
1570180518388024,-2,-2,0,1,-1,0,2,-2
1570180518408969,-2,-1,0,-2,-1,1,1,-7
1570180518408969,-2,-1,0,-1,-1,-1,1,-2
1570180518409963,-1,0,1,0,0,-2,-2,-2
1570180518409963,4,1,0,1,1,0,-4,14
1570180518422929,-2,-1,0,0,0,-1,-2,-17
1570180518422929,5,0,-2,-1,-2,-1,2,21
1570180518429910,1,-1,-1,-1,-1,1,4,4
1570180518429910,1,0,1,0,1,-1,-5,8
1570180518445867,0,0,0,-2,-2,-2,-2,0
1570180518445867,-5,-3,-2,-1,-1,2,2,-14
1570180518447863,0,-1,-2,-1,-2,-1,1,-15
1570180518447863,8,1,-2,-1,-1,0,-11,26
1570180518468807,3,2,2,1,0,0,-8,16
1570180518468807,-4,-3,-1,0,-1,-1,-1,-9
1570180518470890,-2,0,-1,-2,-1,-2,-2,-2
1570180518470890,0,-1,1,-1,0,-1,1,-2
1570180518483028,-3,-2,-2,0,-1,0,4,-7
1570180518483028,0,1,0,1,-1,-2,-3,4
1570180518489755,0,0,0,1,-1,0,-3,2
1570180518489755,-3,0,-2,-1,-1,-2,3,-3
1570180518505709,-2,-2,0,0,0,1,2,3
1570180518505709,-2,-2,0,-2,0,0,2,-5
1570180518507701,-1,0,-2,1,1,1,-2,1
1570180518507701,1,0,-1,-1,0,1,1,-4
1570180518528646,-5,0,-1,0,0,-1,0,-12
1570180518528646,3,1,-2,-1,-1,0,0,5
1570180518530640,1,-1,0,0,0,0,1,6
1570180518530640,3,1,1,2,-1,-1,3,14
1570180518542613,-3,-1,-2,-2,-2,-1,-1,-4
1570180518542613,-6,-3,-3,-2,-1,-2,-4,-11
1570180518549685,2,2,0,-2,0,1,2,9
1570180518549685,-3,0,-2,-2,-2,-2,-2,-9
1570180518566653,0,0,-1,-1,-1,-1,1,3
1570180518566653,-1,0,-1,0,-2,1,0,1
1570180518567541,-2,1,0,0,1,-2,-1,-5
1570180518567541,-1,-4,-1,-2,-2,1,0,4
1570180518588490,1,-2,-1,-1,-1,0,2,0
1570180518588490,-1,0,-1,0,-1,-2,-2,-2
1570180518590482,-3,-1,-1,-1,-2,1,1,-1
1570180518590482,-1,0,-1,1,-1,-1,2,-1
1570180518602448,-1,-1,-2,-3,0,2,2,2
1570180518602448,1,-1,-2,-1,0,1,0,4
1570180518611492,-2,0,0,-1,-2,1,-3,-13
1570180518611492,-3,-2,-1,-2,0,0,-1,-15
1570180518626493,2,0,-1,1,0,-2,-3,5
1570180518626493,0,2,1,-1,1,-2,0,0
1570180518628560,0,-2,-2,-1,-2,-3,-1,-1
1570180518628560,-3,0,0,-2,0,0,0,-3
1570180518648335,1,-1,-2,-3,1,1,-1,-1
1570180518648335,-4,1,0,0,0,-2,0,-8
1570180518650368,1,-1,1,0,1,0,1,8
1570180518650368,-1,-1,-1,0,-1,-3,-2,1
1570180518662289,-2,-1,0,-1,-1,-2,1,-2
1570180518662289,-1,1,-1,-1,-1,0,-2,-1
1570180518671265,-1,-1,-2,-3,0,-1,1,1
1570180518671265,1,0,-2,-1,-1,0,1,6
1570180518686224,1,0,0,-1,-2,-1,2,-6
1570180518686224,2,-1,2,1,-1,-2,-3,-2
1570180518688563,-4,-2,-1,-2,-1,-1,1,-5
1570180518688563,3,-1,0,-2,1,1,1,6
1570180518709162,-2,0,-1,2,0,-1,-1,-7
1570180518709162,-1,-2,-3,-2,-1,-1,-1,0
1570180518710687,3,0,0,0,1,1,3,14
1570180518710687,0,-2,-1,0,-1,1,-1,-3
1570180518722127,4,2,3,2,-1,-2,-15,18
1570180518722127,1,-1,-2,0,-1,0,-4,8
1570180518731169,-3,-1,-2,0,-1,-1,-1,-3
1570180518731169,-1,0,0,0,0,-2,-2,0
1570180518746156,-2,0,0,-1,1,-1,2,3
1570180518746156,-1,-2,-1,-2,-2,1,1,-6
1570180518748061,0,0,-1,-1,0,-2,-3,2
1570180518748061,3,0,-1,0,-2,-1,3,7
1570180518769009,-4,1,2,-1,-1,-1,1,-13
1570180518769009,2,-2,1,-1,0,-1,1,6
1570180518770002,-1,-1,1,0,-1,-3,-1,-5
1570180518770002,-3,-1,0,1,0,-1,-1,-8
1570180518782161,-6,-5,-4,-4,-2,-1,4,-15
1570180518782161,-1,0,-2,-3,-1,-1,-1,-1
1570180518790944,1,1,1,1,1,-2,-3,-5
1570180518790944,4,2,-1,-1,-1,-1,-1,6
1570180518805948,-1,-3,-3,0,0,1,2,1
1570180518805948,-2,0,-1,1,0,1,1,-5
1570180518808151,0,-1,-1,0,0,1,2,-3
1570180518808151,-1,-1,-1,-1,-1,1,-1,-10
1570180518828844,-3,-1,-1,0,0,-1,-2,-10
1570180518828844,-2,-2,0,1,-2,-2,-1,-2
1570180518830674,2,0,-1,0,-1,0,0,11
1570180518830674,-2,-1,-1,-2,1,-1,-1,1
1570180518842808,1,0,-1,-1,0,-1,-1,3
1570180518842808,-1,-2,1,-1,0,0,2,-1
1570180518851866,-3,-1,-4,-4,-2,-2,-4,-10
1570180518851866,-3,1,0,1,-1,-1,-3,-4
1570180518866383,-1,-1,0,0,-1,-2,0,3
1570180518866383,-1,-1,-1,0,0,0,0,-2
1570180518867740,2,-2,-2,-2,-1,0,2,3
1570180518867740,-3,-1,0,0,0,-2,-4,-6
1570180518888737,1,0,-1,-1,0,0,0,4
1570180518888737,-2,-1,1,-1,-1,-1,-1,-1
1570180518890678,7,-1,-1,1,-1,0,-2,7
1570180518890678,-2,-3,-2,0,-1,-1,0,0
1570180518902648,1,1,2,1,0,0,0,0
1570180518902648,0,0,-2,-1,0,-1,-1,4
1570180518911620,-4,-1,-1,-2,0,0,-2,-6
1570180518911620,0,-1,1,0,-1,-1,1,-1
1570180518926626,0,0,-1,0,1,-1,0,1
1570180518926626,0,-3,-2,-2,-1,1,2,1
1570180518928237,2,0,1,1,1,-1,-1,18
1570180518928237,4,1,1,1,-1,-3,-15,14
1570180518948529,-1,-1,-2,-1,0,0,1,3
1570180518948529,-3,1,1,-1,1,-2,-3,-4
1570180518950575,1,1,-2,-1,-2,-1,3,4
1570180518950575,-3,-1,0,-1,-2,1,3,-8
1570180518962500,3,-1,0,0,0,0,-1,2
1570180518962500,3,0,-1,1,0,1,2,14
1570180518971463,-3,-2,-1,0,-1,1,2,-8
1570180518971463,-1,0,-1,-1,0,-2,0,-5
1570180518986426,-2,-2,-2,-2,-2,0,-2,-6
1570180518986426,-1,0,-1,-1,-1,0,0,-7
1570180518987420,-2,-1,1,-2,-1,0,1,-1
1570180518987420,-3,-2,-1,-2,0,2,-1,-10
1570180519008370,1,0,-1,0,0,-2,-3,1
1570180519008370,2,-1,0,0,0,2,4,13
1570180519010359,0,2,2,1,0,-3,-4,8
1570180519010359,-1,0,0,-1,0,-1,-2,-9
1570180519031421,-1,-1,0,0,1,3,1,2
1570180519031421,-1,0,-1,0,-1,0,-2,-7
1570180519032333,-4,-1,-1,0,-1,-1,1,-8
1570180519032333,6,1,1,0,1,-3,-13,25
1570180519046262,-1,1,0,-1,0,-1,-6,16
1570180519046262,-1,-3,-4,-3,-2,-1,-1,-4
1570180519048256,-2,0,-2,-1,-1,-1,-3,-4
1570180519048256,-2,0,0,1,-2,-1,2,-7
1570180519068446,1,0,-2,-3,-3,-3,-2,3
1570180519068446,-2,-1,1,0,1,0,-4,-1
1570180519070198,-4,-1,-1,-1,-1,-1,0,-7
1570180519070198,-2,-3,-3,-1,1,1,6,-2
1570180519091152,-2,-1,0,-1,-1,-1,-1,-12
1570180519091152,-2,-1,0,1,-1,1,1,-7
1570180519093136,-1,-2,-2,-1,-1,1,-1,-4
1570180519093136,-1,-1,0,-1,-1,0,3,1
1570180519105103,0,-1,-2,-1,-2,-2,0,-3
1570180519105103,-1,0,-1,0,-3,-3,-5,-5
1570180519112084,-1,1,0,1,1,-2,-1,-3
1570180519112084,1,1,-1,-1,-1,0,0,-2
1570180519129080,-2,-2,-2,2,-1,-1,2,2
1570180519129080,-4,0,1,-1,-1,0,-1,-7
1570180519130364,1,0,1,0,0,0,-2,3
1570180519130364,-4,-1,-2,-2,-3,0,2,-5
1570180519150985,0,0,0,-1,0,-2,1,-1
1570180519150985,0,0,-1,-1,0,-2,-1,-1
1570180519153157,-1,-3,-3,-2,-1,1,-2,-3
1570180519153157,1,1,1,0,2,2,3,17
1570180519166230,-1,-3,-2,0,-1,1,2,0
1570180519166230,1,2,1,1,-3,-1,-6,-7
1570180519168238,-1,-2,-1,-1,-2,-1,0,-2
1570180519168238,0,-1,-1,-1,-1,-1,0,-4
1570180519188565,-2,-1,-1,-2,-1,2,1,-2
1570180519188565,-1,-1,1,-1,-1,1,5,0
1570180519190567,8,1,1,1,0,-4,-20,20
1570180519190567,-1,-1,-4,-1,0,-1,-2,-6
1570180519211250,0,0,0,-1,0,0,0,-4
1570180519211250,2,0,-3,-2,-1,-1,0,4
1570180519213235,-3,1,0,-2,-2,0,2,-11
1570180519213235,-2,-1,1,0,-2,-1,-1,0
1570180519225947,1,0,0,1,0,-2,-3,0
1570180519225947,2,0,0,-2,0,-1,0,4
1570180519240354,-3,-2,-1,0,0,0,5,3
1570180519240354,-2,-1,-1,0,-1,0,-3,-8
1570180519248351,0,-1,0,-1,1,3,6,12
1570180519248351,0,-2,-1,-1,0,1,-1,2
1570180519250822,-2,1,-1,-1,-1,-1,3,-1
1570180519250822,-2,0,0,-1,-1,-1,0,-3
1570180519271246,-1,1,0,0,0,-2,-2,-4
1570180519271246,0,-1,-2,0,-1,0,-1,1
1570180519273242,2,0,1,-2,-1,1,-1,1
1570180519273242,-2,0,0,-1,-2,0,0,-7
1570180519285134,-2,0,-1,-1,-2,-2,-2,-4
1570180519285134,-2,-1,-1,1,1,0,0,-3
1570180519292300,-2,-1,-2,-1,0,1,0,-10
1570180519292300,-2,-2,-1,-1,-2,1,11,-11
1570180519309211,-3,0,2,-1,-1,-1,-9,-1
1570180519309211,-1,-1,-1,0,-2,-2,0,4
1570180519310233,-2,-2,0,-3,0,-1,-1,-12
1570180519310233,1,-1,-1,-1,-1,0,1,5
1570180519331271,0,-1,1,1,-1,-1,1,-3
1570180519331271,-1,-1,-2,0,-2,1,-1,-2
1570180519333185,-2,0,1,0,1,-1,1,-2
1570180519333185,1,1,-1,0,-1,-4,-6,4
1570180519354297,-4,-3,-2,0,-1,0,-2,-21
1570180519354297,0,1,0,-1,0,-1,-1,0
1570180519355303,0,-1,-1,0,1,-1,1,6
1570180519355303,-1,2,2,1,0,-1,-4,-5
1570180519367436,1,-1,-1,-1,-2,1,2,8
1570180519367436,0,-1,-2,-1,1,-2,0,3
1570180519376197,-3,-1,-2,-1,-2,0,-2,-4
1570180519376197,0,-2,1,-1,2,-1,-2,-1
1570180519391170,1,0,-2,-1,-1,-2,-1,2
1570180519391170,0,-2,1,0,0,-1,-1,0
1570180519393167,-6,-3,-4,-1,-1,1,16,-16
1570180519393167,2,-1,2,-2,0,-1,-2,7
1570180519405063,3,0,-1,-1,1,1,-5,1
1570180519405063,-3,0,-2,-1,-1,0,-1,0
1570180519412169,-3,0,1,2,-3,-2,-3,-5
1570180519412169,0,-1,-1,-1,-1,0,1,2
1570180519429231,-2,0,0,0,1,0,1,-1
1570180519429231,-2,-1,-1,-1,-2,1,-1,-3
1570180519430187,2,1,-1,1,1,-2,-3,17
1570180519430187,-2,-1,-2,-2,-1,-1,0,-2
1570180519451126,4,-2,-2,0,-2,0,2,14
1570180519451126,-1,0,2,2,0,0,-1,-2
1570180519453126,-1,-2,1,-3,-2,1,-4,-1
1570180519453126,-4,-2,-1,1,-1,0,-1,-2
1570180519466086,-1,-1,-1,-1,-1,0,4,-3
1570180519466086,1,-1,0,0,-1,0,0,-1
1570180519472150,-3,-1,1,0,0,-1,-4,-5
1570180519472150,1,-2,-3,1,1,0,0,0
1570180519489152,2,0,1,1,0,0,1,5
1570180519489152,-5,-2,-1,-2,1,-3,-5,-20
1570180519490261,0,1,-2,-2,1,0,-4,-3
1570180519490261,3,-1,-1,-1,-1,1,-1,11
1570180519518945,3,-1,-2,-2,-1,-2,5,0
1570180519518945,1,-1,-2,0,1,1,0,7
1570180519520188,-7,1,0,0,0,-1,-3,-15
1570180519520188,3,-1,0,-1,-3,0,0,3
1570180519525081,2,0,0,-2,-2,-2,4,9
1570180519525081,-8,1,1,0,0,-1,-9,-18
1570180519533905,6,-2,-3,-1,1,1,-1,9
1570180519533905,-5,-1,6,7,0,-2,-7,-18
1570180519548964,5,3,-6,-6,-2,0,2,15
1570180519548964,-2,0,-2,-4,-1,-2,2,-11
1570180519550859,8,-2,-4,-5,-6,-1,3,11
1570180519550859,-2,-5,0,0,0,-3,-11,19
1570180519570910,36,12,-2,4,2,0,2,-2
1570180519570910,-38,-4,6,-1,-5,-1,-4,-2
1570180519572800,-4,0,2,3,11,4,6,3
1570180519572800,-11,-4,-4,-1,-2,0,2,-3
1570180519584767,8,2,-1,-5,-11,-2,-4,-8
1570180519584767,-14,-12,0,9,8,-1,1,14
1570180519593872,13,12,5,2,0,2,-1,2
1570180519593872,-16,-2,-1,-9,-1,1,2,-10
1570180519608706,13,3,6,10,9,4,6,-2
1570180519608706,18,15,2,-10,-9,1,14,5
1570180519610699,-10,-19,-6,2,-5,-4,4,0
1570180519610699,65,28,0,4,5,-4,-25,10
1570180519631643,-97,-47,3,-8,-17,-13,-18,-39
1570180519631643,56,16,-29,-11,1,0,-1,7
1570180519632828,0,-9,-6,-3,6,1,2,0
1570180519632828,11,8,18,12,11,11,22,14
1570180519645604,-59,-12,14,4,5,6,5,-9
1570180519645604,75,23,12,1,-5,-4,-9,-4
1570180519655581,-64,-48,-10,-9,-14,-10,-5,-11
1570180519655581,21,7,-26,0,-5,-3,3,-2
1570180519668543,-4,37,20,11,6,3,0,7
1570180519668543,-33,-24,4,-2,-2,1,4,-3
1570180519670540,24,26,-6,-3,-5,-3,-5,6
1570180519670540,6,-7,22,0,-6,-1,2,-3
1570180519691527,-19,-4,-40,-12,0,-1,-7,-25
1570180519691527,-8,-7,-9,-1,0,0,-3,-14
1570180519692565,21,-16,6,0,5,2,2,-12
1570180519692565,-10,-6,-6,0,0,-2,-1,-27
1570180519705444,13,-1,0,6,-1,-1,-1,-19
1570180519705444,68,16,-5,-6,2,3,3,9
1570180519713422,-19,-10,10,3,-4,-5,-6,-14
1570180519713422,38,22,9,6,5,1,3,0
1570180519728391,2,-15,-6,-10,-13,-6,-2,8
1570180519728391,28,46,5,11,18,6,4,21
1570180519730484,-6,5,4,4,0,0,-2,11
1570180519730484,-37,0,0,-6,-2,2,1,10
1570180519751336,58,9,2,-2,-4,-5,-7,7
1570180519751336,-90,-50,-8,-6,-8,-5,-3,-1
1570180519752319,23,10,-12,-9,1,3,1,14
1570180519752319,-47,-10,-16,-2,1,1,5,8
1570180519764324,23,-1,17,5,7,4,1,14
1570180519764324,46,15,14,4,-12,-7,-2,7
1570180519773283,-83,-36,-23,-10,0,-1,-7,-23
1570180519773283,13,2,7,0,1,-2,3,2
1570180519796202,29,1,-2,1,7,6,7,19
1570180519796202,8,3,5,3,-4,0,-1,-2
1570180519797198,47,19,0,-3,1,1,1,11
1570180519797198,-9,-12,-11,-10,-5,-5,-5,-8
1570180519811563,20,22,9,-3,-1,-2,-3,4
1570180519811563,-36,-27,-2,6,5,0,-1,-3
1570180519813157,36,12,-3,2,-10,-2,2,11
1570180519813157,20,17,18,2,0,-1,-2,-2
1570180519825208,5,30,-10,0,2,1,0,4
1570180519825208,4,-5,4,1,-6,-4,-2,4
1570180519834100,-48,-31,6,8,-1,0,1,-5
1570180519834100,47,3,-24,-14,3,6,4,6
1570180519849201,-59,-19,8,7,6,-7,-9,-15
1570180519849201,4,10,14,8,0,-2,-4,-10
1570180519855164,-13,12,-4,-5,-5,2,4,1
1570180519855164,7,4,2,-4,-9,0,1,0
1570180519871053,55,6,-1,2,-2,6,6,14
1570180519871053,-96,-78,-23,-7,11,-2,-7,-22
1570180519872996,92,19,6,2,-11,-1,3,17
1570180519872996,32,27,-4,-6,-7,-6,-3,3
1570180519884963,42,4,8,3,-1,1,1,4
1570180519884963,-91,-26,-2,-2,-4,4,2,-4
1570180519893941,83,32,-4,-3,7,-1,0,3
1570180519893941,-17,-10,-1,-5,0,-1,0,-4
1570180519907903,-5,-13,-1,5,-1,0,0,-3
1570180519907903,62,51,10,5,1,1,5,12
1570180519914885,-72,-26,0,-9,0,-5,0,-18
1570180519914885,-1,-9,-14,-9,-8,-2,-11,9
1570180519930906,-34,2,5,8,15,0,-4,-13
1570180519930906,29,21,7,0,-2,2,4,9
1570180519932835,-70,-28,-16,1,-12,0,-2,-15
1570180519932835,-17,-38,-12,-6,-7,-5,2,-18
1570180519944806,-4,0,-14,-12,-2,-5,-6,10
1570180519944806,38,20,1,0,-2,1,-1,3
1570180519953782,-32,-2,22,6,5,1,1,2
1570180519953782,-33,-12,1,0,-1,0,1,-8
1570180519967743,13,-15,-11,-7,-3,1,0,-6
1570180519967743,1,1,-15,-1,6,0,2,8
1570180519974940,49,33,29,1,0,-4,-8,-3
1570180519974940,2,-11,-4,10,5,-1,2,2
1570180519991730,-7,-8,-5,-6,-10,-6,-7,-28
1570180519991730,8,-7,-5,-8,-1,2,4,0
1570180519992677,-33,-9,-6,5,5,2,0,-9
1570180519992677,40,31,11,2,2,-2,-3,-3
1570180520013624,-13,-15,-6,-2,-1,7,8,24
1570180520013624,-1,15,-8,-3,4,0,0,9
1570180520015676,36,10,16,8,5,-2,-7,-3
1570180520015676,-3,6,13,6,5,2,3,16
1570180520028582,-51,-58,-16,-6,-4,-1,-3,-11
1570180520028582,36,9,-11,-11,-21,-5,-11,-8
1570180520034626,-43,-3,-2,1,12,2,2,10
1570180520034626,6,8,6,3,-8,-5,-2,0
1570180520051524,-54,-21,-8,-14,-10,-4,9,-3
1570180520051524,-24,-15,12,17,16,-1,-7,-5
1570180520052521,27,14,-4,0,-1,2,3,8
1570180520052521,-28,-20,-1,2,8,2,-2,-4
1570180520074459,-17,9,-3,-4,-13,-1,0,-10
1570180520074459,4,-7,10,2,-4,-5,-2,-10
1570180520076030,18,20,-11,-9,-6,-4,-2,-10
1570180520076030,-23,-22,-3,1,-6,3,2,-8
1570180520096446,45,18,5,4,1,-2,-2,0
1570180520096446,-45,12,-14,-7,2,1,5,-6
1570180520097887,-23,-34,21,5,0,-2,-8,-21
1570180520097887,-10,-6,-6,-5,0,0,1,-2
1570180520111361,15,13,-3,-2,0,-2,-2,12
1570180520111361,17,-4,-10,-14,-7,-1,0,0
1570180520112358,-18,5,7,15,11,2,4,3
1570180520112358,7,21,9,0,-2,-3,-4,-18
1570180520133308,42,8,5,3,7,0,-6,-12
1570180520133308,-65,-29,-5,-5,-4,0,0,-9
1570180520135296,39,12,-13,-5,-5,0,0,4
1570180520135296,-8,11,9,9,13,2,1,32
1570180520147363,12,15,1,2,2,1,0,12
1570180520147363,6,-34,-7,-3,-3,-1,-4,-20
1570180520156240,2,-4,-8,-9,-10,-1,1,-10
1570180520156240,1,12,7,8,7,-1,-5,-31
1570180520171200,-8,-4,-2,-1,-1,1,6,13
1570180520171200,24,20,9,3,-1,-2,3,3
1570180520173196,-38,-20,-24,-7,-1,-4,-1,14
1570180520173196,30,-4,26,8,-4,4,3,10
1570180520194140,-43,-7,4,-5,-2,-4,-20,-16
1570180520194140,58,22,5,5,1,3,10,15
1570180520195138,0,9,-18,-12,-5,1,0,3
1570180520195138,-32,-34,-20,-3,0,-1,-3,9
1570180520207104,89,53,21,9,1,-1,-1,-19
1570180520207104,-38,-32,-8,-6,-4,-4,-7,-12
1570180520216203,30,4,-4,-2,-2,-4,-3,14
1570180520216203,-14,1,-13,-9,-8,-6,4,9
1570180520231042,14,-5,3,2,7,6,10,28
1570180520231042,-34,-16,1,3,1,6,-2,-2
1570180520233035,62,43,3,-5,-5,5,0,-6
1570180520233035,-17,11,8,7,1,-1,0,-9
1570180520253978,8,-10,-10,-4,-10,-4,0,0
1570180520253978,8,-1,-6,-2,9,-3,-6,-6
1570180520254980,-28,-14,8,9,9,0,2,-5
1570180520254980,19,10,0,-3,-4,0,0,4
1570180520266943,31,13,0,5,7,2,6,11
1570180520266943,-31,4,-8,-12,-17,-4,-2,-4
1570180520275924,28,1,7,5,6,-5,-4,2
1570180520275924,17,4,-2,-5,-2,0,0,-1
1570180520290880,-54,-20,-10,-3,3,2,5,-1
1570180520290880,40,12,18,6,-4,-7,-10,8
1570180520292874,-15,-1,1,-4,-6,0,-1,-7
1570180520292874,-11,3,-15,-8,-4,-2,-2,-13
1570180520313821,-27,-10,0,2,2,-3,-1,2
1570180520313821,6,1,-6,-3,-4,2,6,10
1570180520314906,-9,6,12,7,8,2,-2,-7
1570180520314906,15,-11,-8,-7,-2,-1,-1,6
1570180520326783,-17,-19,-7,-4,3,3,6,13
1570180520326783,-23,8,2,-2,-9,-3,-3,-11
1570180520343739,33,21,-9,-4,3,-5,-5,4
1570180520343739,-23,-22,-5,-1,-2,3,2,1
1570180520350720,-12,1,17,5,5,1,1,-3
1570180520350720,-3,6,0,0,0,0,2,4
1570180520352787,-13,-7,-7,-6,0,0,0,0
1570180520352787,-88,-33,1,4,0,2,-2,-12
1570180520373754,0,6,-9,-4,5,1,2,-1
1570180520373754,12,8,1,0,-5,-2,2,10
1570180520375653,-12,-14,-7,-4,-3,0,-1,8
1570180520375653,15,7,4,2,2,-1,-1,2
1570180520387628,0,1,0,-4,-18,-2,-1,-4
1570180520387628,26,14,1,7,19,-2,0,3
1570180520396599,-12,-16,-9,-7,-2,2,1,-5
1570180520396599,45,49,18,7,11,4,2,15
1570180520411562,-43,-21,0,3,-7,-5,-8,-19
1570180520411562,20,4,1,-10,-13,4,3,7
1570180520412556,-15,-32,-4,5,7,-2,-1,-5
1570180520412556,-18,11,-4,-4,-1,0,1,-1
1570180520433503,38,0,-2,-5,-10,-6,-3,3
1570180520433503,-7,-12,2,6,3,1,-3,-10
1570180520435498,12,12,6,0,3,1,3,2
1570180520435498,9,-22,-14,-13,-12,1,1,1
1570180520447464,-26,7,0,5,9,-4,-4,-9
1570180520447464,-27,11,9,12,25,1,-3,-12
1570180520456439,21,-1,0,0,-15,-1,2,7
1570180520456439,11,-10,-9,-3,0,-2,-3,-4
1570180520471396,-8,6,-1,0,-3,3,5,12
1570180520471396,9,-25,-12,-8,-16,-4,-6,-12
1570180520472480,18,37,13,1,6,-4,-2,5
1570180520472480,2,-13,-6,-5,3,2,3,4
1570180520494343,27,13,-19,-7,-7,-6,-9,-21
1570180520494343,-13,-12,18,8,3,2,2,-4
1570180520495338,18,-8,-1,3,-7,-1,1,6
1570180520495338,-6,-16,-2,-7,-13,-6,-5,-5
1570180520507306,-20,11,3,6,0,1,2,2
1570180520507306,-11,-16,-7,1,4,1,2,4
1570180520516276,24,19,5,-4,-10,-1,0,-3
1570180520516276,-13,-6,-3,3,6,-2,-2,-4
1570180520531236,0,-7,2,-7,-19,0,3,6
1570180520531236,10,9,-3,4,18,-2,0,-2
1570180520533231,-71,-27,2,8,10,2,0,-12
1570180520533231,29,12,-5,-5,-16,-1,-2,3
1570180520554175,-14,-4,6,9,16,4,-2,0
1570180520554175,14,1,1,-1,17,4,-1,0
1570180520555269,16,5,-10,-11,-14,-5,0,-5
1570180520555269,-26,3,12,11,11,1,0,-7
1570180520567460,-21,-12,-8,-12,-20,-6,-2,-8
1570180520567460,27,22,5,5,-7,1,5,15
1570180520576487,-3,-6,-3,0,6,1,-5,-7
1570180520576487,3,7,4,4,-2,-2,-7,-6
1570180520599062,12,-1,7,2,5,2,4,18
1570180520599062,3,0,-12,-12,-4,0,1,2
1570180520600055,-26,-8,5,6,-2,0,1,-1
1570180520600055,41,8,-7,-7,-7,1,3,4
1570180520614015,24,11,0,3,13,-2,-5,-12
1570180520614015,23,9,1,4,-5,-6,-4,2
1570180520615207,-16,-5,-2,-6,-15,0,-3,-16
1570180520615207,-2,-5,-2,0,7,-2,2,5
1570180520627313,10,-14,-5,-2,-4,2,1,6
1570180520627313,-40,-25,-1,-2,2,-2,-3,-13
1570180520635956,-9,-2,-2,-2,-2,-8,-1,4
1570180520635956,-4,-3,0,0,7,6,1,-4
1570180520650917,6,12,-1,-6,1,1,0,-6
1570180520650917,-5,-7,-7,-10,-16,-2,3,5
1570180520656905,-2,-1,7,10,11,6,3,14
1570180520656905,18,10,1,3,2,-6,-6,-10
1570180520673860,-3,-9,-4,1,-1,0,-2,4
1570180520673860,-8,-9,-6,-6,-8,-1,-2,-5
1570180520675852,-10,-4,-4,-4,-1,0,0,-2
1570180520675852,-10,-3,2,2,-2,-1,0,1
1570180520687822,31,11,3,0,2,0,0,6
1570180520687822,-2,3,2,2,2,-2,0,5
1570180520696801,21,10,1,0,1,2,3,4
1570180520696801,33,5,-3,0,-2,-1,2,6
1570180520710986,-66,-23,-1,3,4,-1,-1,-2
1570180520710986,28,19,5,-2,-4,-2,-4,-5
1570180520717738,23,11,-2,-2,-3,1,-4,-13
1570180520717738,-12,-11,-6,-2,-2,1,1,12
1570180520733697,2,5,12,3,3,-1,1,-2
1570180520733697,-17,-6,-3,1,-4,-3,0,-5
1570180520740858,1,4,0,-2,2,0,12,14
1570180520740858,-46,-16,1,1,0,-2,-6,-16
1570180520755807,45,18,-3,-4,-3,-6,0,3
1570180520755807,-8,12,1,-3,-6,4,-4,-7
1570180520756636,9,-13,-5,-4,2,0,3,11
1570180520756636,-33,-16,-3,-1,0,2,6,1
1570180520769605,-7,4,-2,0,-1,-1,-3,-14
1570180520769605,38,19,-2,-3,-5,-4,0,8
1570180520778578,-1,0,2,1,-1,-7,-11,-8
1570180520778578,5,-7,0,-1,5,8,4,1
1570180520792585,-21,2,1,1,1,-1,-2,-4
1570180520792585,5,-9,-4,1,0,2,7,11
1570180520793775,-22,-13,-8,-9,-6,-2,-7,-5
1570180520793775,25,13,3,2,-6,-5,-2,0
1570180520815599,2,0,-2,0,4,2,2,3
1570180520815599,-6,-4,-2,-2,0,1,0,-3
1570180520816478,20,-2,1,1,-2,4,3,9
1570180520816478,-5,11,-3,3,2,-3,-1,4
1570180520829443,33,-5,-7,-4,-3,-1,-2,0
1570180520829443,-20,-16,1,-1,-6,0,0,-1
1570180520838418,15,12,2,1,5,2,-1,1
1570180520838418,-16,-7,1,0,-4,-4,-3,-4
1570180520853381,-3,5,10,7,5,0,0,-1
1570180520853381,-12,-15,-6,-5,-2,-1,0,-12
1570180520854468,-25,-8,-3,1,-3,0,-1,-7
1570180520854468,7,5,4,-2,-1,-3,-3,-7
1570180520875370,-13,-14,-9,-10,-3,-3,-2,-2
1570180520875370,-2,-1,4,6,-2,-3,-1,0
1570180520876314,8,3,-5,-4,-11,-2,0,8
1570180520876314,-11,-6,-5,0,12,3,1,2
1570180520890276,20,1,-4,-4,4,0,0,7
1570180520890276,0,-1,2,1,-1,-1,-3,-15
1570180520898354,14,9,2,2,7,-1,-2,-3
1570180520898354,14,0,-9,-6,-5,-1,1,12
1570180520913220,22,12,1,3,-5,-2,-1,3
1570180520913220,-5,10,14,7,6,3,1,0
1570180520914215,28,-7,-6,-3,-11,-4,-3,1
1570180520914215,-32,-6,2,-2,1,-1,5,-4
1570180520935259,7,-1,-9,3,5,0,-1,2
1570180520935259,-13,-9,2,-5,-10,0,-1,1
1570180520936159,9,18,5,6,16,-2,-5,-4
1570180520936159,9,5,-3,-1,-3,-1,-2,3
1570180520950153,-17,0,9,2,1,3,2,-2
1570180520950153,11,-2,-1,-1,-7,-5,0,11
1570180520958182,9,10,-4,-4,8,5,-3,-9
1570180520958182,17,-3,-4,0,5,-2,-5,-2
1570180520973472,-29,-3,2,1,2,1,0,-11
1570180520973472,14,-2,-8,-1,17,5,-1,7
1570180520974167,-15,-13,2,-6,-14,-2,4,-1
1570180520974167,31,21,3,6,-2,-1,-1,4
1570180520995994,10,0,3,-3,-4,-2,-3,-4
1570180520995994,-13,0,-3,-3,-13,-5,-2,1
1570180520996078,-18,-17,-8,-9,-1,0,1,1
1570180520996078,-5,1,3,4,18,2,3,-4
1570180521010052,12,-2,-2,-5,-15,2,2,5
1570180521010052,-17,-1,0,-2,-7,-2,-3,-9
1570180521018157,-20,-9,-1,-5,2,-1,0,3
1570180521018157,-5,-1,5,9,2,-6,-1,-5
1570180521032898,5,-25,-6,1,6,4,2,2
1570180521032898,-46,-6,7,2,5,-3,-3,-6
1570180521033895,50,21,-2,1,-3,-4,-5,-2
1570180521033895,-71,-23,3,-4,-12,0,-1,-12
1570180521055877,-11,4,2,-1,-4,-3,2,7
1570180521055877,15,-7,0,11,25,4,1,0
1570180521055877,-7,4,1,1,-11,0,2,0
1570180521055877,2,-14,-5,-5,-8,-3,-1,0
1570180521069800,1,2,3,1,2,1,0,-7
1570180521069800,18,32,-3,-6,-5,-7,-5,6
1570180521077778,-25,-4,4,3,8,1,2,-2
1570180521077778,20,-3,-4,-4,-13,7,0,3
1570180521092735,-8,6,3,3,5,-1,1,-1
1570180521092735,2,-5,-8,-5,-2,-1,1,-3
1570180521093734,7,6,1,9,7,-5,-6,-5
1570180521093734,-30,-12,2,2,-4,0,0,4
1570180521115732,-40,-11,-6,-3,-5,-3,0,-6
1570180521115732,7,-3,-4,-3,-1,2,-3,3
1570180521116719,-11,-1,5,0,-7,0,-4,-1
1570180521116719,-2,0,-2,-3,7,2,-3,-6
1570180521129809,5,10,-2,2,2,1,1,7
1570180521129809,-11,-14,-4,-5,0,0,1,-4
1570180521137659,-10,-4,-1,-3,-11,-1,2,-6
1570180521137659,59,21,3,1,0,-1,4,14
1570180521152702,43,15,2,-1,1,-3,-3,3
1570180521152702,-2,3,0,0,-8,-1,-1,-8
1570180521153573,0,-9,4,6,6,2,3,5
1570180521153573,14,5,-3,-5,-1,-1,1,-4
1570180521175515,-10,-5,-2,-1,-3,0,-2,0
1570180521175515,11,3,-4,-3,0,0,-4,-4
1570180521182503,-6,-5,2,4,5,2,2,5
1570180521182503,29,16,1,-3,-6,-5,-6,-4
1570180521189541,-35,-23,-11,-8,-6,-2,-3,-23
1570180521189541,25,0,0,2,3,0,0,13
1570180521198456,-42,-7,9,10,7,2,1,-3
1570180521198456,10,17,-1,-4,-6,-2,-1,-2
1570180521213559,13,-26,-4,0,0,-1,2,0
1570180521213559,-22,-15,-4,0,0,-1,0,-5
1570180521213559,14,-3,-8,-5,0,2,2,5
1570180521213559,-19,-7,11,7,5,2,3,-2
1570180521235504,31,30,-6,-7,-6,-6,-6,1
1570180521235504,8,2,2,4,-1,0,1,0
1570180521236353,-4,4,1,-1,-2,-2,-1,-1
1570180521236353,-10,-11,-8,-3,-1,1,0,4
1570180521250320,-68,-12,0,-1,-2,-1,-2,-11
1570180521250320,1,-5,-3,-4,-3,-4,-1,1
1570180521258293,41,26,1,-1,1,3,1,3
1570180521258293,-51,-39,-10,-3,-4,-6,-6,-22
1570180521273258,30,11,4,1,6,17,7,8
1570180521273258,0,6,5,3,-2,-2,-1,1
1570180521274257,-6,-3,3,1,2,0,-3,-11
1570180521274257,3,1,-6,-5,-4,-4,1,7
1570180521295195,24,18,7,6,1,-6,0,-2
1570180521295195,-7,-4,-2,-3,-4,3,-1,8
1570180521296268,-8,-8,3,3,0,1,4,8
1570180521296268,1,16,2,0,0,0,-3,-10
1570180521310362,20,-15,-3,-4,3,1,-3,6
1570180521310362,0,5,-3,-2,-1,0,2,6
1570180521318138,-29,-12,-4,-2,-3,-3,-2,-8
1570180521318138,23,8,1,-1,-1,-2,2,8
1570180521333097,7,10,0,1,-3,-1,0,-6
1570180521333097,-11,-7,-8,-7,3,0,0,-6
1570180521334090,43,10,0,3,1,-5,-3,7
1570180521334090,-81,-14,0,0,6,1,-7,-28
1570180521356032,5,-1,4,4,1,-3,-3,3
1570180521356032,-4,1,0,0,1,3,2,-7
1570180521356032,-14,-8,-12,-13,-10,-3,1,5
1570180521356032,46,14,7,7,-2,0,2,9
1570180521369997,-58,-18,-5,-3,-1,-5,-5,-19
1570180521369997,-1,1,2,-4,-4,-1,-4,-1
1570180521377974,-7,-6,-4,1,6,1,-2,-1
1570180521377974,37,2,-5,-4,-3,0,0,8
1570180521392937,-4,-2,-3,-4,-6,-3,0,-3
1570180521392937,4,13,14,12,7,0,-2,-8
1570180521393930,5,-8,-5,-1,-2,-2,-3,-12
1570180521393930,6,-11,1,0,-1,4,5,6
1570180521415872,-10,-7,-11,-12,-7,-3,0,-1
1570180521415872,-4,8,9,7,4,-2,-7,-14
1570180521416113,1,17,6,2,1,1,0,5
1570180521416113,0,-17,-11,-1,1,-1,-1,6
1570180521429841,13,4,3,-2,-5,1,0,6
1570180521429841,-8,-21,-3,-3,-2,-1,5,1
1570180521438223,-7,-7,2,3,-1,-2,-3,-8
1570180521438223,17,17,3,4,0,2,4,10
1570180521452775,32,20,8,6,9,0,1,3
1570180521452775,-1,-9,-2,4,-8,-3,-3,-9
1570180521460785,-24,-21,-6,-8,-5,-1,2,0
1570180521460785,8,8,-6,-9,-2,-3,-5,-3
1570180521475714,-9,-5,-4,1,-18,-6,-3,-9
1570180521475714,-3,14,-4,-5,13,1,0,-2
1570180521476710,-10,-12,0,0,3,2,1,-3
1570180521476710,2,7,-1,1,1,1,-1,1
1570180521489721,-66,-12,2,-1,-1,-1,-2,-13
1570180521489721,-3,-10,-1,0,3,5,4,6
1570180521497659,23,11,-3,-5,-3,-3,-3,4
1570180521497659,3,17,12,6,2,1,2,4
1570180521513622,-11,-13,-2,0,0,0,0,2
1570180521513622,-8,-11,-1,3,1,-2,-1,-1
1570180521514608,2,-9,-6,-3,-6,0,2,3
1570180521514608,7,8,-6,-2,4,-4,-7,-7
1570180521535702,9,5,5,6,2,3,0,6
1570180521535702,12,3,-2,-1,0,0,0,0
1570180521536550,-3,8,4,-1,-1,3,2,6
1570180521536550,-17,-23,-8,-5,-4,1,-2,-11
1570180521550511,-4,0,-1,4,6,-3,-1,5
1570180521550511,15,10,-8,-9,-3,1,0,3
1570180521558490,-27,-9,8,4,-10,0,-2,-11
1570180521558490,17,6,-2,-13,5,-10,-9,-1
1570180521573452,10,-5,-6,-5,-1,3,-1,-2
1570180521573452,-3,7,14,14,-2,-3,-3,-1
1570180521573452,30,10,-13,-1,18,2,2,-2
1570180521573452,-13,-8,2,1,-15,0,0,5
1570180521595395,24,7,-2,-5,-1,0,1,8
1570180521595395,-19,-4,3,2,1,-2,-1,-5
1570180521596391,8,17,0,-1,-9,-2,2,6
1570180521596391,-33,-8,8,6,5,1,0,-10
1570180521611439,26,7,-4,-4,2,1,2,10
1570180521611439,10,5,-2,-2,-8,0,2,3
1570180521618336,-20,-7,5,5,1,-2,-4,-4
1570180521618336,1,1,-3,1,0,2,1,-5
1570180521633342,-8,-4,-4,-5,0,-1,-3,-2
1570180521633342,2,0,-4,-4,-8,-1,-2,1
1570180521634289,-17,-7,0,1,-4,-4,-5,7
1570180521634289,-24,-2,-2,2,0,-1,1,-12
1570180521655232,3,1,4,1,1,0,2,-5
1570180521655232,3,-1,-6,-7,-1,0,-1,6
1570180521656230,6,-8,-4,-3,-3,1,3,0
1570180521656230,-16,-15,-2,-1,-3,5,8,9
1570180521670191,29,15,1,1,-2,-7,-6,-1
1570180521670191,-21,2,7,4,5,0,-2,-14
1570180521678180,10,1,-2,-7,-9,-3,-3,-10
1570180521678180,-14,-6,-5,-3,-1,0,0,4
1570180521693627,10,1,17,4,-6,0,1,-12
1570180521693627,10,-8,-20,-16,-1,-2,-1,-5
1570180521694173,21,18,20,12,5,0,-4,-2
1570180521694173,3,-15,-4,-2,-21,-1,-4,-1
1570180521715388,-29,-10,-11,-6,-14,-4,-5,-17
1570180521715388,11,1,-4,0,29,3,-3,-6
1570180521716069,-5,-5,-4,-5,-2,-1,0,-13
1570180521716069,18,3,-9,-8,1,-4,7,6
1570180521739066,-32,-6,-3,1,1,6,12,-9
1570180521739066,19,8,9,6,-14,-5,1,3
1570180521739066,-10,0,-2,0,6,3,2,-7
1570180521739066,6,4,3,0,3,1,0,-2
1570180521752977,-3,-12,-20,-11,-7,0,3,4
1570180521752977,-10,-2,6,3,-1,0,4,3
1570180521753972,1,7,-1,-1,3,-1,1,6
1570180521753972,-5,-8,-2,2,3,1,-1,-7
1570180521776037,7,1,5,3,4,-2,-9,-19
1570180521776037,0,0,-13,-8,-11,-5,-7,-9
1570180521776037,-2,-12,-22,-13,-10,-1,-4,5
1570180521776037,0,24,40,13,11,1,-4,-1
1570180521798913,-9,-15,0,9,11,1,-6,-14
1570180521798913,10,8,-4,-3,-5,0,-3,9
1570180521799943,-11,-5,1,-1,-4,0,-1,-1
1570180521799943,4,4,-12,-6,-1,0,-3,8
1570180521812813,52,4,3,4,7,2,3,10
1570180521812813,-63,-28,1,-1,-6,0,-2,-15
1570180521813809,54,14,-20,-14,-4,-6,-4,15
1570180521813809,7,-4,-13,0,1,0,1,19
1570180521835750,8,19,28,6,2,0,1,11
1570180521835750,3,13,-13,-1,-6,-1,3,15
1570180521836748,-28,-29,22,14,7,3,1,-9
1570180521836748,-1,-14,-27,-6,-3,-5,-3,4
1570180521849716,-20,-1,9,-3,-2,-2,-2,-20
1570180521849716,14,14,-1,-4,-1,2,2,10
1570180521858105,-14,-21,-7,2,-1,0,0,-10
1570180521858105,13,8,-34,-11,-4,-1,0,12
1570180521872737,-20,13,43,15,4,1,-1,-21
1570180521872737,15,0,21,3,1,-2,-2,-15
1570180521874022,-6,6,9,5,3,1,10,7
1570180521874022,3,6,0,-5,-1,-2,-6,-11
1570180521895589,0,-5,-32,-9,-3,0,-2,7
1570180521895589,15,-6,8,4,2,2,3,-19
1570180521896586,-15,-17,-6,-1,-1,0,0,-1
1570180521896586,-4,-2,9,1,-3,-1,1,0
1570180521918710,-4,10,-10,-3,-1,-1,1,4
1570180521918710,13,-13,-4,-1,0,0,3,5
1570180521919526,-6,16,-10,-4,-1,0,-1,-5
1570180521919526,5,4,29,9,2,0,-2,-12
1570180521932490,8,8,-49,-15,-4,-3,-9,-15
1570180521932490,-8,-12,22,7,2,0,-10,9
1570180521933488,6,36,36,10,6,3,-17,17
1570180521933488,-2,-19,-43,-8,-5,-4,-36,-10
1570180521955551,-8,14,44,10,-2,0,-6,41
1570180521955551,-1,-6,24,6,0,-6,-12,5
1570180521956427,-5,-3,-21,-7,-1,2,16,21
1570180521956427,2,6,2,3,1,0,14,39
1570180521978499,7,41,-11,-5,-1,-2,14,43
1570180521978499,-6,-15,-21,-4,-2,2,17,9
1570180521979472,-18,-63,31,5,0,-3,5,4
1570180521979472,2,15,6,-1,-2,-2,14,-12
1570180521993340,-2,-2,-15,-5,-1,-1,12,-5
1570180521993340,2,2,3,2,0,1,9,-17
1570180521993340,9,11,-18,-3,-3,-1,1,-4
1570180521993340,-9,-13,6,1,1,0,5,-28
1570180522015269,0,-11,5,0,-1,-1,-2,-8
1570180522015269,5,22,-12,-8,-1,-1,-7,-12
1570180522016359,1,-3,-4,0,0,2,-1,-25
1570180522016359,-9,-6,4,0,0,-1,-1,-8
1570180522038210,-3,-8,20,8,3,0,-3,-5
1570180522038210,18,10,-12,-2,0,-1,3,2
1570180522039205,-8,-10,-14,-2,-1,-2,3,-2
1570180522039205,-2,27,29,5,1,2,0,-6
1570180522053167,7,-19,-15,-1,1,-1,-2,15
1570180522053167,-13,-14,-7,-6,-3,-2,-9,28
1570180522054165,8,18,4,2,-3,-2,-4,16
1570180522054165,9,25,1,-2,2,2,1,12
1570180522075111,-4,-31,-4,1,1,1,-7,5
1570180522075111,6,8,-4,1,-2,0,1,-1
1570180522077108,0,9,5,-1,-2,-2,-3,-10
1570180522077108,-12,-7,-1,-1,-3,-2,-2,-24
1570180522099045,4,-1,-5,-3,-1,-2,0,-16
1570180522099045,-9,-4,-2,-3,0,-2,0,-13
1570180522099045,11,4,-14,-6,-1,-3,-4,-24
1570180522099045,1,10,9,2,2,1,3,-17
1570180522113236,-16,-17,-2,1,2,1,-1,-11
1570180522113236,18,-4,-3,5,-4,-4,1,-1
1570180522114006,-7,4,10,11,4,0,-5,-12
1570180522114006,3,-3,2,1,3,0,-2,-15
1570180522135948,-30,-8,-5,-2,-2,2,1,3
1570180522135948,15,18,10,-3,2,3,1,6
1570180522135948,-7,0,-2,-4,-3,-5,0,1
1570180522135948,4,-7,1,0,-2,2,3,4
1570180522158885,-15,-8,-4,-1,0,1,3,-2
1570180522158885,9,-2,-10,-4,-2,0,5,1
1570180522159977,-11,-2,1,1,-5,-2,-15,-12
1570180522159977,-6,-12,1,-1,-1,1,15,10
1570180522172853,8,-1,0,-1,-1,-2,-15,-4
1570180522172853,-22,0,-5,-4,0,-5,-2,-28
1570180522174233,9,0,-2,2,-1,-2,1,16
1570180522174233,14,2,-3,1,-5,-4,-8,-4
1570180522195786,-13,-1,1,-3,1,4,18,21
1570180522195786,-45,-29,1,9,-1,-5,-5,-10
1570180522195786,27,12,-6,-7,-3,1,0,6
1570180522195786,-6,-9,6,4,2,6,9,6
1570180522218725,6,-12,-11,-5,1,1,-3,-12
1570180522218725,-57,-14,-1,-4,6,30,39,12
1570180522219722,23,10,-4,-2,-6,-24,-6,4
1570180522219722,13,3,-7,-4,-4,-15,-27,-20
1570180522232731,0,-1,0,-2,-6,7,-26,3
1570180522232731,-16,-23,-13,-7,-6,-9,-13,-14
1570180522240666,34,18,3,-1,7,14,29,14
1570180522240666,-57,-7,2,2,2,2,12,-1
1570180522255645,-21,-18,-4,-4,-3,-3,-14,-9
1570180522255645,58,30,3,0,-1,0,8,9
1570180522256625,-71,-7,6,10,6,7,2,-16
1570180522256625,-29,-22,-7,-7,-4,-9,-9,-2
1570180522278565,-20,-12,-5,6,7,1,5,-3
1570180522278565,46,20,0,-2,3,11,-2,25
1570180522279569,15,-7,-2,-6,3,1,3,30
1570180522279569,62,24,2,3,1,-4,-5,1
1570180522293526,-60,-24,-1,-1,-2,-1,5,-12
1570180522293526,29,5,4,1,-3,-5,-4,15
1570180522293526,-18,-5,-4,-4,-3,0,-6,7
1570180522293526,32,6,5,5,4,-5,-2,36
1570180522315470,39,21,0,-3,-3,2,14,13
1570180522315470,19,13,6,5,3,-7,-5,18
1570180522316595,-74,-22,-6,-8,-1,10,-4,-37
1570180522316595,-8,-11,-1,7,3,22,8,-9
1570180522338410,34,31,16,11,1,-14,0,-25
1570180522338410,9,3,-2,1,3,0,-4,-12
1570180522339408,10,-8,-8,-3,-2,-7,-5,-16
1570180522339408,13,-2,-7,-10,-6,6,4,-10
1570180522353365,20,11,-1,-4,-2,-3,2,-3
1570180522353365,-27,1,5,4,3,-2,-5,13
1570180522353625,39,6,-2,-4,-3,-4,-2,-14
1570180522353625,-26,-18,-7,-3,-5,-6,-12,-42
1570180522375542,41,12,1,-2,-1,-1,3,39
1570180522375542,0,-3,-2,-4,-4,-6,-2,6
1570180522376307,21,10,5,2,2,1,0,20
1570180522376307,-12,-1,2,2,1,2,-7,19
1570180522399515,17,9,1,1,1,-3,-3,-5
1570180522399515,-18,-13,-7,-6,-3,3,8,-3
1570180522399515,7,0,4,3,-1,4,-13,51
1570180522399515,12,2,3,1,0,-1,-5,46
1570180522413273,-12,-5,-6,-7,-4,2,1,-50
1570180522413273,-3,0,-2,-1,-2,-5,-3,15
1570180522414279,0,-1,0,0,-3,-3,4,-1
1570180522414279,-6,0,2,-2,-3,-21,-6,-14
1570180522435195,3,0,0,-1,-1,-6,-23,6
1570180522435195,-9,-5,0,-4,-9,-15,-18,-10
1570180522436143,-1,2,-1,-2,-2,-2,-2,-6
1570180522436143,-2,-4,-2,-1,-3,-11,-2,4
1570180522459082,-16,-7,-3,-1,0,3,8,2
1570180522459082,9,3,-1,0,-2,-3,-3,-82
1570180522459082,10,7,4,6,1,-7,-21,53
1570180522459082,2,1,-1,-1,2,1,4,-10
1570180522472050,10,6,1,2,2,2,1,3
1570180522472050,0,2,-1,0,2,2,-1,-2
1570180522481024,-9,0,1,-1,-2,2,4,-27
1570180522481024,5,0,-4,-2,1,6,9,5
1570180522495152,-6,-3,-2,-1,-2,-5,-7,18
1570180522495152,-15,-6,0,1,0,-1,-1,25
1570180522495985,-2,-4,0,-1,0,1,10,19
1570180522495985,-9,-4,0,1,0,3,0,17
1570180522518921,18,2,0,-1,-2,-3,9,32
1570180522518921,-8,-2,-1,-3,-1,-2,-1,3
1570180522519922,-9,-7,-3,-2,0,2,1,-27
1570180522519922,3,-2,0,-3,-1,2,8,5
1570180522532891,-9,-2,2,-1,0,0,-6,-26
1570180522532891,10,2,-1,-1,-1,1,-1,-1
1570180522540868,0,1,-1,-2,-1,-1,-2,-21
1570180522540868,-7,-1,-1,-1,-1,0,4,-13
1570180522555830,4,1,0,-1,-1,1,4,-7
1570180522555830,-1,1,0,0,0,2,4,4
1570180522555830,-18,-4,-2,-2,0,-1,5,-80
1570180522555830,13,-1,-1,0,0,1,-10,19
1570180522579839,-2,1,-1,0,1,-3,-1,-3
1570180522579839,-2,-2,-1,-2,1,0,-3,4
1570180522580759,-6,1,-1,1,-1,1,2,-15
1570180522580759,2,-1,-2,-2,-1,2,3,7
1570180522592729,0,-1,-3,0,-1,1,4,5
1570180522592729,-11,-2,-2,0,-1,-2,-8,-11
1570180522600751,7,1,-1,-1,-2,-3,-4,21
1570180522600751,-6,0,1,1,-2,0,4,-16
1570180522615664,-2,-1,-2,-1,0,-2,-7,5
1570180522615664,-2,-1,-3,0,-2,0,3,2
1570180522616740,-1,-3,-4,0,0,1,3,8
1570180522616740,-10,0,0,0,-2,-1,-5,-13
1570180522638608,3,-1,-1,0,0,1,7,-2
1570180522638608,-13,-6,-3,-3,-3,-3,-4,-24
1570180522639601,11,3,1,0,-1,-4,-4,20
1570180522639601,-6,-3,-2,0,-1,-2,1,-23
1570180522652571,-1,-1,0,-2,0,-1,-1,-1
1570180522652571,4,-1,-1,-1,-1,1,0,9
1570180522660547,0,0,-1,-2,0,2,1,7
1570180522660547,-6,-2,0,-2,0,0,-3,-10
1570180522675507,1,1,0,1,0,-1,0,-1
1570180522675507,1,-1,-1,0,1,-1,1,6
1570180522676508,-2,-2,-1,-1,-1,1,5,-5
1570180522676508,-1,1,1,0,-2,-1,2,6
1570180522698445,-2,-2,-3,-1,-2,-1,-1,-5
1570180522698445,5,0,-2,-1,-1,0,2,15
1570180522699440,-1,-1,-1,-1,-2,-2,-1,-2
1570180522699440,0,-1,-2,1,0,1,3,4
1570180522712405,-4,-1,0,-1,1,0,2,2
1570180522712405,-2,-2,0,-1,0,1,9,-20
1570180522720571,2,-2,-2,-2,-2,-1,-3,3
1570180522720571,-2,0,-2,-2,0,-1,1,1
1570180522735344,-1,1,1,0,-1,-2,0,-4
1570180522735344,1,0,0,0,0,1,1,3
1570180522736342,-3,-1,-2,-2,0,1,-1,-7
1570180522736342,-1,-1,-1,0,-1,0,-1,2
1570180522759287,-1,1,-1,1,-2,0,1,-4
1570180522759287,-1,2,0,-1,-1,-2,-3,-5
1570180522759327,3,-2,-1,0,-1,-2,-2,-7
1570180522759327,-4,-2,0,-1,-1,0,-3,-15
1570180522772384,-3,-3,-1,-1,-1,-3,-3,4
1570180522772384,5,-1,1,0,0,-1,-4,9
1570180522780234,-2,0,-1,-1,0,0,2,2
1570180522780234,1,0,0,-1,-1,-1,-1,0
1570180522795228,-1,-1,0,-1,0,0,-4,-5
1570180522795228,1,1,0,1,0,-2,-1,4
1570180522796186,1,-1,-1,-2,0,-2,2,11
1570180522796186,-7,-3,0,0,1,0,-1,-9
1570180522819120,3,1,-2,-1,-1,-1,2,9
1570180522819120,-10,-2,-1,-1,-2,-1,-7,-42
1570180522819120,5,1,1,1,-1,-2,0,10
1570180522819120,-1,0,-1,2,-1,2,-2,3
1570180522849046,2,-1,0,-1,-1,-1,0,-2
1570180522849046,-8,-1,-1,0,1,0,-2,-7
1570180522849205,0,1,0,0,-1,-1,1,-1
1570180522849205,3,-2,-2,-4,1,0,-2,3
1570180522855195,-1,1,0,-1,-2,1,0,-1
1570180522855195,4,0,-2,0,-2,0,0,14
1570180522857019,-2,-1,-1,-2,-1,0,-1,-3
1570180522857019,2,-1,0,0,-1,-2,-2,9
1570180522879003,0,-2,-2,0,-1,-3,-6,-2
1570180522879003,1,0,0,-1,-1,-2,-4,8
1570180522879003,0,-1,-2,-1,0,0,1,15
1570180522879003,-2,-1,-1,-1,-2,-1,-1,-17
1570180522900968,-1,-1,0,-1,-1,-2,1,1
1570180522900968,-4,0,0,1,-1,0,-2,-11
1570180522901897,-6,-2,-1,-1,-1,0,-2,-8
1570180522901897,2,-1,-1,-1,1,1,4,18
1570180522915892,-1,0,1,-1,-1,1,1,2
1570180522915892,1,-1,-1,0,0,1,3,14
1570180522915892,0,-2,-5,-5,-2,0,6,8
1570180522915892,5,4,4,4,0,-6,-24,3
1570180522938803,7,0,0,2,-1,-1,-3,6
1570180522938803,2,-1,0,1,0,0,-1,1
1570180522940255,-2,0,1,1,0,-3,-3,-10
1570180522940255,-1,-1,-2,-2,-1,0,7,0
1570180522960761,-2,-1,-2,-2,0,-1,2,-2
1570180522960761,2,1,0,-2,-2,-1,-1,8
1570180522961739,-1,-1,-1,0,1,-1,2,-5
1570180522961739,-4,-2,-3,-2,1,0,3,-4
1570180522975700,-1,0,1,1,0,-1,-3,-7
1570180522975700,0,-1,-1,-2,2,0,3,1
1570180522976699,-2,0,2,0,-1,0,-3,-5
1570180522976699,-4,-1,0,1,0,-3,1,-10
1570180522998693,-5,0,-2,-2,-2,0,-4,-14
1570180522998693,1,-1,-1,-1,0,-1,-2,2
1570180522999636,-3,2,2,1,-2,0,2,-11
1570180522999636,8,-1,-3,-1,1,1,-7,16
1570180523021577,1,2,1,1,0,-4,-13,8
1570180523021577,-1,1,0,0,-1,-4,-4,2
1570180523022409,-1,-2,-1,1,1,-1,-3,7
1570180523022409,-3,-2,-1,-2,-3,1,6,-24
1570180523035540,-2,-2,-2,-2,0,0,1,-3
1570180523035540,5,0,-2,-2,0,-1,-3,5
1570180523036537,1,-1,0,-1,-2,0,-1,6
1570180523036537,-1,-1,-1,-2,-1,-1,2,2
1570180523058521,-3,0,0,1,0,0,0,-15
1570180523058521,-1,-2,-2,2,-1,0,2,3
1570180523059478,0,-2,-3,-3,1,-1,0,-5
1570180523059478,-2,-1,0,-1,-2,1,1,1
1570180523081462,-5,-3,-3,-2,-1,0,3,-7
1570180523081462,4,1,2,1,-1,-3,-9,7
1570180523082415,2,1,2,2,0,-2,-3,-2
1570180523082415,-2,0,1,1,0,-2,-3,-2
1570180523095561,0,-2,-1,-3,1,2,4,11
1570180523095561,-2,0,-3,-2,-1,-1,7,-10
1570180523096384,1,-1,-1,-1,-1,1,-6,-3
1570180523096384,17,4,3,2,1,2,6,47
1570180523118319,-1,-2,0,0,-1,-3,0,-5
1570180523118319,-3,-1,0,-2,0,3,4,2
1570180523119317,-1,1,2,1,-1,-2,-2,-7
1570180523119317,-6,-2,-3,-3,-1,0,2,-9
1570180523141303,3,0,0,-1,-1,1,-1,1
1570180523141303,2,-1,-1,1,1,-1,1,12
1570180523142483,-1,-3,-1,-1,-1,0,0,-1
1570180523142483,-3,-2,-3,-2,1,-1,-3,-2
1570180523155302,0,0,0,-1,-1,0,0,5
1570180523155302,-5,-2,-1,0,0,-1,-4,-11
1570180523156217,-2,0,-1,1,-3,1,-1,-5
1570180523156217,-5,-1,-2,0,-1,0,1,-10
1570180523178708,1,-1,-1,-1,0,1,1,1
1570180523178708,2,0,-1,0,-1,-2,-3,3
1570180523179707,-5,-1,0,0,-3,0,-2,-8
1570180523179707,-4,-2,0,-1,0,0,-1,-4
1570180523201435,4,2,-1,-1,1,-2,-3,12
1570180523201435,-5,-3,0,-2,-2,0,0,-10
1570180523202433,4,-2,-3,-2,1,0,2,8
1570180523202433,-7,1,2,2,-1,-3,-8,-3
1570180523215389,-5,-1,0,1,1,-1,-1,-11
1570180523215389,1,0,-1,-2,-1,0,0,2
1570180523223119,2,0,-2,-1,0,0,0,7
1570180523223119,0,-1,-2,-1,0,0,5,-4
1570180523239275,-2,0,-1,-1,-1,0,2,-3
1570180523239275,-1,-1,-1,0,-2,0,2,3
1570180523240589,1,1,0,-2,0,0,1,-1
1570180523240589,0,-1,0,-3,0,-1,1,-4
1570180523261283,-2,-1,-1,-1,-2,0,2,-4
1570180523261283,0,-2,0,0,-2,-1,-1,-2
1570180523263049,-2,1,-1,1,-1,-2,-1,-1
1570180523263049,-3,-2,0,0,0,-1,0,-3
1570180523275035,-2,1,-1,-3,-2,-2,-3,-11
1570180523275035,-1,-1,0,-1,0,-1,2,3
1570180523283352,0,-3,-1,-2,-1,-1,1,1
1570180523283352,-1,-1,-2,0,-3,-1,-1,-1
1570180523299312,-4,-2,-1,0,0,2,14,-8
1570180523299312,0,2,2,0,0,-4,-9,-3
1570180523300446,-1,-1,-2,-2,0,-2,-1,-1
1570180523300446,1,-1,0,-2,0,-1,1,3
1570180523321576,0,-1,-2,0,-2,2,1,2
1570180523321576,0,0,-1,-1,0,2,1,-6
1570180523322947,-1,-2,0,-1,0,0,0,-8
1570180523322947,4,-3,-2,-2,-1,1,1,2
1570180523335328,3,2,0,1,-1,0,-2,6
1570180523335328,2,-1,-3,-1,0,0,2,8
1570180523344259,-1,0,0,1,-2,-3,-3,4
1570180523344259,-4,-1,-2,-2,-1,1,2,-10
1570180523358492,3,1,-1,0,1,-2,-3,4
1570180523358492,-3,-1,1,-1,1,-1,-1,-5
1570180523360328,-2,-1,-1,0,1,0,1,-2
1570180523360328,-2,-1,-2,0,-1,0,-1,3
1570180523381350,0,-1,-1,-1,0,1,-2,5
1570180523381350,-4,-1,-1,0,-1,3,16,7
1570180523382298,3,1,1,0,-1,-2,-6,12
1570180523382298,-1,0,0,1,-1,-1,-5,-17
1570180523395487,-1,-3,0,0,1,-2,-3,-2
1570180523395487,1,-1,-2,0,-1,3,7,-4
1570180523404243,-2,0,-2,0,0,1,1,-4
1570180523404243,-2,0,-2,0,-1,-1,-3,6
1570180523419248,0,-1,0,-1,-2,-2,-3,-2
1570180523419248,-3,-2,-2,0,-2,-1,-4,-1
1570180523420199,-1,0,0,-2,0,-1,1,2
1570180523420199,0,0,-1,-1,-2,-1,-2,0
1570180523441094,-5,-2,-2,-2,-1,1,-1,-3
1570180523441094,4,-1,-2,-3,0,-4,-6,4
1570180523443095,-5,-2,-1,0,1,-2,-2,-15
1570180523443095,-1,-1,-2,0,2,-1,0,0
1570180523455276,-5,-3,0,-1,-2,1,9,-14
1570180523455276,2,1,2,1,-2,-2,-8,4
1570180523464037,-1,-3,-1,0,-2,1,-1,-3
1570180523464037,-3,0,3,-1,-1,-1,0,-10
1570180523479221,4,0,-1,-1,-1,-2,2,8
1570180523479221,-1,0,-1,-1,0,-1,-3,-4
1570180523480027,0,-1,-2,-1,0,0,-1,5
1570180523480027,0,-1,-2,0,1,-1,0,1
1570180523501487,1,-1,-1,1,-1,0,-5,4
1570180523501487,-2,-2,-2,-3,0,-1,2,-2
1570180523503206,2,0,-2,-2,-1,-2,-1,-3
1570180523503206,1,0,0,-2,-2,-2,-1,3
1570180523515082,-1,0,-2,-3,-1,-3,-5,2
1570180523515082,0,-1,-1,0,-1,1,-1,-1
1570180523523908,-3,-2,-1,-1,1,0,3,-2
1570180523523908,3,0,-2,-1,0,-4,-4,0
1570180523538869,-4,-2,-3,0,0,0,1,-6
1570180523538869,1,2,1,1,0,1,3,24
1570180523540156,5,3,0,1,-1,-1,1,8
1570180523540156,-6,-2,-1,1,0,0,12,-14
1570180523560811,0,-1,1,-1,-2,-1,-5,7
1570180523560811,0,0,0,1,1,0,-3,-5
1570180523562806,-6,-3,0,0,-1,0,-1,-8
1570180523562806,1,1,-1,0,-1,1,2,3
1570180523574774,-2,-2,-4,-3,-1,-1,1,-2
1570180523574774,-1,-2,-1,-2,-2,0,1,-4
1570180523583933,0,0,-2,-2,-1,-1,1,1
1570180523583933,-1,0,-1,-1,0,0,-1,-4
1570180523598710,0,1,0,0,-1,-1,-4,-1
1570180523598710,-1,-1,0,-1,0,-1,-2,1
1570180523600703,-2,-3,-3,-1,-1,-1,-2,-11
1570180523600703,0,0,-2,0,-2,0,-3,3
1570180523628894,2,1,0,1,-1,-3,0,1
1570180523628894,-4,-1,-1,-1,-2,-2,1,-8
1570180523630624,0,0,0,1,-1,-2,-2,2
1570180523630624,0,-2,1,-1,0,0,-1,3
1570180523635220,-3,-1,0,-1,0,1,10,-9
1570180523635220,0,0,0,-1,1,-2,-7,-4
1570180523643589,2,2,1,1,-1,-2,-6,2
1570180523643589,1,1,-2,0,0,-3,-6,7
1570180523658570,0,1,0,0,-2,1,0,2
1570180523658570,1,0,0,0,0,-1,3,9
1570180523660544,0,-2,-3,-2,-1,0,4,4
1570180523660544,-5,-3,-2,-2,-2,-2,-4,-17
1570180523681562,-3,-1,0,-1,1,-2,-7,-7
1570180523681562,1,2,2,1,-1,-2,-3,-10
1570180523682484,1,-2,-2,-1,-3,0,-4,6
1570180523682484,0,-2,-3,-2,0,-1,0,0
1570180523694533,0,0,0,2,0,-1,-7,0
1570180523694533,-1,-1,2,2,0,0,0,-7
1570180523703602,-3,0,2,-2,2,1,4,3
1570180523703602,-1,-1,0,-1,-1,0,-3,-7
1570180523718563,3,0,-1,-1,-1,1,2,9
1570180523718563,-1,-3,-3,-2,-2,0,-1,6
1570180523720556,1,1,0,0,-1,0,1,0
1570180523720556,1,0,-1,-1,-1,1,1,4
1570180523741508,0,-2,-1,-1,0,-2,-2,1
1570180523741508,-3,0,-2,-1,1,-2,-2,-2
1570180523742510,-1,-1,0,-2,-1,0,1,2
1570180523742510,-2,0,-1,-1,-1,-3,-1,-6
1570180523754569,-1,0,-1,-1,-1,-1,-1,-6
1570180523754569,0,0,-3,1,-2,-1,0,-2
1570180523763613,-4,-1,-1,-1,-2,1,1,-4
1570180523763613,1,0,1,1,2,-1,0,6
1570180523778404,-1,-1,0,1,0,-1,-1,7
1570180523778404,-2,-2,-2,-2,0,1,0,-9
1570180523780623,-3,0,0,-1,0,0,0,-6
1570180523780623,1,0,1,0,-1,-1,-8,10
1570180523801525,-2,-2,-2,0,-1,1,2,2
1570180523801525,-3,0,1,-1,-1,1,4,-1
1570180523802996,6,1,2,1,1,1,-3,7
1570180523802996,0,1,1,0,1,1,1,1
1570180523823289,-1,-4,-1,0,-1,0,-3,-6
1570180523823289,2,-3,-2,-1,-1,1,-3,3
1570180523825320,1,2,-1,-1,-1,0,5,17
1570180523825320,1,-2,-2,-1,0,-1,-1,-5
1570180523838244,0,1,1,-1,-1,-1,-3,-2
1570180523838244,2,-1,-1,-1,0,-3,0,2
1570180523840239,-2,0,-1,-1,0,0,0,-5
1570180523840239,1,-2,-1,2,-1,0,3,7
1570180523861209,-1,1,0,-1,-2,-1,1,1
1570180523861209,-3,-2,-1,-1,0,-2,-2,-4
1570180523863356,0,-1,-2,-2,-1,0,-1,-1
1570180523863356,1,0,-2,-2,-1,-1,1,4
1570180523884484,-7,-2,-2,-2,1,0,11,-21
1570180523884484,0,-2,-3,0,-1,-2,-3,4
1570180523885117,0,-2,0,0,1,-2,-2,-8
1570180523885117,-2,-1,-1,-1,-1,1,1,-1
1570180523898089,1,1,0,0,-2,-2,-1,5
1570180523898089,-2,1,1,-3,-1,-1,1,-1
1570180523905124,-2,-1,-1,-1,-1,-3,-1,-2
1570180523905124,-4,-2,-1,0,-1,2,-1,-17
1570180523921123,0,-3,-1,-2,0,2,3,12
1570180523921123,4,1,1,1,-1,0,1,3
1570180523923018,-3,-2,-3,0,-2,-4,-6,-4
1570180523923018,-1,1,0,-1,-1,-4,-2,-1
1570180523943960,1,-1,-2,-1,1,-2,-6,-2
1570180523943960,-2,-1,-2,-2,-1,0,-1,-3
1570180523945095,2,0,0,-2,0,2,3,9
1570180523945095,-2,0,-1,0,-1,1,0,0
1570180523958922,2,-1,-2,-1,0,-1,-4,-1
1570180523958922,-1,0,0,1,-2,-1,1,-2
1570180523964904,-2,-1,-1,1,0,-1,-1,-7
1570180523964904,-1,-1,0,0,-2,1,1,7
1570180523980907,8,1,1,0,-1,-2,-19,1
1570180523980907,-1,-1,-1,0,-2,-1,0,-2
1570180523982857,-3,-1,0,-2,-2,-1,-1,-4
1570180523982857,1,0,-2,-1,-1,-1,1,4
1570180524003800,-2,0,0,0,0,-1,3,-3
1570180524003800,-3,-2,-2,-1,-1,0,-4,-6
1570180524005796,4,-1,-2,-2,-1,-2,-7,-6
1570180524005796,-1,-2,0,0,0,-3,1,3
1570180524018580,0,1,0,0,0,0,2,0
1570180524018580,2,1,0,1,1,-2,-1,2
1570180524024790,-7,-3,0,0,-3,0,1,-23
1570180524024790,4,-1,-2,-2,0,0,0,2
1570180524041700,-2,0,0,0,-2,0,1,-2
1570180524041700,0,-1,0,1,-3,1,1,0
1570180524042696,-1,-3,-1,-1,-1,0,-2,16
1570180524042696,-5,-1,-1,0,0,-1,-1,-3
1570180524063640,4,2,1,-1,-1,-2,3,7
1570180524063640,-1,0,0,-1,2,-2,-3,3
1570180524065748,0,-1,-1,-1,0,1,1,0
1570180524065748,-3,-1,0,0,-2,-1,-3,-5
1570180524078602,0,1,1,0,-2,1,6,22
1570180524078602,0,-3,-4,-3,-2,0,3,-10
1570180524084590,2,-1,-2,-1,-2,1,1,1
1570180524084590,-1,0,-1,1,-1,0,-2,-5
1570180524101548,-3,-1,-2,-1,-2,-1,-3,-9
1570180524101548,-1,0,0,-1,0,-1,-2,4
1570180524102537,-1,0,-1,1,0,-1,2,6
1570180524102537,1,0,-1,0,0,0,0,0
1570180524123483,-2,-1,0,1,-2,-3,0,-7
1570180524123483,-1,-1,0,0,-1,0,-1,1
1570180524125677,-1,1,1,-2,-1,-1,-3,-2
1570180524125677,-2,1,-1,-2,0,-1,1,-2
1570180524138440,-2,-3,-1,-1,-1,-1,2,5
1570180524138440,8,2,2,2,1,-5,-16,17
1570180524144431,-1,0,-1,0,1,-2,-1,3
1570180524144431,0,-1,-1,-1,0,0,2,2
1570180524161382,-2,-3,-2,-2,1,0,5,3
1570180524161382,-5,-2,-1,0,-3,-1,-3,-13
1570180524163037,0,0,0,0,-2,0,-1,-2
1570180524163037,4,0,-2,-1,-2,-3,-2,10
1570180524184317,-2,-2,0,2,0,-2,-2,-9
1570180524184317,-3,-2,-1,0,-1,-1,4,-2
1570180524185323,0,1,0,0,0,0,0,-2
1570180524185323,-3,-1,0,-1,-2,-1,1,-4
1570180524198284,-1,0,-1,-1,-1,1,-4,-10
1570180524198284,-3,-1,-2,-1,0,0,5,3
1570180524205520,8,2,0,0,0,-1,0,12
1570180524205520,1,-2,-1,0,0,0,-1,1
1570180524221223,-2,0,-2,-2,-2,-1,0,-2
1570180524221223,3,0,1,0,0,2,3,6
1570180524223385,5,1,1,0,-1,-2,-11,18
1570180524223385,-1,-1,-2,-1,0,-2,0,1
1570180524244255,2,0,-2,0,1,1,-3,-2
1570180524244255,-6,-1,-1,0,-2,-2,-2,-15
1570180524245156,-4,-2,0,-1,-2,0,3,-12
1570180524245156,3,0,0,-3,0,0,0,3
1570180524258129,3,0,-1,0,0,0,-2,13
1570180524258129,-1,-2,-1,-2,-2,-1,0,1
1570180524265101,-4,-1,-1,-1,-1,-1,-2,-13
1570180524265101,-2,1,0,0,-2,0,-1,2
1570180524281059,-4,0,1,1,-2,-1,-2,-10
1570180524281059,-2,-1,-1,-1,0,0,-1,-3
1570180524283053,-5,-2,-2,1,0,-2,1,-8
1570180524283053,6,-1,-1,0,-2,1,1,4
1570180524303997,0,-1,-2,0,0,-3,0,-2
1570180524303997,1,1,0,1,1,0,4,13
1570180524304994,-1,-1,-1,-1,0,0,-1,0
1570180524304994,3,-1,1,0,-1,-2,-13,18
1570180524317207,0,-1,1,0,-1,-1,-1,-4
1570180524317207,0,-1,0,-1,0,1,0,-2
1570180524326938,-2,-1,-1,-2,-2,0,1,11
1570180524326938,-2,0,-1,1,0,0,3,-10
1570180524341897,-1,1,-2,1,-2,1,-1,0
1570180524341897,-1,1,-2,-1,0,1,-1,0
1570180524348272,-3,-1,-1,-2,-2,1,4,-2
1570180524348272,-2,-2,0,-1,1,0,-1,-4
1570180524363838,-4,1,0,-1,1,-2,-4,-5
1570180524363838,3,0,-1,0,-3,-1,1,-7
1570180524364835,1,-1,-1,0,0,-1,-1,-2
1570180524364835,-4,0,0,-3,-1,-2,-1,-6
1570180524377804,1,-1,-1,-2,-1,-1,0,0
1570180524377804,-2,-2,-2,-1,0,0,-3,2
1570180524386778,-3,0,-2,-1,0,1,-4,-1
1570180524386778,2,-1,1,0,-1,-1,0,1
1570180524400744,-2,-2,0,-1,0,-1,-1,-6
1570180524400744,-2,-2,-2,-2,-1,-2,-4,-5
1570180524402737,-1,-1,-1,1,0,0,1,-3
1570180524402737,-5,-2,-1,0,0,0,2,-5
1570180524423681,0,-1,-1,0,-1,0,0,1
1570180524423681,-2,-1,-1,0,-2,2,3,-6
1570180524425718,3,0,1,-1,-1,-2,1,6
1570180524425718,-8,-1,-1,-2,-2,-2,-5,-21
1570180524437640,3,0,-1,-2,1,1,2,3
1570180524437640,1,0,0,-1,-2,-2,-3,-1
1570180524446617,-6,-4,-4,-3,-3,-2,1,-15
1570180524446617,-1,-1,-2,0,1,-1,-2,-4
1570180524461627,0,-1,-2,-1,-1,0,-1,1
1570180524461627,-3,-1,-2,1,1,1,1,0
1570180524462575,0,0,0,1,0,-1,-1,-1
1570180524462575,1,1,-2,-1,0,0,4,9
1570180524483523,-9,-3,-2,-2,-1,-1,9,-14
1570180524483523,-2,-3,-1,-2,-3,1,4,-5
1570180524485513,3,0,-2,-3,-1,-1,3,7
1570180524485513,1,-1,-1,-2,-2,1,0,3
1570180524497480,0,0,0,-1,-2,-4,-2,1
1570180524497480,0,0,0,-2,-1,-2,-3,-5
1570180524512440,0,0,-1,1,-1,1,2,10
1570180524512440,-1,-1,-1,1,-1,-1,3,3
1570180524521509,0,0,-1,1,-2,0,-4,-12
1570180524521509,0,0,0,0,1,-1,-4,-2
1570180524523417,1,0,2,-1,1,0,-2,0
1570180524523417,0,0,-1,0,1,0,-2,-1
1570180524543360,-4,-2,-1,0,-1,0,0,6
1570180524543360,0,1,-1,1,0,-2,-3,3
1570180524545354,-1,1,-1,0,-2,-1,1,-11
1570180524545354,2,-2,-1,-1,0,0,-9,7
1570180524557321,2,0,-2,1,-1,-1,-3,0
1570180524557321,-1,0,0,-2,0,1,1,-1
1570180524566294,0,-2,1,-1,-1,-1,4,12
1570180524566294,-2,-1,1,-3,-2,1,4,-8
1570180524581260,0,0,0,-1,-1,0,-5,1
1570180524581260,0,-1,-1,1,-1,-1,-2,1
1570180524583351,-1,0,-1,0,1,0,-1,7
1570180524583351,-1,-2,-1,-1,0,-1,0,-8
1570180524604194,6,1,0,-1,-1,0,-1,16
1570180524604194,-4,-1,-1,-1,0,-2,1,-7
1570180524605301,-1,-2,-1,-2,0,0,-1,-4
1570180524605301,-5,-1,0,0,0,1,5,-6
1570180524617321,0,-2,-3,0,-2,-1,-2,-1
1570180524617321,1,-1,-1,-2,-1,-1,-1,-2
1570180524626143,-1,-1,-1,-1,-2,-1,-3,2
1570180524626143,-1,-1,-2,0,0,1,1,-1
1570180524649079,-1,1,0,-1,-1,-2,-2,-1
1570180524649079,-6,-2,-1,-1,0,1,12,-6
1570180524650073,1,0,1,0,1,-1,-3,8
1570180524650073,0,-1,-2,0,-1,-1,1,7
1570180524664038,-2,-1,0,-2,1,-2,-1,-9
1570180524664038,0,-1,-1,0,0,0,0,-1
1570180524665034,-3,0,-2,-1,-1,0,-1,-15
1570180524665034,0,1,0,0,-1,-1,0,1
1570180524676999,0,-1,-1,-2,1,-1,-1,2
1570180524676999,4,0,0,0,0,-1,-2,9
1570180524685977,-3,1,0,-1,-2,1,-3,-11
1570180524685977,-1,1,-1,1,-1,-1,-3,4
1570180524700942,-4,-1,-1,-1,0,0,-3,-3
1570180524700942,2,2,-1,0,-1,-1,-3,3
1570180524702934,1,0,-1,-1,-2,-3,1,5
1570180524702934,1,1,1,1,-1,-2,0,-3
1570180524723874,-1,-2,-2,0,0,0,0,4
1570180524723874,-4,-2,-1,-3,-3,-1,-7,-30
1570180524724873,6,1,-1,1,-1,-3,-12,11
1570180524724873,0,-1,-2,-2,-2,0,-1,0
1570180524745816,-2,0,0,0,-1,-1,2,-6
1570180524745816,-3,1,0,1,0,-1,3,2
1570180524747824,-3,-5,0,0,0,-3,2,-7
1570180524747824,-2,1,1,-1,0,-1,-2,-7
1570180524760785,0,-1,0,-1,0,-2,-2,7
1570180524760785,1,-1,-1,-1,0,-1,-1,5
1570180524767762,-6,0,-2,-1,-2,-1,-1,-12
1570180524767762,1,0,1,-2,0,-1,0,7
1570180524783728,-1,-1,-1,-1,-2,0,3,-4
1570180524783728,-6,0,1,1,1,-1,-4,-9
1570180524784714,10,2,-1,1,2,-2,-8,20
1570180524784714,0,-1,-1,-1,-3,-3,-4,-3
1570180524806703,-1,-2,-1,0,-1,0,-1,-2
1570180524806703,3,-1,-2,-1,-1,-2,1,7
1570180524807718,-3,-1,0,-1,0,-2,1,-9
1570180524807718,0,-2,-3,-2,1,0,3,0
1570180524821615,-1,0,0,-2,-1,-1,-3,1
1570180524821615,0,0,0,-1,-1,-1,0,13
1570180524822611,-2,-1,1,1,0,2,6,-3
1570180524822611,1,1,1,-2,0,-2,-3,0
1570180524842566,-2,-1,0,1,-1,-1,1,-3
1570180524842566,0,-1,-2,-3,0,0,-2,0
1570180524851606,-2,-2,-2,-2,0,-1,1,-7
1570180524851606,-4,0,-1,-1,-1,-1,0,-8
1570180524866547,2,0,-1,0,0,1,1,4
1570180524866547,-1,-1,0,1,-1,-1,0,-8
1570180524867492,0,0,0,0,1,0,1,5
1570180524867492,0,-2,-2,0,1,2,2,3
1570180524881453,-1,0,0,-1,0,-2,0,-2
1570180524881453,0,-1,-1,-1,0,0,2,7
1570180524887738,-8,-2,0,-2,-1,-1,-1,-9
1570180524887738,2,1,0,-2,0,-2,-1,0
1570180524903394,2,0,0,0,0,1,1,6
1570180524903394,-2,0,0,-1,1,0,-2,0
1570180524905391,-2,-1,0,1,0,-1,0,-3
1570180524905391,5,1,0,0,-1,-1,-16,13
1570180524926603,-2,-3,-3,-1,-1,-1,-1,-6
1570180524926603,1,1,-2,0,-1,0,-1,4
1570180524928330,1,0,-1,1,-1,1,4,4
1570180524928330,-1,-2,-1,-2,-2,0,3,-5
1570180524940334,0,0,-2,0,-2,-1,-1,-3
1570180524940334,1,-1,0,-2,-1,-1,-4,4
1570180524947277,-1,-1,-1,-3,1,-1,1,-3
1570180524947277,-4,0,0,0,-1,0,3,-4
1570180524963242,-2,1,0,-1,0,-2,-1,3
1570180524963242,0,-2,-1,0,1,0,4,11
1570180524966229,-1,-2,-1,-2,-2,1,-1,1
1570180524966229,4,-2,-2,-3,0,-3,0,6
1570180524986178,0,1,1,2,-1,-1,-3,0
1570180524986178,0,0,-1,0,0,-2,-2,-3
1570180524988169,1,1,0,-1,-1,-1,-4,0
1570180524988169,-1,0,-1,0,1,0,1,-1
1570180525000139,0,-2,-2,-2,0,0,1,-5
1570180525000139,-1,-1,-2,-2,-2,-2,-2,-2
1570180525007214,-4,-1,-1,0,-1,0,-1,-8
1570180525007214,-3,-1,-1,0,-2,-1,1,-5
1570180525024086,0,-2,-1,-1,0,0,-1,-2
1570180525024086,0,-1,-1,-1,0,-1,-1,-3
1570180525025070,-5,-4,-3,-2,0,-1,11,-16
1570180525025070,0,0,0,0,0,-2,-4,-2
1570180525046013,-2,0,-2,-3,-1,0,2,2
1570180525046013,-1,-1,1,1,0,0,-3,-3
1570180525048175,1,-2,-3,-1,-1,1,-3,-8
1570180525048175,0,0,0,-1,-2,-1,2,2
1570180525060973,0,-1,0,-1,-1,2,1,4
1570180525060973,0,0,-1,-1,0,1,3,11
1570180525066965,3,1,2,1,1,-1,-3,8
1570180525066965,0,0,-2,-2,-1,1,-1,3
1570180525084141,3,1,2,0,0,-1,-4,3
1570180525084141,0,0,-1,-1,-2,-1,1,-1
1570180525084911,0,-1,-2,0,-1,-1,-1,0
1570180525084911,-1,-1,-1,-1,0,-1,0,-4
1570180525105852,-3,0,-1,-1,1,0,1,-3
1570180525105852,1,0,-1,-1,0,-2,-2,-1
1570180525107848,-1,0,2,-2,-1,-1,-2,-2
1570180525107848,-1,-2,1,1,1,-1,-2,-7
1570180525120913,-2,-1,-1,-2,-1,-1,-3,-5
1570180525120913,-5,-1,-1,0,-2,2,13,-18
1570180525127893,4,1,-1,0,0,-3,-12,9
1570180525127893,-2,-2,-1,-2,0,0,3,0
1570180525144028,-1,0,-1,-1,0,-1,-1,-1
1570180525144028,-1,0,-3,0,-1,0,-1,-3
1570180525145778,0,0,-2,-1,0,0,5,13
1570180525145778,0,0,-1,-2,0,1,2,3
1570180525166691,1,-1,-2,0,-1,-1,-2,0
1570180525166691,2,-2,0,1,0,-1,-4,2
1570180525167689,-3,-1,-2,-2,0,-1,0,-7
1570180525167689,-4,2,0,3,-1,-1,-4,-2
1570180525180656,3,0,0,0,-2,0,2,8
1570180525180656,-4,-1,-1,-2,-2,-2,-6,-6
1570180525187642,1,-1,-2,0,-1,-1,1,3
1570180525187642,-2,-2,0,0,-2,-1,1,-2
1570180525203640,-3,-2,-3,-2,0,0,-1,-6
1570180525203640,-1,0,-2,-1,0,-1,-3,2
1570180525205590,2,-1,0,0,-1,-2,-2,2
1570180525205590,-3,-2,-3,-2,-1,0,-1,-3
1570180525226531,-3,-3,0,-1,-2,0,11,-11
1570180525226531,-1,0,-3,-3,-1,-1,-4,3
1570180525227529,0,0,1,0,0,0,2,13
1570180525227529,-1,0,-1,0,1,2,2,-3
1570180525239496,0,-3,-1,-1,0,0,1,8
1570180525239496,-1,-2,-2,-3,0,0,3,-2
1570180525248539,-2,-1,-1,0,-2,0,-2,-10
1570180525248539,1,-1,0,-2,0,-1,-3,-1
1570180525263694,0,2,-1,0,-1,0,-4,2
1570180525263694,1,-2,-3,-1,1,0,-1,0
1570180525265428,0,1,0,0,-1,-1,-5,-4
1570180525265428,0,-1,1,0,-2,0,0,1
1570180525286373,0,0,-2,0,-1,0,-2,-2
1570180525286373,-1,-1,2,2,-2,0,-1,2
1570180525287377,-3,0,-2,-1,0,0,-1,-9
1570180525287377,-3,-1,-2,-2,0,-1,1,-3
1570180525300334,1,-1,0,0,-1,0,-4,-4
1570180525300334,0,-1,-1,-1,1,-2,-1,0
1570180525308311,-6,-2,-1,-2,-3,-1,-1,-17
1570180525308311,1,1,0,-1,0,1,-1,0
1570180525324269,-7,-2,-1,1,1,0,7,-13
1570180525324269,4,1,0,0,-1,-4,-5,-1
1570180525325523,-1,-2,0,-1,0,0,-1,-4
1570180525325523,-3,-1,-1,-2,-2,-1,-2,-3
1570180525346211,0,-1,-2,0,-1,-1,0,-2
1570180525346211,-3,-2,1,-1,-1,-1,0,2
1570180525348206,-1,0,-1,0,-1,1,-1,-1
1570180525348206,2,-1,-2,0,-2,0,-2,0
1570180525360178,2,0,-1,-2,1,1,-4,8
1570180525360178,-7,-2,0,-1,0,0,-3,-6
1570180525369152,3,1,-1,0,0,0,0,7
1570180525369152,-2,-1,-1,-1,-1,0,1,1
1570180525384239,-2,0,-2,0,-1,-2,-4,0
1570180525384239,-2,1,0,0,-1,0,2,-1
1570180525385107,0,0,1,0,1,0,-1,4
1570180525385107,1,-1,0,-1,1,-1,-2,-8
1570180525406054,1,0,0,-1,0,-1,-1,4
1570180525406054,3,0,-2,-2,0,1,0,2
1570180525408047,-4,-1,0,-1,1,-1,-4,-16
1570180525408047,-3,-2,-2,0,0,-1,-1,1
1570180525420013,-2,-1,-1,-1,0,1,0,-1
1570180525420013,4,0,-1,0,-2,1,-1,2
1570180525428989,0,0,0,-2,-2,1,2,0
1570180525428989,1,-1,-1,1,-1,-1,2,-3
1570180525443956,5,0,-2,1,-1,-2,-12,12
1570180525443956,-1,1,-1,-1,-1,0,2,0
1570180525444946,1,1,0,-1,0,-4,-6,3
1570180525444946,-1,1,-1,-3,0,0,0,-1
1570180525465895,0,-2,0,-1,-2,-2,1,0
1570180525465895,-2,-1,0,0,0,-1,-1,4
1570180525468150,2,-1,-1,-1,-2,0,1,5
1570180525468150,-1,0,-1,0,-1,0,-1,3
1570180525479854,1,0,-1,-2,-1,-1,0,-3
1570180525479854,-1,-1,0,-1,-1,-1,-4,1
1570180525488835,-2,0,-3,-2,0,-1,4,-3
1570180525488835,2,0,-2,0,-1,-1,-1,6
1570180525504037,0,-1,-1,-1,-2,2,1,-1
1570180525504037,-1,-1,-1,-2,-1,1,1,-7
1570180525505793,0,-3,-1,-2,-1,0,0,7
1570180525505793,-1,-1,0,0,-1,-1,-1,-2
1570180525525735,-3,0,0,-1,-1,-3,-1,-4
1570180525525735,4,-1,0,0,-2,0,1,6
1570180525533716,-2,-2,-2,0,-2,-2,-2,-6
1570180525533716,-3,1,-2,-1,0,-1,0,6
1570180525540083,4,1,-1,-1,-1,-1,3,4
1570180525540083,-5,-1,-1,0,-2,1,1,-17
1570180525548670,4,0,-1,0,1,-2,-10,10
1570180525548670,-4,-3,1,-2,0,-1,-2,-5
1570180525563629,-3,-3,0,1,0,-1,1,-4
1570180525563629,-1,-1,-2,-1,-2,0,5,3
1570180525565626,-1,-1,-3,0,-1,1,5,-2
1570180525565626,1,2,0,2,-1,-4,-3,-2
1570180525586573,-2,0,-2,-1,1,0,-3,1
1570180525586573,0,-1,-1,0,0,-2,-2,1
1570180525588198,-3,-1,1,1,-1,1,3,-5
1570180525588198,-1,-1,-1,-1,-2,1,1,-1
1570180525599536,-2,0,1,1,-1,0,1,-6
1570180525599536,1,1,0,0,-1,-2,-5,7
1570180525608510,-1,-2,-1,-2,-2,-1,2,4
1570180525608510,0,-1,-3,-1,-1,0,1,-2
1570180525623478,0,-2,0,-3,-1,-1,-4,-6
1570180525623478,-2,-1,0,0,0,-1,-2,-3
1570180525625465,-1,0,0,0,0,-2,-1,-3
1570180525625465,0,-1,-1,-1,2,1,0,2
1570180525646593,-2,0,-1,-2,0,-1,-2,0
1570180525646593,0,-1,0,1,0,-1,1,0
1570180525647405,-1,-2,-1,0,-1,0,0,-7
1570180525647405,0,0,-2,2,-1,-2,-1,0
1570180525668355,0,0,-2,0,-1,0,-1,0
1570180525668355,0,-1,-1,-1,1,-2,-1,-1
1570180525670397,-3,-2,-1,-2,-2,0,8,-8
1570180525670397,-3,-1,2,0,-1,1,-5,-1
1570180525684312,2,-1,0,0,-2,-2,-1,0
1570180525684312,2,0,0,2,0,0,-2,4
1570180525685432,0,0,-2,-1,0,0,1,-1
1570180525685432,0,-2,-1,-2,0,-1,0,-2
1570180525706305,-1,-1,-1,-2,0,0,1,-1
