timestamp,emg1,emg2,emg3,emg4,emg5,emg6,emg7,emg8
1569408142683522.0,10.04396333236514,1.9010708151568454,1.0570086438693835,0.696939453579715,1.7788237615399305,0.5616471880554035,4.531941286480246,16.711641559272692
1569408142683522.0,8.034112566680689,2.0118081532544503,0.9131619545461709,0.7325776247029488,1.071277439405487,0.4645943771875367,3.2174960242043933,13.381753160179402
1569408142683522.0,7.661810727086453,1.9982829947284921,0.9260102896674911,0.7461197424097826,1.051618053511693,0.47097380669659794,3.183069202303679,13.098744800702974
1569408142683522.0,7.286677635850867,2.0259459054661035,0.9002030351170505,0.7691676305820694,0.8247882250364273,0.4671329782075474,2.752946948930913,12.292377355995047
1569408142687537.0,6.967562497599805,2.012010883249507,0.9182074497396947,0.7815520028473539,0.8273361018643978,0.4881476217453232,2.7469173576313413,12.018532319991627
1569408142687537.0,6.7955620803461985,2.0234320616674815,0.9107443117547781,0.8031551914838422,0.7056520092072608,0.5067549968251465,2.49684239301297,11.600570872348198
1569408142688503.0,6.512383411204854,2.0068042850931875,0.9230765228467156,0.820154857041411,0.7168164135545653,0.5338751767267186,2.4986509529911554,11.349810122478551
1569408142688503.0,6.4061878809656205,2.0081505337725893,0.9168692288231765,0.8408275993127768,0.6446627330457173,0.5544998549599746,2.333589487126081,11.079663734395675
1569408142693764.0,6.1483803578585,1.9931022020740776,0.9233945298774681,0.8554714695327497,0.6650020158360846,0.5752361014188502,2.3445472039357607,10.882476826998927
1569408142693764.0,6.060617407255933,1.9946947621201032,0.917311333123026,0.8734013114342171,0.6262075540572912,0.5934856558974563,2.2185662859516775,10.715204985281634
1569408142702742.0,5.812124099439539,1.982824660136284,0.9231129523781965,0.887371252115775,0.6504015809318848,0.6153288122904785,2.22787654770281,10.539174263973319
1569408142702742.0,5.735460541576898,1.9830518739761247,0.9209537209669563,0.9041456097142383,0.6253961396504835,0.6380694034566816,2.1311009575705087,10.39819672881898
1569408142710704.0,5.510349479144788,1.9697190218311877,0.9287721418350957,0.9176839591328548,0.6483618839497562,0.6609435439173409,2.1415202817057066,10.232515525869832
1569408142710704.0,5.448227352209688,1.9660983753083328,0.9309542336563371,0.9338474777747967,0.6373270524576268,0.6809193959428745,2.058264074440503,10.129598065768574
1569408142724437.0,5.2463194426210285,1.955252912449964,0.9417175359933251,0.9465209276091019,0.6643275547877072,0.7004049998387155,2.065088033985591,9.974552073141012
1569408142724437.0,5.197406551451055,1.957856253577334,0.9486186723152463,0.958823073427673,0.6648760120370939,0.7182093620609882,1.9943595052751903,9.875280731859128
1569408142733390.0,5.016875420909027,1.95546898015091,0.9634623309938745,0.9652750833464416,0.6946954240569587,0.7364063532379673,2.001729494957976,9.735370854324598
1569408142733390.0,4.972573409712267,1.9617783535171376,0.9746258335261164,0.9734199608533877,0.6990880060937807,0.7542186958877404,1.9424289869142255,9.678944169760486
1569408142755355.0,4.806782518906615,1.9610471861764607,0.9880280673994071,0.9801599580071211,0.7245944857251646,0.7714975705855914,1.9536760241914557,9.580800136042328
1569408142755355.0,4.775215871643835,1.968676765179071,0.9942735190798488,0.9873434540342783,0.730486100960159,0.7885022827141301,1.9103763592573428,9.551832219696871
1569408142756320.0,4.6373502703098834,1.9693239740937285,1.0051549920548495,0.9889009781819091,0.7547134539390954,0.8070419433676294,1.9307931877782767,9.47584619207197
1569408142756320.0,4.622660836034834,1.9738876277197752,1.0152992209347953,0.9915924978534578,0.7612023870343436,0.8256392930209338,1.90261567910865,9.480976139400058
1569408142802198.0,4.50876115150684,1.9707729551959026,1.0304063362580063,0.9935782947182569,0.7821426810998919,0.8440004320075242,1.9302019587998058,9.450308530936873
1569408142802198.0,4.5127860813049425,1.975770657767103,1.042692679436092,0.9992035776356699,0.7860283909655608,0.8615824954462329,1.9107995866863758,9.491494477514891
1569408142803471.0,4.42761613727285,1.9798067600374942,1.0580895642941515,1.0039657258043384,0.8051265468463763,0.8791901882670177,1.9374191008037236,9.458409547310431
1569408142803471.0,4.437342822366244,1.9898955277839165,1.0715006760616037,1.0102776626469256,0.8134307403236908,0.8954100113842438,1.92376607223141,9.45922918963857
1569408142803471.0,4.332607617872427,1.9922759898669253,1.090793819348296,1.0164610316160543,0.8352193436328815,0.9072485383669672,1.9546755060549572,9.3564614882379
1569408142803471.0,4.307130170012764,1.998298537695217,1.111050256908417,1.0273859498435638,0.8456696034409648,0.9123239787303079,1.9407763838662069,9.294604403039378
1569408142807311.0,4.1909219148256085,2.0000648218285026,1.1336616198147604,1.0383218590722914,0.8691357779329064,0.9170954393751447,1.959508457729914,9.15442792365966
1569408142807311.0,4.17247133572309,2.007799486858366,1.1510342012838732,1.051261566042793,0.8836329784908482,0.9230963949939275,1.9404838734468914,9.083491116729919
1569408142813375.0,4.069614516615947,2.0128776868388867,1.1687583852923262,1.0624011339313204,0.908719529215874,0.9287009847418602,1.9551098885565796,8.936831669345054
1569408142813375.0,4.042703071751467,2.0226585760723657,1.1855190030815597,1.0733693696521167,0.9211796142462165,0.9317495129506974,1.933426790330202,8.856046269682587
1569408142821345.0,3.9268449512949877,2.0264716485027976,1.2066489685217217,1.0820875406924102,0.9382308431848804,0.9323326700769221,1.9458370234946878,8.698970537164037
1569408142821345.0,3.8937688083854125,2.0323027841007963,1.2274733827745319,1.0924195604096223,0.942153336487086,0.9288748911468145,1.9282367499114137,8.6089025027322
1569408142830124.0,3.788751402074745,2.0349712429195934,1.2512472811764341,1.1018762656794492,0.9535539861363831,0.9233228765795748,1.9408460231835152,8.44967691149011
1569408142830124.0,3.767354260198262,2.042547432475582,1.269065243562012,1.1123282824667056,0.9530645511175895,0.9149729645878573,1.9227802983009485,8.364270991818051
1569408142844523.0,3.678539965028842,2.045435510945675,1.2823351863650985,1.1207818115052024,0.9609267218167137,0.9078343745597177,1.9364740092108292,8.198093661156944
1569408142844523.0,3.6629364922720855,2.048971074147897,1.2895734665330294,1.132118575539761,0.9605308731263825,0.9030318274109683,1.924706328261497,8.096101181449082
1569408142851106.0,3.5805880315951786,2.0437306066956107,1.2974362097989462,1.1424759077701647,0.969787258920847,0.9024668816911048,1.9353973187532474,7.937332726206264
1569408142851106.0,3.5703884871665186,2.0391562449103278,1.3019355660980003,1.1522160083401383,0.9690618684435955,0.90259774385386,1.9142331457863937,7.8631317758235175
1569408142875046.0,3.5001244181945954,2.0330960052821143,1.3076595331306051,1.1595253557550824,0.9752749765798523,0.9002941646220702,1.9172876263911107,7.73793910112237
1569408142875046.0,3.491814493846684,2.0327747973475976,1.309854206758762,1.1664140377169205,0.9746562306801636,0.8944232800148829,1.8964134885343227,7.695521943633207
1569408142876001.0,3.4194636496830184,2.028834403422024,1.3097232851912413,1.168960475196485,0.9848333353183909,0.8889408918653267,1.9031375760869929,7.594221363053372
1569408142876001.0,3.4086584033435616,2.0254943440538953,1.30134318714925,1.1685146634511718,0.985984976951403,0.8839709765050418,1.8892978107731502,7.54179658395496
1569408142889008.0,3.3463716368700274,2.0168499508000126,1.2931269813922088,1.1628802574823318,0.9922939735159705,0.880872167709949,1.8985274769489673,7.411856061036924
1569408142889008.0,3.3440573827734914,2.0102862835124946,1.2825849848543027,1.1590284843982077,0.9906238365426556,0.8777759999250737,1.8853516087094189,7.334787134935052
1569408142895992.0,3.2878402848797625,2.000109957662253,1.2739988958155846,1.1539777391802917,0.997176890612074,0.8744654804752311,1.894302039709437,7.197776199312185
1569408142895992.0,3.2846211573769106,1.9921021584550171,1.2649865688618305,1.1493292009038798,0.9934545244712868,0.8716442608673474,1.881316290564719,7.129915174947818
1569408142911955.0,3.2330973257250837,1.981013142633028,1.2613373122588105,1.1429558875679278,0.9929899322254072,0.8717886887612313,1.8880230881953786,7.016536533461881
1569408142911955.0,3.23071770476554,1.9737528732755405,1.2575885729372798,1.137802433956944,0.9819741537010297,0.8722579735348284,1.874141292683487,6.969979043269205
1569408142913900.0,3.175977261434559,1.9641458377955885,1.2570135951854802,1.1318317142116487,0.97876570144731,0.8728364684551685,1.878386794088012,6.8673178939055886
1569408142913900.0,3.166884374174266,1.9577505083732478,1.2546198365147128,1.128389712234326,0.970018599040571,0.8715566545688376,1.863141785286112,6.822512127029637
1569408142934874.0,3.1151931519551153,1.9485525602451443,1.253054636312371,1.124729960216048,0.9694497297320686,0.8688279180416755,1.8679733892930042,6.729102196492213
1569408142934874.0,3.112453523134653,1.9407667190490763,1.2485165710846073,1.1235393059128962,0.9604266207181226,0.8656294133064757,1.8572218203592152,6.686320868021826
1569408142935842.0,3.069937107356718,1.9293553693091412,1.2453740235722537,1.1187778024360848,0.9558459363226284,0.8638761667895923,1.8668415961057687,6.591479835168774
1569408142935842.0,3.065475299479514,1.9202870661448967,1.2390429831048124,1.11296545597519,0.9427748695031258,0.8639009647641865,1.8616346717728147,6.542989884858611
1569408142957783.0,3.0166925189399505,1.9098114698700726,1.2348070915555907,1.105293019465276,0.9361838346354618,0.8677402564930191,1.8778335619909496,6.434090852548669
1569408142957783.0,3.0087338640158356,1.901827764158303,1.227254441514207,1.098099929072085,0.9235481875722115,0.8741830695734245,1.8825693039943074,6.374094806535349
1569408142960774.0,2.9664520055607593,1.8896497812365256,1.2186374338734258,1.086878331785422,0.9191002640177378,0.8810268027685907,1.9036644409191121,6.270498715689681
1569408142960774.0,2.9602187875205948,1.8787663412862954,1.2071359499243481,1.0752680446253926,0.9089062358512044,0.8853429485084462,1.9051516452766293,6.211026993155153
1569408142980760.0,2.921015560813526,1.8664765308006497,1.1984105687005318,1.0635771171240964,0.9063860239286833,0.8883333167970822,1.9182339398240245,6.105399975221086
1569408142980760.0,2.9220992825609557,1.8573899864119858,1.18929781763585,1.0558251512010421,0.9000445673755115,0.8913606883688263,1.9141855112093897,6.049360211752885
1569408142981745.0,2.897420849685696,1.84425621784161,1.1834686344646101,1.0477193465891794,0.9013095309521922,0.8962884292833058,1.9235179428705564,5.957055825080803
1569408142981745.0,2.9089455874051873,1.832418347109351,1.176257069914461,1.0414047717888626,0.8977765972198536,0.9009010480245679,1.919880647303067,5.912353829001826
1569408142994685.0,2.8961108747181945,1.8203343072863325,1.1706069438615172,1.035467885764714,0.8993200881881366,0.9035327547852514,1.9355657852369383,5.835407431524646
1569408142994685.0,2.9163126129205184,1.8122898837018817,1.1609305363789264,1.032213101641637,0.8952789044806851,0.9043352390846885,1.9377038972979852,5.807166750490958
1569408142996709.0,2.9196346745780994,1.802731259554127,1.1514377455943716,1.0270726597180238,0.8967455452048708,0.9048717103583084,1.9482538671321585,5.751055560264798
1569408142996709.0,2.955260599492716,1.7954196582399784,1.1411397795949165,1.0215377599503503,0.8928199914632775,0.9045954430428439,1.9402926177764745,5.737914182420784
1569408143009644.0,2.9670462978350503,1.7859618348563244,1.1335642493184064,1.0147141018783847,0.8947957303798747,0.9050577072020822,1.943188282960186,5.703042667367627
1569408143009644.0,3.002385790886784,1.777990558496242,1.121646120684904,1.0104053878458905,0.8931802368891244,0.9050400203190956,1.9301273532941452,5.718787699961056
1569408143015651.0,3.0124281726099476,1.7675546045825115,1.10754110287556,1.007066969506845,0.8973377935155067,0.9028019683809322,1.9274038091556565,5.7143413831807095
1569408143015651.0,3.035304847633164,1.760126590408417,1.0896749303556768,1.0048683018016376,0.8955055993956991,0.8993951689008204,1.9111231879232775,5.739206361863069
1569408143032583.0,3.0303140422775776,1.7522332848448385,1.0731772930429868,0.9982163930459633,0.8964829723877846,0.8974732743694999,1.910129825831986,5.7387764001598915
1569408143032583.0,3.0454405928531743,1.7465046677476537,1.0548835036671775,0.9910462634847406,0.8940976988733155,0.8968101775551551,1.898915154685978,5.771390963235614
1569408143033581.0,3.0427847279573568,1.7390399410552784,1.0382819315908962,0.9836840895746898,0.8984297772406966,0.8970327362165115,1.9012748348132302,5.7806373418893795
1569408143033581.0,3.0634572294922213,1.735395369060384,1.0207913525534638,0.9780895264018666,0.9003108548914981,0.8966212678413618,1.8926021936889441,5.815534314753626
1569408143054560.0,3.0711744026696963,1.7323433093178278,1.007198685866083,0.9708425432907013,0.9076424269799289,0.8958588864333084,1.8967168956174696,5.832198160194029
1569408143054560.0,3.1037455039353214,1.73031344614322,0.9921442825453474,0.9647309559749664,0.910134774516454,0.8952135485422192,1.8904413430721936,5.8726727648443475
1569408143056519.0,3.124318976165547,1.7233220465088552,0.9759993261711921,0.9582312821671063,0.9149041102136403,0.8961952552314891,1.8996529086954037,5.87500177662991
1569408143056519.0,3.161512878220687,1.7163537290484137,0.9567180437335017,0.951464439863064,0.9146139017473603,0.898545544803009,1.9028035793410958,5.894338084096814
1569408143069483.0,3.1772983725746426,1.7074396942790537,0.940098007029458,0.9412012274630793,0.9176769070282476,0.9027366402142799,1.9191051130099832,5.8905662787556095
1569408143069483.0,3.201180605660544,1.7010325894527862,0.9241155881504027,0.9316705590950023,0.9185986804009311,0.9075430972846799,1.927211922481075,5.898925416092945
1569408143075469.0,3.20005152677317,1.6959856141864675,0.9116965382277419,0.9235810831631421,0.9260663763904154,0.91219726428975,1.9486972180361979,5.885775288809614
1569408143075469.0,3.2110454703165843,1.697030917010594,0.898701254848469,0.9195693235914634,0.9315213020196326,0.9172740832127991,1.9581181455429832,5.9041909754690485
1569408143092426.0,3.211990214327917,1.7008046247523254,0.8883925852138452,0.9183844941932738,0.9401949864358786,0.9242134180237929,1.9744570838861748,5.916110591265898
1569408143092426.0,3.2339611391499186,1.7092598374124275,0.8797832909205022,0.9216277765576469,0.9433050836108953,0.931897295820062,1.9780515255095668,5.958496659679908
1569408143094460.0,3.242530216619572,1.714642006336785,0.8749093587766703,0.9250394527019196,0.9481275618664192,0.9396295973456313,1.9870049733418376,5.982331807679898
1569408143094460.0,3.265549351367202,1.7157776066868113,0.8683212226884602,0.927494769002731,0.9486446839965191,0.9461439622738677,1.9822016058766199,6.01327489409273
1569408143115397.0,3.271279981896079,1.7120136238046162,0.8632822187530687,0.9274816914557988,0.9519395660633031,0.9516134139369454,1.9881915509302166,6.011935103410316
1569408143115397.0,3.2899291531706996,1.7115167576262735,0.8591566553344999,0.9284450141171307,0.9509305698361918,0.9558220201767951,1.9850213517733657,6.02547361713301
1569408143116359.0,3.299685694463615,1.7129905470043951,0.8576740884609612,0.9295377101865817,0.9533199341422215,0.9579098285937394,1.9918247839254912,6.029122762659225
1569408143116359.0,3.3235324969924216,1.717337048637747,0.8564601020565843,0.9304362628888856,0.9530037875247217,0.9593644773643175,1.9901437997493006,6.056950092170032
1569408143129323.0,3.3370386600264945,1.7201837731592422,0.857766569925685,0.9280994197813716,0.954804566534212,0.9625764656927422,1.997467915216766,6.072419367833219
1569408143129323.0,3.3693141902641335,1.7254501757512681,0.8595874067574866,0.9240674899244185,0.9517356202699843,0.9674573189373288,1.9937986550030076,6.105815243045476
1569408143136307.0,3.392458221378123,1.7306801870476334,0.8641172105437394,0.9195517438908823,0.9537839849447841,0.9743588908803489,2.000978246098131,6.115702298234168
1569408143136307.0,3.424570931507815,1.7372216863012575,0.8687777892224597,0.9185419461903382,0.9541069178794113,0.9832112957488698,2.0020545663752816,6.1342811108397965
1569408143153302.0,3.4442044488310413,1.7400572142381965,0.87382705391068,0.9206064804497526,0.9556202455281573,0.9925183334075348,2.0132039107978184,6.14334548429277
1569408143153302.0,3.478441058071424,1.7409053231702367,0.8787902700325111,0.9257000676429294,0.9524490769591366,0.998971762662207,2.014894105845677,6.1812428194482445
1569408143153302.0,3.498859348516964,1.7378193156752997,0.888046980986861,0.9304231775655921,0.9533709134444341,1.0034533771549108,2.0265220080719075,6.207969947534636
1569408143153302.0,3.5202953397009327,1.7350786186770357,0.9003135582986979,0.9356664410428854,0.9530360925257766,1.0087630478295249,2.0296622610376693,6.242094684124065
1569408143175202.0,3.5246899038432487,1.730034775978228,0.913802491781813,0.940226588857785,0.9559726071720622,1.014609502498488,2.0393301197243603,6.2639727189859755
1569408143175202.0,3.544954559952588,1.7235080952228816,0.9229058774208264,0.9452960398276435,0.9517755874241656,1.0178431869688565,2.037474620447648,6.312219411901739
1569408143176199.0,3.560250946702027,1.7122255407725229,0.9295880499692911,0.9488175744186192,0.9467931367950251,1.0165664366553528,2.041226062885924,6.349458479178519
1569408143176199.0,3.587626393552812,1.7014740213772972,0.9352832742755123,0.9514836996452459,0.9371245859223091,1.0098296788479992,2.029641718618605,6.397027015689252
1569408143188203.0,3.605035511686631,1.6906937517510507,0.9429374741761205,0.9532390952131747,0.9315076116149965,1.0013558708195165,2.0207242660739726,6.432940672635562
1569408143188203.0,3.6363301227822618,1.6821162046501366,0.9516886900056617,0.9543199018329754,0.9250340540127309,0.9939880328533277,2.0005573871672326,6.494346124013477
1569408143197144.0,3.664561650570314,1.6741356502235734,0.962452169874763,0.9531298160456305,0.9217364728731419,0.9883205950145713,1.9889537667512007,6.546179592505833
1569408143197144.0,3.7105820964325873,1.6708636868650666,0.9719423533665034,0.9526048164799337,0.913240929070072,0.9841131315632414,1.9691987623574425,6.60411922097159
1569408143214098.0,3.750119402507911,1.6676920779760684,0.9809816670718985,0.9520894095537932,0.9068484012415846,0.981727271759725,1.9596311010125482,6.6522421864377
1569408143214098.0,3.801687788559414,1.6656391281568597,0.9883065758669413,0.9525806044000968,0.8977846986338445,0.9819051405657868,1.9454949071068202,6.72911315292541
1569408143214098.0,3.8494963212423703,1.6626281826650382,0.9947293274990204,0.9534347493900801,0.8923129366631891,0.9852446060090653,1.945176433176067,6.808395035526493
1569408143214098.0,3.9097313779982272,1.659072290250822,1.000882267982996,0.9536202573028902,0.8845414070073486,0.9905555094177685,1.941372581125816,6.9127934762154855
1569408143235084.0,3.946255644936899,1.6501807394678236,1.0086323705313534,0.9524858313798462,0.8812513594783636,0.9982062420489559,1.9471245561093795,6.99431247205978
1569408143235084.0,3.9649353619013956,1.6405003313824587,1.015964243378618,0.9533137528716485,0.8778500623427802,1.0071544793092548,1.94246907368631,7.039800309743499
1569408143236040.0,3.9446650698010215,1.6305292690118423,1.023193731566802,0.9536893058784265,0.8774816908297629,1.0158479506883504,1.9446118643939259,7.0048456987172445
1569408143236040.0,3.9259094947090563,1.6228409610445675,1.0276204560651956,0.9529346026733063,0.8723771531106502,1.021025403805224,1.9390573248205916,6.953104462824734
1569408143248008.0,3.8985991477628605,1.6155081280747707,1.0317064258989166,0.9518370180104515,0.8699733707722118,1.0214318688667983,1.93926413270422,6.873343070379884
1569408143248008.0,3.8905577405441,1.6110260822240134,1.0366002396787823,0.9524327294354646,0.8671415855645913,1.0193010345151476,1.929171328585048,6.813177854095389
1569408143257981.0,3.8751953007128335,1.6060637726872302,1.0440827709206246,0.9550753729468867,0.8674672662734202,1.0170159939170573,1.9264806075949004,6.741822299048287
1569408143257981.0,3.874227752991742,1.6025159644040643,1.0525614413611002,0.961039461244514,0.8653700545962019,1.0143250774936126,1.9175727270762752,6.6940556835342715
1569408143271943.0,3.8652517875267276,1.5980377111112398,1.0611755963208198,0.9687256653181606,0.8668722708771559,1.0124510042037194,1.9187280441917076,6.638814335842716
1569408143271943.0,3.8752368934118104,1.5948381190452077,1.0690781460333347,0.9789767122511439,0.8666234819360377,1.0123146796184164,1.9104570181420801,6.616057554233627
1569408143273977.0,3.8850622663699697,1.591146717667558,1.0800440309196453,0.9903993597972517,0.8688195640439711,1.0134940105725143,1.905702464305789,6.589357077753577
1569408143273977.0,3.9183599191889145,1.5885232855822766,1.0912353036796476,1.0017391055910485,0.8702671617122459,1.014721746810439,1.8903821253183695,6.587410676563687
1569408143294886.0,3.9474675886806794,1.5810068823284604,1.0993302106242473,1.011010439391705,0.8740113296074519,1.0153386468634114,1.8822735035452267,6.570000647807672
1569408143294886.0,3.9939807686460655,1.569522347629016,1.102669627115506,1.019597302743205,0.8738480857342835,1.0137702397300075,1.8694906750053184,6.581533547751881
1569408143295879.0,4.037284412553523,1.5549469579504174,1.1049954910250979,1.0279294206335488,0.8756204571517933,1.0119939263354354,1.8670001596513923,6.587417182003216
1569408143295879.0,4.084975228785357,1.5422334249609468,1.1066055199035758,1.036913551565999,0.8755660082565067,1.0109936491875549,1.8593688602798994,6.604294422383345
1569408143307847.0,4.092171582021912,1.5300521616167762,1.1081635897064892,1.045174324386483,0.877591625862962,1.010108218296794,1.8613742088560772,6.571921354549222
1569408143307847.0,4.0896976886347325,1.5197345553537134,1.1071209162307694,1.051368882532167,0.87887809688581,1.010070361302904,1.8562708388471465,6.525960087615934
1569408143318816.0,4.07291637761036,1.509418716499446,1.1051039414489785,1.0543190038941215,0.8829446167982835,1.0096211879428623,1.8551752852394345,6.447506115722999
1569408143318816.0,4.070552951194156,1.5033894603544995,1.1018876619573432,1.0555851353237635,0.8847500947064648,1.0049598939606237,1.8444771889587284,6.385721638507737
1569408143331819.0,4.050956309239608,1.5003547000119568,1.0987035077884,1.05420824478188,0.8879584250054028,0.9985233782948638,1.840906200503872,6.3012047277777254
1569408143331819.0,4.040317875816331,1.4997796211349117,1.0948925513770704,1.0525677639866005,0.888691784495771,0.9941793085791308,1.828362292476528,6.232718513705411
1569408143333778.0,4.016026996981348,1.4977864606081808,1.093941362397374,1.0513324927015566,0.8906431719899294,0.9927886662505175,1.8177514673584272,6.143316923334386
1569408143333778.0,4.006727096706543,1.496522691068007,1.0957842248776783,1.0502437457704243,0.8900127249029784,0.9932053119323392,1.7975637798175848,6.077587688186752
1569408143356757.0,3.986651530587387,1.4947331160765611,1.1006236328059242,1.0503736003837318,0.8903134967542988,0.9958116647996301,1.785684290046505,5.999551947189413
1569408143356757.0,3.979909642893528,1.4958962150324926,1.1047683205079741,1.0534085740147026,0.8886085236461406,0.9995197802912734,1.7665843935018986,5.945704747284585
1569408143356757.0,3.951046711543253,1.4962496242275567,1.1055753548439053,1.0548203489735657,0.8898884197613091,1.0035334828264624,1.752652605705117,5.883466172796253
1569408143356757.0,3.929678631676423,1.4948111638299713,1.1017195692589838,1.0544394346617327,0.8901012336288259,1.0075831535240127,1.7306374707553234,5.848656007018609
1569408143368686.0,3.8946557834873254,1.4918212921434364,1.0981445577725228,1.0534132094324002,0.8916828464312601,1.0109559440706817,1.7140881067344276,5.803223570058023
1569408143368686.0,3.874301965174555,1.493492781790544,1.095864148832588,1.0525710917430025,0.8909550799355869,1.0131235488135055,1.6893240809039616,5.788896770601727
1569408143377661.0,3.839887090987749,1.496226860280489,1.094568998619844,1.052113077208251,0.8913355558455187,1.0163525743452777,1.671518166962811,5.772229909256576
1569408143377661.0,3.8169772053785693,1.4941369695471287,1.089045407403435,1.0532635395637953,0.8893162287709887,1.0198434596062984,1.6495924266438604,5.78004134746495
1569408143392619.0,3.7784666152534374,1.4850729266489857,1.0810674162915042,1.0533981787460707,0.8883705329340515,1.0207166468069868,1.6380002778036482,5.779234195441839
1569408143392619.0,3.756164877670189,1.4759845196630776,1.0702342431316398,1.0526713702018105,0.8841031422661149,1.0190933983732384,1.6222582197639939,5.8004183594028635
1569408143393617.0,3.7224070623765706,1.4656025261827363,1.0581042922496662,1.0522409828008354,0.8791659880189016,1.0181329282751193,1.6118603852894833,5.805340475752106
1569408143393617.0,3.707977944217595,1.456408168525657,1.0453800673986426,1.0533019635089165,0.871810368686995,1.0188562974610114,1.5933339470773114,5.819593904242204
1569408143414562.0,3.6836590024557925,1.4480525495524301,1.0337750786425075,1.05418972206786,0.8666274532806756,1.021778450588351,1.5817506892525013,5.809165745961363
1569408143414562.0,3.6702864989710586,1.4416910257312994,1.022806398880338,1.0555324084861926,0.8606200996908269,1.0259309128416023,1.5670671453622216,5.806126123667231
1569408143416560.0,3.643370058769414,1.4361945820818796,1.0155306221544875,1.0566229992243703,0.8569500825267518,1.0296855003304992,1.5628928387485257,5.787488988674168
1569408143416560.0,3.6373977227687875,1.4349529660689138,1.0107800491651817,1.0581748648348748,0.8535137234734458,1.0305604892340101,1.5582629228433835,5.786691690620261
1569408143428525.0,3.6235319947074633,1.435621212618506,1.0082847611350236,1.0594901935755066,0.8547745966790322,1.0291656384120522,1.5634642587639203,5.7648206428750415
1569408143428525.0,3.6238612063285824,1.4388094141659,1.0054314518317837,1.0613049353825965,0.8576862783464209,1.0291152165444242,1.5639547470964354,5.749490918873444
1569408143437542.0,3.612645705655581,1.4420969901835088,1.0032063975533094,1.0629328511569653,0.8622579027311289,1.0323125971110236,1.5719902449192482,5.724474361459629
1569408143437542.0,3.6130620583208928,1.4451322816638317,1.0002595739710536,1.0652166537078938,0.8630831652361731,1.0358515629649057,1.5774299194509662,5.720544484253242
1569408143452461.0,3.5904684249174026,1.4464561539258693,0.9980605668119419,1.0665527743997354,0.8637749221494899,1.038651520486871,1.5846360212980353,5.693316742366163
1569408143452461.0,3.5749070789392237,1.4499508731518755,0.9937381185517798,1.0673045396828549,0.8649447200304781,1.0413994604606356,1.579416701861327,5.675516908985222
1569408143453459.0,3.547429432370346,1.4531072663613185,0.9860808893118097,1.0678591727568179,0.8706341349624991,1.044334212020608,1.5763603389979526,5.648114144330457
1569408143453459.0,3.5342451728003046,1.4566242136591085,0.9754678386526905,1.0682558602283019,0.8781976331215463,1.0482650778060294,1.5695140578007547,5.641467167018571
1569408143475434.0,3.5080463873982106,1.459536023860543,0.9653621291220783,1.066672277197301,0.8879667751246311,1.0527357918092655,1.570375142772087,5.620810419407598
1569408143475434.0,3.4939812906399386,1.4617586337925847,0.9558122826386076,1.0626043825501335,0.8967263163290367,1.0563231607887134,1.565219901022817,5.61028984385279
1569408143476398.0,3.4657035592120646,1.4596710853020127,0.9499247961133546,1.0544209604984525,0.9053984242026147,1.060270167283455,1.5643111389117932,5.58279130333394
1569408143476398.0,3.45262495368271,1.4553460306018309,0.9461267945644101,1.045029749248412,0.9115586532912604,1.063466822017741,1.5600703407343675,5.563119506755934
1569408143488366.0,3.428761854498369,1.4480069601721341,0.9415741959564676,1.0368734229197487,0.9190578112611943,1.0659880756850868,1.5638677001287122,5.520241606876467
1569408143488366.0,3.416482594301492,1.4397205725193678,0.9331271262844825,1.0324596650312339,0.92632119618248,1.067617696843646,1.56541367569287,5.484527383336987
1569408143505319.0,3.390389228982576,1.4301597177684366,0.924120127280254,1.0308481100688693,0.9352277395635352,1.06836234363661,1.571882171863097,5.427779238304975
1569408143505319.0,3.374742088714195,1.421206332334124,0.9147325407561879,1.030914982587848,0.9443370816771107,1.0699107209462018,1.5738044380739717,5.384889133203284
1569408143512299.0,3.3399517834228782,1.4119849553616515,0.9070834935780305,1.0315785799183455,0.9526095345382929,1.0729624090536865,1.5811401384551962,5.334797821499933
1569408143512299.0,3.3137252557067383,1.4058261948825512,0.9017737987086937,1.0347155943699873,0.9574713336664393,1.0753722024912176,1.5835855964279493,5.3059848637799005
1569408143513297.0,3.276290070024452,1.4029001112125725,0.8997397464697021,1.0390788176224992,0.9635814457262717,1.077006047950183,1.58982128925977,5.2714592712864
1569408143513297.0,3.2550752074827187,1.4054649374736061,0.8991298794305218,1.044286788161087,0.9705900001993347,1.0796305482961799,1.5902059197453744,5.256054837153581
1569408143534242.0,3.222431305786994,1.4091765497214297,0.9002689079328859,1.049625098408492,0.9799342932050575,1.0830129747901474,1.594595260603017,5.22901010240903
1569408143534242.0,3.1994756337496484,1.4127080209565521,0.899850812131986,1.0560077254237743,0.9861118969196069,1.084718145359368,1.5972240704794232,5.220832719756392
1569408143536235.0,3.1632400792479434,1.4140193871254467,0.8986786849144892,1.0612852134770279,0.9879671541347792,1.0855520351327517,1.6065119958980891,5.208156356809133
1569408143536235.0,3.1401626375706324,1.412129335993705,0.8978614369891098,1.0627832364392111,0.986610927508327,1.0872712980099226,1.612323581305313,5.196069275226937
1569408143548242.0,3.107806300685549,1.4053195666595415,0.8986155288924967,1.058617777467814,0.9882379036121423,1.0906737627418148,1.6243898432834563,5.154606662862796
1569408143548242.0,3.0906091364331547,1.3984463331759538,0.9009936828613374,1.051359237129935,0.9918943484544861,1.0937236447726042,1.6334427608545554,5.124834086682209
1569408143557181.0,3.0639261898832837,1.3907093128092765,0.9076227303589147,1.0441048944829097,0.9969486620697211,1.0955023602738332,1.6457116748425733,5.095525389893077
1569408143557181.0,3.0493440812090715,1.3829706718929793,0.9167186907467104,1.0404085114526838,0.9990650421691195,1.0954380348562498,1.6545557433510496,5.087144869887056
1569408143572176.0,3.0270362555950197,1.3751177199750033,0.9259976224789498,1.0395973849232447,1.0015191485937303,1.0944915248488005,1.668732323726719,5.075743373920136
1569408143572176.0,3.0235395295086986,1.368871131155987,0.9337899164676837,1.040730461898222,1.004855243174431,1.0943803300155681,1.6768445808979326,5.084463218879121
1569408143578165.0,3.021350305410565,1.3617651298204332,0.9428526076859315,1.042220403767921,1.0096169510903104,1.0962478426023385,1.68703510615353,5.090923881922881
1569408143578165.0,3.0341509951093175,1.3547645913503041,0.9526264938908283,1.042985626109382,1.0106548994015285,1.0962189776686788,1.6937233304984345,5.113172027847629
1569408143595080.0,3.029157442335619,1.3462498719011355,0.9590555287501492,1.039608521693919,1.0098215361916183,1.092529245709734,1.7013566244621894,5.119774494720775
1569408143595080.0,3.02564027521105,1.3371442369797633,0.9593241793400884,1.0335805276924113,1.009002122013765,1.0873839653595543,1.6999564352961085,5.118680413568662
1569408143596076.0,3.013681687718679,1.326185558467624,0.9576184858119612,1.0270801371452158,1.011860719762831,1.0814518752243496,1.7004534059615777,5.105165459707441
1569408143596076.0,3.0169015389039036,1.3161873586857957,0.9534793259195024,1.0224081483855063,1.0148825384801126,1.0740667951414382,1.6974110761598855,5.1061064169733195
1569408143617059.0,3.015311813390304,1.3059590841287976,0.9479552608507416,1.018519136949118,1.0195928835270203,1.0665334793641539,1.7009857639882744,5.101157978930926
1569408143617059.0,3.0244020456033547,1.2954775743685014,0.9433337516508179,1.0142497185333048,1.0253205953118243,1.0585976076913115,1.7039914129936955,5.11235128038734
1569408143619014.0,3.023650799039483,1.2831377137795323,0.9417534330476767,1.007237425903826,1.0339769811032542,1.05060539826227,1.7135019129796212,5.1277794649256805
1569408143619014.0,3.031415302483951,1.2716186540106897,0.9401630166797194,0.9994601529752609,1.0450567811881293,1.0421674830793008,1.7195685376117145,5.162415462222673
1569408143631980.0,3.0333591122834473,1.259376885053366,0.9365902879119697,0.9916502240554608,1.0600149689743077,1.0336160980924123,1.7258555524503263,5.194775789893525
1569408143631980.0,3.0439675557040213,1.2466334481146468,0.931224387472726,0.9833578867168097,1.0743272764444987,1.02452221384012,1.7236953161774613,5.234126148882586
1569408143633975.0,3.045722473681025,1.2334354968245236,0.9263575822340453,0.9754415836602812,1.0895473759081284,1.015191475550154,1.7238591516674497,5.256679334269778
1569408143633975.0,3.0568331817758385,1.2228406316096743,0.9200033764976433,0.9703224210475734,1.103581084742502,1.0051516499851278,1.7181445314867048,5.267434023230002
1569408143654919.0,3.062994024587933,1.2123945354891885,0.9145278448665486,0.9657143409599463,1.1144992547474137,0.994565564309922,1.714299728513627,5.257958144389309
1569408143654919.0,3.0781685410839073,1.2022263310362877,0.9100691367867833,0.9616841332274709,1.1175636889920704,0.9837165775693574,1.706072241479609,5.260069725136593
1569408143655916.0,3.082625719543833,1.1918149650545267,0.9052060156636842,0.9596299296231662,1.115421817072717,0.9742730769301023,1.700252912277622,5.262631638903097
1569408143655916.0,3.0960803466430966,1.1827926595151506,0.9002997183615365,0.9608733143656462,1.1093028045329438,0.9651835647708213,1.690348567031276,5.273438053504781
1569408143676861.0,3.1026927559910686,1.1742559504537908,0.8988735138123626,0.9631234059218092,1.1037821496103883,0.9563301222580174,1.685326314827137,5.2737725610496415
1569408143676861.0,3.108931654989478,1.1669072567574788,0.8992317652889711,0.9655685013352098,1.0960689987893222,0.9493210378966193,1.6727573913228777,5.270295983551111
1569408143678855.0,3.10369640448231,1.1583789929691248,0.8996420142286041,0.9682465997546736,1.0869881537168924,0.9453951705990056,1.659637166060117,5.258357843311668
1569408143678855.0,3.110334146972191,1.1513516493132618,0.9008582813145916,0.973819488881435,1.0752383755770178,0.9426963284476231,1.6431147519526874,5.26304356640523
1569408143691820.0,3.112283591461225,1.1460506095944973,0.9045920566144818,0.9824790145593258,1.066367716772293,0.9393958188505399,1.6332791943559513,5.276643564502853
1569408143691820.0,3.1202353591695213,1.1430858376153423,0.9072627487071239,0.9931209891231527,1.0590277399341044,0.9343138832506866,1.6213865354715211,5.3119654978382345
1569408143693818.0,3.122099046438356,1.141450724306391,0.9087608663704928,1.003248787033072,1.0541364110855358,0.9295665118507309,1.6143828538726548,5.351541891815208
1569408143693818.0,3.134841310202124,1.1416985459431823,0.9091430871857222,1.0120373378946397,1.048041813809119,0.925304559508499,1.6059717175346937,5.4052811601954325
1569408143714759.0,3.144719783722415,1.1417304498612717,0.9100549328081706,1.0186978503342305,1.0428431015489503,0.9209942138064682,1.6039706867306265,5.457039632357413
1569408143714759.0,3.1625422810492387,1.144351309469364,0.9112660595746388,1.0243303848070344,1.036794182428133,0.9151516945735967,1.602586144983827,5.505884137886784
1569408143716753.0,3.1692753514068217,1.1501479173553806,0.9123648896849619,1.0305133653740406,1.0337008805485444,0.9074188242196853,1.6101993920174236,5.545726829028909
1569408143716753.0,3.1746899684231393,1.1593705211367316,0.9135634473291206,1.0382394587590018,1.030689699459288,0.8990475324680051,1.6159922708430745,5.585901135957743
1569408143736731.0,3.1676488998128214,1.168929655949031,0.9150371370334781,1.0462800120073892,1.0292487805168467,0.891558644122685,1.622305616912235,5.6132388937473365
1569408143736731.0,3.1696324306780332,1.1786271893928892,0.9145659438982416,1.0543655040460447,1.0258874296303513,0.8857970580087701,1.6236813087084956,5.651255768153513
1569408143738694.0,3.1718134843739123,1.1886052459494947,0.9144859412819042,1.0599944776720525,1.0223830394135052,0.8827954990676811,1.6314511697261393,5.702615098906439
1569408143738694.0,3.1890082400139006,1.198504957937795,0.914713584534785,1.0630229588116515,1.0180848779556653,0.8805780000963821,1.6411175949366321,5.77477713515154
1569408143751693.0,3.2098875072636357,1.2055259844006139,0.9149368835231574,1.0647441017651282,1.0163039311337874,0.8780560203235729,1.6594236568653287,5.8529471018459045
1569408143751693.0,3.2437378744066816,1.2132085629093756,0.9143665899935182,1.0661667585021437,1.0130700688443188,0.875517323499747,1.6810881748743784,5.9405596683851325
1569408143758673.0,3.2618549688793697,1.2213686295585529,0.9136253902125013,1.064887662623324,1.008740310503038,0.8745324972456339,1.708196267352974,6.010729893458304
1569408143758673.0,3.2686761669119604,1.2284304104277928,0.9120363915942185,1.0597292834544274,0.998797415292047,0.874183111287151,1.726038454411274,6.060598519137055
1569408143782582.0,3.263222807775125,1.2339151459082347,0.9102231241960084,1.0509664601721223,0.9863782434715176,0.8736340112063299,1.7401747875851479,6.100507795802478
1569408143782582.0,3.2703869711413485,1.241664626531344,0.9076261973183201,1.0428170301412176,0.9716923910149489,0.8723033345234816,1.7467114014489948,6.158182920283735
1569408143783574.0,3.270593516000847,1.25054242528454,0.9039587860310473,1.0375564644263089,0.9581177529990726,0.8712734141834427,1.751890742580382,6.20722213508764
1569408143783574.0,3.2716476202108318,1.2591982454358879,0.897989575294026,1.0359097279660008,0.941835986232312,0.8715589271852577,1.7497031487067443,6.240801492180579
1569408143797537.0,3.263646740543484,1.2660523002887492,0.8913218598426648,1.0347783874418595,0.9257400053690906,0.8730869837240555,1.7503768298537772,6.2542228499193655
1569408143797537.0,3.254392468068832,1.2715212764824293,0.8822440416662863,1.0332638799993956,0.9091886669645638,0.8727274286784523,1.7468546890308305,6.257463960804055
1569408143798534.0,3.2206102970425152,1.2749980014386297,0.871405892831884,1.0307976811969521,0.8956013741730864,0.8688520349589453,1.7401999252981966,6.225096290383866
1569408143798534.0,3.186454094645266,1.2786895453725267,0.860987679353216,1.02670720400972,0.8814318797672371,0.8625714386689838,1.7232958551353292,6.181384013036255
1569408143819501.0,3.148006193000121,1.2814461493076825,0.8533492379359705,1.020963239132899,0.8698562458177775,0.8550189304004256,1.7082018189181367,6.129939325016325
1569408143819501.0,3.1223675865610816,1.2826075967130879,0.8484608672325374,1.0144069692870432,0.8599395710452246,0.8478058295383618,1.6920863110803694,6.090673494259398
1569408143821474.0,3.095540118323403,1.2810986368635973,0.8466207363040712,1.0052520434912642,0.8537462844206559,0.842076577254702,1.6833882145707366,6.04187400659607
1569408143821474.0,3.0788297061933956,1.279171988839089,0.8453020361875337,0.9933977527198627,0.8478173295571096,0.8345337442785329,1.6732707548022905,5.993278859741562
1569408143833443.0,3.0516665242242875,1.278568530057829,0.8445835189722164,0.9794153547615255,0.8452028722175454,0.8254070661411717,1.6640005180704025,5.932498451097127
1569408143833443.0,3.028407929409911,1.2812963664112405,0.8450220102766915,0.9661165812677885,0.8444356702521494,0.8174401548662243,1.6489310804184945,5.876981254285969
1569408143842418.0,2.9977930420058647,1.2839765303439719,0.8465981717943197,0.9532736273362931,0.8458544481982431,0.811578426100126,1.6382276140096994,5.807223212227606
1569408143842418.0,2.9723777413044847,1.2862612553510335,0.8476267868977366,0.9416223451196214,0.8461024185290718,0.8065911544363215,1.626477153828082,5.744137292242232
1569408143857409.0,2.9372661062379493,1.2880756938078213,0.8485996991284981,0.9305334648671284,0.8468111864677581,0.803570451328028,1.6205910462662088,5.680193833194336
1569408143857409.0,2.911963200733956,1.2906843913768107,0.8481899461880595,0.9216174894087729,0.8459563180834271,0.8036864708252709,1.6122602436008502,5.63506124347039
1569408143858408.0,2.885594701345135,1.2925063332193905,0.8446700980477634,0.9148876811528115,0.8451171612060709,0.806689368280285,1.6070969062289184,5.594606565411597
1569408143858408.0,2.870691245963096,1.2934262510379126,0.8363915750925127,0.9100761800671482,0.8432399546232422,0.8105287272355608,1.59936701154461,5.57166625183871
1569408143879320.0,2.856799661406297,1.2943855815211138,0.8259903691773928,0.9066878282763343,0.8432156267694926,0.8132086333653189,1.595939805297102,5.546570936059988
1569408143879320.0,2.8574124859454058,1.2967223514097335,0.8160573651132856,0.9045117234202403,0.843508174761255,0.8138658939786334,1.590646706960948,5.537850065908391
1569408143881315.0,2.8604668926014463,1.2970693939213074,0.8087736665595561,0.9017747473290391,0.8467927375579755,0.8155270954049182,1.5895714233666807,5.538149310116081
1569408143881315.0,2.8760734488406308,1.2965991576606768,0.8041867974098919,0.8986035280420623,0.8521108680399067,0.8187176362171689,1.584834262848121,5.558665881069664
1569408143893284.0,2.8915601314556145,1.2973232835105672,0.8023392760396045,0.8950733688432878,0.8591879274126364,0.8207048160335226,1.5831556261351034,5.580409004524561
1569408143893284.0,2.9150329536869113,1.299575037747739,0.800775290087974,0.8937623426737742,0.8653710851430597,0.8207298960339116,1.5786193308467094,5.613230455021074
1569408143902257.0,2.9317481262905205,1.3007539161429076,0.7994793446043428,0.8948439815471486,0.8718871034533386,0.820884367897442,1.5773483539549449,5.634273058847962
1569408143902257.0,2.9511230482172026,1.3023183172682369,0.7990137098283431,0.8978317668129797,0.8773310839617625,0.8213959417160739,1.5737141864245097,5.6528111661648595
1569408143917220.0,2.962262758447813,1.3034861182683464,0.799850430734486,0.9032581514315644,0.882936844757863,0.820562399682488,1.5722515477834043,5.662269011396497
1569408143917220.0,2.9727248392611196,1.3059847928217643,0.8026316561727981,0.9121472522077751,0.8882782260140117,0.8168207147012393,1.565290247573722,5.6683950825695
1569408143918216.0,2.9708352129865743,1.3099881511377411,0.8081275010992548,0.9224802271752557,0.8961082237030509,0.8107859472448773,1.560165873191859,5.645184577547315
1569408143918216.0,2.9662016803670403,1.3163500530291061,0.8151422478876131,0.9327958945613448,0.9027773787267451,0.8051522670486081,1.5523307660613832,5.609919444758502
1569408143939159.0,2.9529026943758634,1.3225508480733585,0.8231543226284143,0.9395999774945923,0.906068997004279,0.8007163583672028,1.5476316572643267,5.562103191617956
1569408143939159.0,2.945594793613716,1.3250219888779788,0.8298182629416205,0.9411865017996023,0.9048895131216911,0.7951452044694939,1.5395568537325597,5.521663560774032
1569408143941154.0,2.9326159754475998,1.3222973297638414,0.8340763073897187,0.9401838079621577,0.9020769268603441,0.7901841120001145,1.534820939323665,5.4830938099685635
1569408143941154.0,2.919451577013374,1.3164005255204423,0.8361964515735746,0.9404761296549976,0.8991367261105637,0.7880572598425607,1.5255828738117814,5.462182772680419
1569408143953122.0,2.9011245875046336,1.3076027253989162,0.8383971036946731,0.9412851755883305,0.9000584503748273,0.788410875639768,1.5161623498823869,5.441666637787093
1569408143953122.0,2.892951150978728,1.2993537297455955,0.8415851174557426,0.9419116180491093,0.9023880846515209,0.7891595638594698,1.502478358071263,5.435065863228572
1569408143962098.0,2.8868982084315027,1.2910231277816628,0.8462953418790184,0.9427992653366992,0.9043192616941487,0.7891875697983589,1.4921508987427563,5.4288317333288365
1569408143962098.0,2.8932910275802954,1.2829962820350778,0.8513655992683498,0.9448369829126682,0.9040511168818868,0.789077989848542,1.4768328739964265,5.43540951797377
1569408143977057.0,2.904047217006952,1.2760491328027428,0.8569283137936037,0.9456212769759973,0.9036477787637102,0.7910009961806884,1.462853744723667,5.444542088067374
1569408143977057.0,2.9225656066323364,1.270556978075699,0.8638412404887165,0.9461091321486438,0.9027698663398296,0.7962024275286613,1.4468119241473296,5.461978573097494
1569408143979079.0,2.9396672632350414,1.2629960354821685,0.8716100859389022,0.9463601384282163,0.9038187783431055,0.8032309980174557,1.4351016229812663,5.482217551976099
1569408143979079.0,2.963316732677913,1.2536728137306894,0.8789338695743396,0.944417170016698,0.9058799189771787,0.8079500179249471,1.4197663493989725,5.519814436863462
1569408143999998.0,2.9786458733981735,1.24232736806626,0.8860222711332648,0.9420815423375759,0.9094029700721952,0.8089392826065314,1.4060355930883413,5.554861101700578
1569408143999998.0,2.9883734185301534,1.2300874095351768,0.8926333340770646,0.9427468904126952,0.9121275387289637,0.8087425426774134,1.3901547844087108,5.590652068566844
1569408144000994.0,2.994429205232841,1.218104719191568,0.8990946411303021,0.9429159256363251,0.9151936946554065,0.8097356187749384,1.3782840438567001,5.619508874460849
1569408144000994.0,3.011481784549668,1.2086103999056936,0.9042192886527725,0.9390896913554537,0.9163637989383802,0.81010244713648,1.3657043280372272,5.654455797120521
1569408144013002.0,3.0344510257266633,1.200350143530961,0.907997779071423,0.932492128618381,0.9173401923802684,0.8076734276119059,1.3596411084545144,5.692210081784394
1569408144013002.0,3.0689198803099482,1.1944117361510669,0.9122443394943065,0.9278635905533509,0.9191804057121817,0.8039248256217921,1.3557335487634683,5.75005868763188
1569408144021938.0,3.110705206904018,1.189952763055546,0.9157086866906524,0.9249497493445749,0.9224733908717476,0.8020261278628237,1.3602711281305635,5.823679966883297
1569408144021938.0,3.164733062575295,1.18604162285891,0.9156219643859501,0.9213336695457639,0.9250901700390938,0.8031658252276221,1.368255903833716,5.917052563518171
1569408144036918.0,3.214754103725779,1.1798396074867208,0.9148299429145899,0.9149697018441723,0.9271544689450572,0.8076604305141217,1.379397688836043,5.98935695467375
1569408144036918.0,3.2550155270558987,1.1715765403270626,0.9143360497763247,0.9065720372228009,0.9270865034536435,0.8145844950996999,1.3835434612307957,6.021446049500612
1569408144038895.0,3.2822420041496154,1.161740996076709,0.9145045619637706,0.8974551438310016,0.927953048568151,0.8230440765071062,1.389112388026542,6.026126324485256
1569408144038895.0,3.3097238140054883,1.1525200181477795,0.9153426238107241,0.8891862799232337,0.9289823598755946,0.8320750754680396,1.3956977453003705,6.043071092586044
1569408144059837.0,3.335520285452551,1.1433810221840552,0.9152683989946581,0.8825136788928167,0.9304096207097678,0.838771063604163,1.404935040874776,6.06483220138333
1569408144059837.0,3.3634405325422154,1.1359005136439777,0.9136818424082369,0.878370347490117,0.9309799498361547,0.8427662911933999,1.4106254591743213,6.091354100350426
1569408144060833.0,3.383198723151636,1.131191340869545,0.9109918151949616,0.8754961906782064,0.9319930503976843,0.8471215288352792,1.4200026627004374,6.098625233671685
1569408144060833.0,3.402072230513284,1.1305211189752453,0.9056548533380612,0.874245102369625,0.9313738071368178,0.8510309860514795,1.4299186471391858,6.0893281232225505
1569408144073799.0,3.419547705403241,1.1316522525636334,0.8986042077555141,0.8742504348314418,0.9290779048113333,0.8525347151593857,1.4442193935909498,6.0599975607825485
1569408144073799.0,3.4466675474549957,1.1347493119972012,0.890397592264292,0.8769245061249247,0.9243555136389728,0.8513896417679722,1.4583855443436906,6.044342102219448
1569408144082776.0,3.473227461051417,1.140164423478947,0.8823500207165016,0.8826606779523942,0.9205318327368877,0.8485194633873471,1.4741132270444504,6.0309289706985005
1569408144082776.0,3.490974237262759,1.1456638525883285,0.8744578912573068,0.8882881957376763,0.9159932784058915,0.8448553756883332,1.4840394956343723,6.008465941245159
1569408144096739.0,3.4847813908414023,1.1461023845405423,0.8649971975445232,0.8906392627948286,0.908792684234965,0.8394656813005527,1.4926318010463229,5.957235259088041
1569408144096739.0,3.4716028602201914,1.1433251904269552,0.8538584468288831,0.8915847275087362,0.8975084972410186,0.8329485573070311,1.4986426471612089,5.904532884272283
1569408144098736.0,3.449333006743467,1.141188885014372,0.84441293726535,0.8910213198575612,0.8860808404396,0.8284277704573634,1.5072811241941733,5.849539430213969
1569408144098736.0,3.429738006596569,1.1417263009297947,0.8369004194735604,0.8880488254782642,0.8753504563009589,0.8261201972896466,1.5134521018376867,5.808024843705103
1569408144119676.0,3.410944956726166,1.141475603100051,0.8306781585966551,0.8827526450402524,0.8681725422484018,0.8251563888564359,1.5224352169850761,5.764106257200043
1569408144119676.0,3.403082427535535,1.1404915171163261,0.8263809031101506,0.8773427056538041,0.8628073306631695,0.8254953812634213,1.5294165386606062,5.733653225193271
1569408144121672.0,3.3907099551620172,1.1404791712565665,0.8247352790004314,0.8727386396086284,0.8595104076461099,0.8262403485590357,1.5347599107695442,5.708761465656605
1569408144121672.0,3.375447568960285,1.1420343032017768,0.8235345743229131,0.8696414962468458,0.8571301364159326,0.8272302824084904,1.534686290973768,5.694626330173535
1569408144142645.0,3.3478304366304372,1.1444638497606987,0.822743675669701,0.8670525915628657,0.8559196578640494,0.8295466010747096,1.534625649567105,5.665375854672451
1569408144142645.0,3.3209356122588463,1.1485435091566683,0.82318584853752,0.8632677994393989,0.854460987044058,0.8331958992133839,1.5297731724362227,5.638812261650317
1569408144143614.0,3.2890743811585264,1.150211033458932,0.8243140536074971,0.8571900074207387,0.8549653339777443,0.8382768691466949,1.5260444614743491,5.6069332152805185
1569408144143614.0,3.265983975417326,1.1498207088034413,0.8247696964807977,0.8518471605521253,0.8555690386717242,0.843800728740857,1.5199314977669085,5.58035566295205
1569408144156580.0,3.244863378436978,1.1501558081538477,0.8247130411296876,0.8486064837461375,0.8571426530630055,0.8487882444587622,1.5145768286340087,5.549945393753915
1569408144156580.0,3.232102841150176,1.152388601169879,0.8228689486284265,0.8461992899897754,0.8589182289702807,0.8531593131865356,1.5059973807350944,5.535767298687639
1569408144157576.0,3.215660970533242,1.1542949346526965,0.8190527712468375,0.8430809932874017,0.8598201511483233,0.8579243855966705,1.499635002313101,5.5251526905496835
1569408144157576.0,3.2072151578671777,1.1547920522775819,0.8158497737372942,0.8394085954904812,0.8593519285326477,0.8641107582699187,1.491446148044118,5.521117046095026
1569408144178520.0,3.1995837841389667,1.1533110918173806,0.8157865078222903,0.8347578465742128,0.8606662507974748,0.8708260700598098,1.485602037838558,5.506381838262935
1569408144178520.0,3.201479320603118,1.1514666758288132,0.8189610579953777,0.8292677197652555,0.8622446354492563,0.878022756296623,1.4784532291002437,5.502836139930807
1569408144179517.0,3.20190070407573,1.14881657615484,0.8256786072931598,0.8234031815062707,0.863042872421108,0.886808036762379,1.4763926911490801,5.502908028901142
1569408144179517.0,3.2051115764945886,1.1459431668659756,0.8359559976540705,0.8186196977966722,0.8606984686814926,0.8953007477350434,1.4777037082718838,5.508753440955318
1569408144201457.0,3.2031453476149405,1.1420485666439866,0.8481240941756616,0.814794373919926,0.8575896671438652,0.9015664535658074,1.486445487794836,5.510551912428298
1569408144201457.0,3.2083350106921613,1.138175606358678,0.85901134046742,0.8123896196822343,0.8558911806553974,0.9055492545584719,1.4965744098551519,5.525957647378388
1569408144202457.0,3.210513726496335,1.1362682216632687,0.868644832189879,0.810304544789402,0.8580986386052021,0.9072827152926903,1.5093310576985643,5.5365377093132935
1569408144202457.0,3.2114342343922275,1.1373310312814753,0.8760513827636165,0.807674686853353,0.8619911384245831,0.9066532480923493,1.5130534663773745,5.5436528126181015
1569408144216420.0,3.198715627407653,1.1356574647679316,0.879268442239804,0.8040479087926788,0.8645512831909371,0.9045959765606226,1.5066963286455513,5.532591205427264
1569408144216420.0,3.186973858503669,1.1295346710446414,0.878947962789256,0.7995269315725347,0.8623571148289233,0.90207026534077,1.4914045288119335,5.521770563973206
1569408144217416.0,3.169358458950426,1.1221492504979325,0.8751898325406072,0.7946065596229963,0.856579804971848,0.8981339995170077,1.478277635561574,5.508324848338925
1569408144217416.0,3.1524284735633796,1.1175384447354624,0.8674848622056875,0.7916360431270734,0.8488546626461928,0.8935032813048054,1.4662861376724086,5.506283628043382
1569408144239359.0,3.129338176762589,1.1159301658618288,0.8586334129709422,0.79085223119614,0.8432909197894995,0.8903136453407889,1.4596213378806262,5.498334106373618
1569408144239359.0,3.109741970054716,1.1157806792253786,0.8515998415315926,0.790570247855668,0.839676260183464,0.8876667335241594,1.4512634756573295,5.489838454386264
1569408144239359.0,3.0835934243991443,1.1142640322250963,0.8468844243254919,0.7903191579203276,0.8362057691725263,0.8845848988632302,1.445092569945431,5.470215333611826
1569408144239359.0,3.063714056327124,1.1133284006638844,0.8434119990741209,0.7913788009326679,0.8295203491669191,0.880901314195165,1.4396836967893172,5.455331839664665
1569408144261342.0,3.042985635738274,1.1130728111928327,0.8413349736891987,0.7926811721281004,0.8218525492678562,0.877592092176666,1.4389535491034442,5.430853263565974
1569408144261342.0,3.0298370358108966,1.1140383882748242,0.8405556473551262,0.7942487051506983,0.8154276577021613,0.8756865270481955,1.435066268298405,5.407021444092882
1569408144262295.0,3.0154722501831848,1.1164013438444258,0.8412314399817913,0.7970390078487259,0.8125629591715521,0.8743511291461157,1.4292645974233509,5.3831282888288055
1569408144262295.0,3.008870180925085,1.1192466266345888,0.8432758018334902,0.7994108452511419,0.8109024664642378,0.8734592380947968,1.4180661510250365,5.378804244403522
1569408144276258.0,3.00239999687883,1.1204603521909307,0.8468407673872517,0.7989453637153685,0.8089501134201783,0.873188629347404,1.4070538709674998,5.3837159460919315
1569408144276258.0,3.0080750559978475,1.1197482775867311,0.850863832369329,0.7974729901213209,0.8067593994127353,0.8714799757188875,1.393467769552641,5.412968184231957
1569408144277257.0,3.010159512631185,1.1175507040367814,0.8553659422182152,0.7970107685746851,0.8060662479630905,0.8681621223902878,1.3813246675356423,5.429205666939232
1569408144277257.0,3.002817335734468,1.1172846357513564,0.8613135246079722,0.7968309099221277,0.80640803912706,0.8650396553055446,1.367375393980491,5.406309681188351
1569408144299196.0,2.9839487913865,1.1183255131779029,0.8678624971585794,0.7967293139806275,0.8074575537793072,0.8642943963837226,1.3567045721167197,5.351334500002704
1569408144299196.0,2.97524899453149,1.1176815332987087,0.8729699784266047,0.7978818023332994,0.8076249039942818,0.8651561095851984,1.3468334635869392,5.311035935443408
1569408144300197.0,2.968417117754313,1.1108227551936063,0.8756302146509926,0.7992683993494313,0.8063411592368404,0.8646826191191959,1.3425149946415071,5.275164004953561
1569408144300197.0,2.9664504328644408,1.0984276721113584,0.8766993589737822,0.80090705730987,0.8028314958594152,0.8625997913607829,1.339378400068435,5.248122688027863
1569408144321138.0,2.9623163660933547,1.0833676473767913,0.8782025769310288,0.8037658391870643,0.8004642846848976,0.8599194771107677,1.3421932074260114,5.216907241069228
1569408144321138.0,2.968784836069801,1.067831883562288,0.8821562127022379,0.8079484738036106,0.8000965471399598,0.8565767952890789,1.3478607660759765,5.192396362652411
1569408144322135.0,2.9762072899169523,1.0522959134389462,0.8877270150460493,0.8144427541713055,0.8011962461197673,0.8525617206576178,1.357231917775786,5.159255033122572
1569408144322135.0,2.9851557887809923,1.0391526344190447,0.8918886509813548,0.8223352523904732,0.803441259578968,0.8487185956630867,1.3646433649090304,5.123534832377809
1569408144338092.0,2.985808292891985,1.0279841168737855,0.8956073081002702,0.8285996164030133,0.8071369525598744,0.8471279067339822,1.3713855749588204,5.081966146827878
1569408144338092.0,2.985465726676123,1.0184568171382875,0.9008779551725785,0.8342353370703235,0.8120871243751493,0.8489400675289197,1.3753868897034538,5.058594937494155
1569408144339129.0,2.9747625879290562,1.010116938752109,0.9077707622651788,0.8412708246120593,0.817489256386176,0.8523928332730882,1.3805859719085112,5.036740357618544
1569408144339129.0,2.961261543313771,1.002755969408562,0.9163009087490621,0.8497258448001112,0.8231803032426163,0.8544006586915724,1.381197904834409,5.020222812880742
1569408144359037.0,2.9401598485575215,0.9950363963735034,0.9245430356595691,0.8596310892374581,0.8312765820885912,0.8548285949878879,1.381959967468982,5.004937824190819
1569408144359037.0,2.92257962811436,0.9893058588191762,0.9305162200693303,0.869976919263505,0.8427746169350353,0.855574482113817,1.3835565308171027,5.003146697410633
1569408144360035.0,2.9019679318820315,0.9862973373980979,0.9352236892692781,0.8808840884380932,0.8566617572958877,0.8577852679649479,1.3895210325158514,5.000921907748592
1569408144360035.0,2.8866760964221134,0.9851282615804366,0.9396516527250742,0.894315023488491,0.8709695781475089,0.8595466123080903,1.3945903528857722,5.0002791685555055
1569408144381975.0,2.8677903257807773,0.9839182259970946,0.9448214732450635,0.9102327736439358,0.8836988472111402,0.8587909673011379,1.3981519589490563,4.983765430037172
1569408144381975.0,2.854711066133795,0.9828063115855848,0.9517425908645897,0.9266028073577819,0.8940036397536641,0.8573094084051309,1.3965817668039089,4.969205591777281
1569408144381975.0,2.841574158081112,0.9811443176384564,0.9604686654833582,0.9436077360015905,0.9028835321342917,0.8571877340524504,1.3954208373010293,4.9560209163899005
1569408144381975.0,2.8343972542968405,0.9792638606497907,0.9710401889680305,0.9621549779758132,0.912397507368972,0.8584663716871946,1.3932942145938445,4.951156211608169
1569408144396935.0,2.824601152840808,0.9764299670614939,0.980596776425228,0.9803402264108393,0.9225124728612509,0.861234264671954,1.3925306903079475,4.947554940376645
1569408144396935.0,2.819429741275593,0.9738336027748907,0.9861872080595399,0.9963230276211721,0.9303589044483643,0.8645411738398081,1.3896545740114394,4.956568027976724
1569408144396935.0,2.810719144932223,0.9715517296756437,0.9897623697980653,1.0083712847383213,0.93597064087824,0.8664565498747362,1.3893761568337368,4.970970751621999
1569408144396935.0,2.805003972993223,0.9686926953122238,0.9932879685024789,1.0137213746514098,0.9413419845967991,0.8658560217729846,1.390444526797852,4.995333039071665
1569408144418878.0,2.79713304752475,0.9662084247426891,0.9958535466304687,1.014403243397317,0.9455111314756122,0.8646756311635586,1.3965643094215856,5.009429931601116
1569408144418878.0,2.7952554449726206,0.9663563971728424,0.9973331883255168,1.0152146313585024,0.9494414009406391,0.8629910919427778,1.4029937485261426,5.019752867329922
1569408144419875.0,2.7930512294932788,0.9683031366787319,1.0007347076186872,1.018073928416461,0.9551579594281983,0.858768305375721,1.4085901584679068,5.030535893746032
1569408144419875.0,2.796387959926363,0.9716723291524644,1.006191020569726,1.0230092713441283,0.9626618524079946,0.8538016534442258,1.4114407503259774,5.053574480815736
1569408144441857.0,2.797717895010868,0.9747620740651634,1.0108548890911493,1.0280939898583106,0.9720414468580976,0.8491790158238688,1.4162484006141285,5.0807879721458775
1569408144441857.0,2.804046030446074,0.9784741512969141,1.014616387532706,1.0303913773911308,0.9803749954345841,0.8448581980465192,1.421518529298207,5.1184029577879135
1569408144441857.0,2.812331833134138,0.9835818127101739,1.0176338731451327,1.0317584493504734,0.9847781202193499,0.8409150427674131,1.4322490939913048,5.159418866180141
1569408144441857.0,2.8322970067916744,0.9918498384342043,1.0178552182540144,1.0352135551630055,0.988047854334881,0.8362684788083409,1.4474945875202045,5.2101910824414865
1569408144456792.0,2.8516527825136913,1.0030882451385184,1.0151221299203836,1.040818842025084,0.9933181617936349,0.8328783528051033,1.4662205433407092,5.258276013910374
1569408144456792.0,2.8588311387869414,1.0139996506147515,1.012125106266481,1.046775354269964,0.9986053484626477,0.8318309313529607,1.479271207849988,5.291080358032042
1569408144456792.0,2.84259505962136,1.021191221907561,1.0110633945233793,1.0490998711110526,1.0020704715612792,0.8311985790158952,1.4877998524817286,5.294039400234944
1569408144456792.0,2.823576943470481,1.0256698153251484,1.0120348598685742,1.048620395941246,1.0044714170853424,0.8299127847682527,1.493605572963872,5.286735397377282
1569408144478716.0,2.805701504328424,1.0311834146465044,1.013396674803514,1.0482191150924838,1.0070215609141155,0.8289551286965864,1.5021373590450806,5.276497277613763
1569408144478716.0,2.7903981748755196,1.0386231465942026,1.011952046849347,1.048015757384555,1.0095423907414414,0.8303357272789703,1.509917083572031,5.2758579719317575
1569408144479716.0,2.765456074841471,1.0434518554948342,1.0084596542617248,1.047961426965218,1.0123675026943986,0.8350936421588508,1.5171599694202489,5.276837950851415
1569408144479716.0,2.742814513270769,1.0467238107203651,1.0047126332047371,1.0471573555256979,1.0133730129684428,0.8432103926819662,1.5218782371289599,5.287644124338139
1569408144501657.0,2.722076137641483,1.0507382796394984,1.0018810009986499,1.0453790191337464,1.0107436832729373,0.8526411936393239,1.5271949991520286,5.3006743577527615
1569408144501657.0,2.709810591136308,1.0543338478059212,1.0000332085118446,1.0446351031997798,1.0048370552934862,0.8574872714237164,1.527633151438066,5.317581118303838
1569408144502654.0,2.6993626135380846,1.0558151424044673,0.9973263397403466,1.0459644790226539,0.9977588423513283,0.8558647871163535,1.524118858178485,5.33451228632064
1569408144502654.0,2.6947960415927588,1.0549056896687472,0.9943050333987247,1.048623391397519,0.9919943888104548,0.8536969185990627,1.517090558592493,5.354767283704
1569408144516616.0,2.683903965758238,1.0525234853506673,0.9933086139196798,1.0505484177186672,0.9901872647012346,0.8529381171727494,1.5116061543848602,5.360286008515303
1569408144516616.0,2.670068829340922,1.0521144883256468,0.9925338894844921,1.051653957875449,0.9912978727273016,0.8516247148122694,1.5066410107978174,5.364216124919488
1569408144517642.0,2.6504184634520938,1.0552991273233354,0.990014316446322,1.0538188292146988,0.9929099271934356,0.8517618558987629,1.5039769589045764,5.370514752627964
1569408144517642.0,2.6338328634246033,1.0622774637265606,0.9853461998625961,1.0573117813011836,0.9924126612261779,0.8543348613891211,1.4980001509256489,5.389246152199897
1569408144538557.0,2.6169916171896923,1.0713465265445723,0.9794330944331703,1.0611202538949518,0.9919465878617847,0.8583309762619477,1.4947049217339161,5.4178846083500884
1569408144538557.0,2.6043476856725394,1.0799907047975605,0.974127765653748,1.0643717011594642,0.993337531918897,0.863769029557794,1.4924472807263856,5.451200243526146
1569408144539556.0,2.586678002617069,1.0850775650816853,0.9689785264859705,1.0668596220538256,0.9944673497653764,0.870617536381682,1.488375869910323,5.453994263602041
1569408144539556.0,2.573411071993116,1.0877916953561286,0.9616207734842321,1.0697478560765292,0.991647716052741,0.8788598612119232,1.4806308627471385,5.428477898483872
1569408144561495.0,2.564397632729301,1.0908002155978096,0.9528680539273922,1.072079814575206,0.9859973211483332,0.886457079010214,1.4763685149629375,5.388463079473936
1569408144561495.0,2.5636078745729756,1.0962078687587118,0.9435006973913297,1.072937738631631,0.9778090931570546,0.8915969040267329,1.473108247475104,5.3585990286536465
1569408144562494.0,2.5638625272581956,1.1026456987788285,0.9336508793316489,1.0721081312673788,0.9684502421891,0.8963355102488697,1.4723502617305353,5.330485808858534
1569408144562494.0,2.5627217482190265,1.1074083417512377,0.9239598822196939,1.0696676648209686,0.9582912023199648,0.9016148841359498,1.4723429359737323,5.300816601319574
1569408144576457.0,2.5530250026727175,1.10845051746467,0.9158058292897164,1.0653226366903052,0.9478879752311159,0.905452868683084,1.4771213307549456,5.260973557338908
1569408144576457.0,2.545650892594804,1.1062308008667114,0.9081597329492819,1.0600354098757598,0.9374102761168143,0.9079590795344425,1.4840878445816454,5.229167216559875
1569408144577454.0,2.537153461130115,1.1019458643986748,0.9010889380532582,1.0546079269213962,0.9295700613834326,0.9101070004517686,1.4938654743982862,5.2028008795762295
1569408144577454.0,2.5301399007142855,1.0978774602330266,0.8945778579608482,1.0502348362101097,0.9242554146849167,0.9119007072419907,1.5038364521968706,5.18460033845315
1569408144599396.0,2.525776611792801,1.0952747527546947,0.8867418191115207,1.0471150822735757,0.9193684435550838,0.9123377555621882,1.5161521206466324,5.164375241611219
1569408144599396.0,2.5276341270767166,1.094018388034726,0.8778487611269378,1.0426015172235634,0.9119439898437653,0.9104882239439882,1.5241333835709652,5.150375342737567
1569408144599396.0,2.5280141919685124,1.092774445110468,0.8711895511758375,1.0349812090354844,0.90314994226675,0.9073567627646262,1.5302186594981773,5.134076061892049
1569408144599396.0,2.534670695093878,1.0916962010693063,0.8660791959151009,1.0260074089445952,0.894291424442437,0.9049337660696207,1.5363287511686126,5.125743168706352
1569408144621370.0,2.5484725975218505,1.0904568871526,0.8605459088346079,1.0174377796589955,0.8863051020109456,0.9051705808367448,1.5447453141701981,5.12503400201677
1569408144621370.0,2.569608544618811,1.0891986048397144,0.8551706899025374,1.0107868538395077,0.8765529414068751,0.9090021528607765,1.5530418808323836,5.144112973414723
1569408144622333.0,2.5918417051178286,1.088423057565817,0.8511964238271577,1.0042359171747777,0.8652111807439696,0.914332715556155,1.5642884761097726,5.172935081733003
1569408144622333.0,2.611449245226738,1.0898024657915486,0.8486147835762238,0.9955778065064473,0.8534005735666815,0.9182587470930054,1.5746561158130645,5.2073391150094785
1569408144636297.0,2.6217529397047845,1.0925755009803493,0.8466418276270357,0.9860089525647857,0.8438661786735391,0.9208643428818399,1.5846932387319292,5.24192851347265
1569408144636297.0,2.6262085571588356,1.095977081800074,0.8449972733302047,0.9787800902518171,0.8363824070600521,0.9231770485894405,1.5894048869965167,5.2774077326502855
1569408144637293.0,2.629464705105892,1.0996186913856605,0.844973572914414,0.9752354995763952,0.8306176749599381,0.9251905226088204,1.5908987361973645,5.299551731935223
1569408144637293.0,2.6379351090959102,1.1038069373859298,0.8436812780777782,0.9740800165871202,0.8250870016013296,0.9279403223138726,1.5890370916498484,5.320414271154833
1569408144659235.0,2.650109981176613,1.1082997502214529,0.8388113354311239,0.971969450824507,0.8191149064691031,0.9323378386295128,1.5890204771209002,5.341809533231369
1569408144659235.0,2.66504529480133,1.1135541393042834,0.8329617593472536,0.9695490462057346,0.8130934398732675,0.936393088405335,1.5879245545879463,5.371469094334775
1569408144659235.0,2.6789020832504713,1.1185566278447165,0.8264740137849365,0.9687924151078088,0.807533018271776,0.9391882653874895,1.582909867643715,5.402372738525649
1569408144659235.0,2.6972974357705675,1.1224076823959939,0.8180230776848351,0.9691003268509285,0.801933697661927,0.9417459201520905,1.5715027797354422,5.442258996674221
1569408144681178.0,2.716226128288148,1.1245796248137438,0.8096098011023576,0.9701718079713352,0.7976933251045345,0.9430640079731835,1.560131044378941,5.4728356178742565
1569408144681178.0,2.730060426067124,1.1250933572145925,0.8012481040347741,0.973366266709349,0.794549481724767,0.943213675080497,1.543652449040348,5.47950907408884
1569408144682214.0,2.7389751948076317,1.1243127602026004,0.7929466317882627,0.976908042721877,0.792820100444779,0.943177167172601,1.5271721762538757,5.4723051405918985
1569408144682214.0,2.7483651917501293,1.1236535222424502,0.7866426137572297,0.9778112192883761,0.792268171939412,0.9439713378169545,1.5123688219664213,5.4788999123861775
1569408144696175.0,2.7599982767470084,1.1230520283186058,0.7836160438968829,0.9753302276206632,0.7931287417123669,0.9475469185932739,1.5010902474832484,5.497065167121455
1569408144696175.0,2.7727526247831453,1.12303168702026,0.7839228483798844,0.9722754729097156,0.794239921327645,0.9548142964462055,1.4873090849266855,5.529988797339441
1569408144704115.0,2.7772000676471658,1.1227313891643902,0.7876534917716819,0.9707172246801827,0.7946928517280124,0.9627044410863804,1.471952070097754,5.552955395790695
1569408144704115.0,2.7752000640373913,1.120461686704626,0.7947728967214792,0.9711212546416065,0.7943503347326599,0.9674201593397632,1.4515451837013253,5.56094801077359
1569408144719111.0,2.771070889873277,1.1140671415678132,0.8052329289609592,0.9726599136209666,0.7942854102054324,0.9700668020136677,1.431120447127855,5.556093181546147
1569408144719111.0,2.7693419451139434,1.1046410543797405,0.8169469675838814,0.9725855486166468,0.7965058666803736,0.9716393193461386,1.4102131558602125,5.552664479873621
1569408144720072.0,2.7707375995720804,1.0947077784234949,0.8268977532888161,0.9691574374130353,0.8010201423654738,0.9711608159352713,1.3925103336644378,5.542311144910813
1569408144720072.0,2.7777586583355194,1.086133074739426,0.8351638684120342,0.9650474618642079,0.8068821785862502,0.9696251288052355,1.375536688284906,5.522162006445812
1569408144741073.0,2.7893479797007377,1.0792594810841798,0.8427336660398368,0.9633561914679994,0.8149847005858273,0.967991396612689,1.361824798440844,5.487056776834879
1569408144741073.0,2.8067982594653786,1.0730836101961494,0.8486593735692481,0.9639086371295238,0.8253293775858361,0.967232304148807,1.3473274826364416,5.461260615361224
1569408144742014.0,2.8243295818751286,1.0646412133103302,0.8519853319330587,0.9635895970488028,0.8346925954345132,0.9663680349943032,1.3344756747114852,5.4380004571978455
1569408144742014.0,2.8377914375995723,1.0551726031935185,0.8527754806496267,0.9622759115421691,0.8404054940121367,0.9624364982369649,1.3209171590860294,5.414639807334449
1569408144756043.0,2.8490631593724314,1.0467569084896748,0.8520184604015787,0.9598749921078877,0.8425240875979786,0.9563691108645571,1.3116173533886448,5.390662384532344
1569408144756043.0,2.8621155950859434,1.0393295906238433,0.8507129222354971,0.9554616359673439,0.8443449384996597,0.9500862436933691,1.3051006420805489,5.382512600359443
1569408144763987.0,2.8771623081225055,1.0313197730563695,0.8488466615761959,0.9486352473117038,0.8486248539539589,0.9445585252762881,1.3027760600032778,5.38115960036423
1569408144763987.0,2.896246171280993,1.0234552665439602,0.8474549346633997,0.9393216121073639,0.8564409433217754,0.940768748016979,1.3000288706422236,5.388727019669806
1569408144778916.0,2.9138593764748686,1.017569580904185,0.8475067507596165,0.9279300268311776,0.8664152717163804,0.9387292765762962,1.297526204983359,5.383303808943896
1569408144778916.0,2.9218923329728796,1.0148452678785307,0.8490335718542227,0.9164297583987889,0.8778143882114516,0.9394281618659122,1.293822331146378,5.361787157230443
1569408144779912.0,2.9218631913349906,1.0133928637796172,0.8520199465889654,0.9067325190736196,0.890289501420792,0.9428746931305618,1.29374476581004,5.327746735333016
1569408144779912.0,2.9246073823245626,1.0120694992017283,0.8575259705211759,0.9004518379033711,0.9020650495334246,0.9451182473454204,1.2955528119726731,5.301682270529186
1569408144801853.0,2.930407637550126,1.0110867502136385,0.866369392222885,0.8967990234201703,0.9101156119845221,0.9432036116285631,1.3020785423592398,5.279555776565036
1569408144801853.0,2.940264137469256,1.0128453067208851,0.8764487234394811,0.8950639238660802,0.9150435175636283,0.9390688073001601,1.310788290296494,5.273541071762822
1569408144801853.0,2.9564381728421973,1.0179474661449042,0.8848160737126405,0.8932268875808362,0.9186504641176112,0.9356616235515635,1.3226269761558855,5.27174359364992
1569408144801853.0,2.9742242703149318,1.0250582006705637,0.8917472001090314,0.888974964928645,0.922141178237712,0.9349689356840137,1.3308132897055127,5.26286121727962
1569408144815818.0,2.9856207748060344,1.0328646435569007,0.8982324474715927,0.8846699651780668,0.9262456495865334,0.9360090448107248,1.3323656476544068,5.236316879614236
1569408144815818.0,2.9962120603831273,1.0407715936501443,0.9053708691609144,0.8828250029968328,0.9310988563985757,0.93679843096687,1.3277598691605106,5.213011549275975
1569408144823832.0,3.011207436939729,1.0463855397198902,0.9140029370065134,0.8825027448149818,0.9355357020803955,0.937337100390983,1.3243504486167366,5.19302083449152
1569408144823832.0,3.0288896314028375,1.0490491108616258,0.9231359829654269,0.8838735683682998,0.9407706557815515,0.9366389547402628,1.32198060310323,5.187288433651312
1569408144838785.0,3.045261337742629,1.051058179697445,0.9317834729285117,0.8859317883634131,0.945532259974125,0.934704148000015,1.3233645621428733,5.186458674090615
1569408144838785.0,3.0662749802804403,1.0544510926695294,0.9400423698739849,0.8876596527253097,0.9481422819544376,0.9335119363667796,1.3271132860125998,5.193778980318529
1569408144839752.0,3.0923708162495607,1.0573581909529388,0.9458949700947779,0.8898445312206305,0.9485146605987683,0.9340502108106238,1.3342753108843888,5.2013601675733305
1569408144839752.0,3.1192794607403034,1.059847635780592,0.9476785375118836,0.8927226697135008,0.9458537780969344,0.9363259434685207,1.3388899339106464,5.203768169975003
1569408144861693.0,3.1334140988440495,1.061217336214004,0.948451486801351,0.8951056687411459,0.9411011915881208,0.9413155699308853,1.340580200073736,5.18587984951639
1569408144861693.0,3.126358756637309,1.0584964409717152,0.9510480134656104,0.8989736821485652,0.9382571640532009,0.94799865759229,1.3393942614381877,5.165102405243874
1569408144862692.0,3.1086701937319794,1.0500554943618996,0.9523570932603009,0.9054963199004255,0.937064616612222,0.9534339153751336,1.3396593843258613,5.1420430896876175
1569408144862692.0,3.098116311277512,1.0378975240353907,0.950613609775573,0.9128991103881994,0.9346635068283385,0.9576946456605263,1.3399125860474874,5.127077327904744
1569408144875694.0,3.0927862591542508,1.025445661578058,0.948791899986204,0.920015069991301,0.931024776547634,0.9608076382232168,1.3414667429248954,5.117962650415117
1569408144875694.0,3.0896852471372545,1.0159121054548654,0.9488337987326679,0.9278828031984414,0.9282438927701533,0.9608507687876868,1.3412075163215533,5.125053354867243
1569408144883673.0,3.08853951467662,1.009119744863323,0.9516146980977083,0.9365886276970435,0.928151613447818,0.9578338788365718,1.3406950973240825,5.139373818153143
1569408144883673.0,3.0957290780014173,1.0038371771660248,0.9550976042705654,0.9442650441296814,0.9307476038024937,0.9527118251713782,1.3385299801731074,5.163368710024702
1569408144898594.0,3.1050428963486945,0.9977706093086254,0.9563869038377114,0.9507212688212361,0.9328980755188079,0.9444512631811753,1.3385977472468802,5.19312936217162
1569408144898594.0,3.1123664682123025,0.9894145778871787,0.9575761707204237,0.9570465738269294,0.9338668707149551,0.933892097746724,1.3405348037167795,5.230934644542624
1569408144899600.0,3.117333449705451,0.9795856254941074,0.9595669242168365,0.9632267911391308,0.9355335696828329,0.9249362792089612,1.3469293558415798,5.259267284105785
1569408144899600.0,3.1205199659594474,0.9707850142039848,0.9614137118404341,0.9693895169735691,0.9389683182085443,0.9196171084918875,1.3547696773954152,5.28020086457153
1569408144921572.0,3.116101468379161,0.9631537814032402,0.9641059721681962,0.9755071394804513,0.9439452591920823,0.9169921759172983,1.3627794769969324,5.2927898434746385
1569408144921572.0,3.1108099070902817,0.9572504207934965,0.968625434473021,0.9818091150155809,0.9475830317764317,0.9150591392256768,1.368323085968044,5.308915055247049
1569408144922571.0,3.108286848635198,0.9520628962767754,0.9739360067778322,0.9864181467329416,0.9459850457025661,0.912806262368285,1.3749720641885639,5.325107950990171
1569408144922571.0,3.113343703739035,0.9476199703701135,0.9791128212812671,0.9872340298082082,0.94039610476805,0.9102150534945163,1.3827607789313288,5.357820151085446
1569408144935526.0,3.1169196008244167,0.944041949027251,0.9831886897974979,0.9857513911192788,0.9336463419986075,0.9072765940827461,1.390812921736777,5.397693838021318
1569408144935526.0,3.1043231877073767,0.9395197613189957,0.9842799680950078,0.9841307738234303,0.9267451867889469,0.903981879050912,1.3913739475628695,5.4190460442240385
1569408144943475.0,3.064582305306758,0.9339367188065185,0.9833973189679606,0.9823688812184602,0.9205941919663801,0.9003258993886578,1.3861888520235883,5.393735563201276
1569408144943475.0,3.016745916403109,0.929801995980361,0.9834751023180083,0.9807458123330893,0.9172339725296033,0.8973074640662565,1.3766203614057813,5.3480960251570036
1569408144959431.0,2.97083628851035,0.9264644230132746,0.983530601468038,0.9773613510186037,0.9164696110829074,0.8959001244920743,1.3667013017664078,5.2953274974771585
1569408144959431.0,2.9318734370440955,0.9230678632531676,0.9815906926910124,0.9699511108083436,0.9163904377119555,0.8950941642320666,1.3555973930869138,5.245708816819646
1569408144959431.0,2.8953422834114133,0.9192355168819845,0.9786186087505891,0.95966014247447,0.915920832215625,0.8938945050916166,1.346416688950199,5.184700291398397
1569408144959431.0,2.866244179573729,0.9151808472480738,0.9755583339400267,0.9494388505232312,0.9162453856856765,0.8923479418930219,1.3386024364351246,5.120768158393751
1569408144981411.0,2.840591501149256,0.9107523307247424,0.973408566064374,0.9414619766154892,0.9181130464549071,0.891471799960676,1.335127455468325,5.054942941677109
1569408144981411.0,2.817142949701434,0.9054553964058663,0.9722115718490948,0.9345595815951914,0.9196469984277407,0.8922713118012481,1.3312826344166584,4.997278796092818
1569408144982377.0,2.7910942823438236,0.8968056765374768,0.9691020177532856,0.9251194213907691,0.9198253019004963,0.8947245707931984,1.3227215211261574,4.936143163519305
1569408144982377.0,2.7727101667113567,0.8839309285691308,0.9619777524918026,0.9155981241600037,0.9208651072910131,0.8998401359495469,1.3087140277761882,4.885039374592926
1569408144996333.0,2.7618923982680137,0.8686723135420813,0.95167450110268,0.9082548332426535,0.9224911926068607,0.9074204307442947,1.297331071745088,4.836650668990985
1569408144996333.0,2.7568683127099614,0.854541188156454,0.9399567640909786,0.9024507210282057,0.925000914459877,0.9154474052306221,1.2888783947057607,4.799807281080373
1569408145004313.0,2.747857199903557,0.8422484451469343,0.9287883595006592,0.8990088766791905,0.9300783196230555,0.9229508227606444,1.2860546925579477,4.767123151002176
1569408145004313.0,2.7387912246238977,0.8303764732761796,0.9191619335380101,0.8986795450944621,0.9367257388083279,0.9290586546845326,1.2869038490766103,4.744310523345928
1569408145019273.0,2.7344841853526534,0.8172626391162996,0.9101726671393311,0.8977277858422847,0.9417900012179143,0.9339405770836474,1.2915882351318753,4.72452839707089
1569408145019273.0,2.7427450548637573,0.8035867298491418,0.9016725645219126,0.8926224701478658,0.9457478862322904,0.939682218814654,1.2975248437297642,4.722238586047842
1569408145019273.0,2.748657233131816,0.7911134316220085,0.8957058801731521,0.8853078996417036,0.9493771431134846,0.9471300551083921,1.3037663540818942,4.718947441521187
1569408145019273.0,2.735760356797009,0.781599104136329,0.8923331059212406,0.8792127837877627,0.9539156310460805,0.956185451740608,1.3053639798975807,4.699611914817062
1569408145041253.0,2.704078968905121,0.7743409453272401,0.8905961073464012,0.8735911012754343,0.9589287406641854,0.9647632448369918,1.306874395799703,4.661187710219555
1569408145041253.0,2.6730224193720993,0.7684002451353191,0.8904570986709481,0.8676077995698745,0.9617506813055987,0.9721841681080058,1.3104505869131313,4.626063048942951
1569408145042212.0,2.6447833836847883,0.7645300736331051,0.8909433116759524,0.8600065047995574,0.9624267998811813,0.9804381004606012,1.317191089298488,4.58854509978194
1569408145042212.0,2.6202026254850233,0.7631946949002706,0.8920021431660293,0.8504989650160402,0.9631725756956927,0.9894210400212551,1.3206345769495573,4.56027002745375
1569408145065150.0,2.594928653125402,0.7632601872549818,0.894645930468551,0.8406726753869619,0.9637216642527097,0.9981152153327975,1.3198755449123,4.532178325204589
1569408145065150.0,2.5730987791626143,0.7647740070002876,0.8988745536340677,0.8318775699496708,0.965309797795542,1.005600196070921,1.3163840237217768,4.508596845944785
1569408145065150.0,2.5498355519442386,0.7675902203140247,0.9047082094848498,0.8241612237584789,0.9676045065489604,1.010016727177854,1.313629139636323,4.48215833158
1569408145065150.0,2.5274100900943495,0.7728078738793461,0.9111821972350406,0.816784224901341,0.9708681036978642,1.0116484539310096,1.308035117655345,4.455650419420088
1569408145079112.0,2.507876496415836,0.7805326397321116,0.916397181608417,0.8093498348260446,0.974739603683216,1.0124517145880891,1.3004437870724155,4.416404059453493
1569408145079112.0,2.4974969662660493,0.7888307404439978,0.9174715488238301,0.8030942071639043,0.9775272185700457,1.0123798361142193,1.2914912666264506,4.377295120100952
1569408145080147.0,2.492490028002736,0.7965031969568144,0.9124194213180773,0.797011286559277,0.979165799754333,1.0114466750664803,1.2855802525402085,4.340361382003174
1569408145080147.0,2.4911191398214894,0.8035163236531863,0.9029672662548033,0.7910133096369605,0.9809352946950078,1.0106124202473707,1.2807031444235502,4.310661079901897
1569408145101054.0,2.4899834148929014,0.8107878262738076,0.8929271885498985,0.7860454193112185,0.9836211192531568,1.0088459206521383,1.2776603473087078,4.2771238009110935
1569408145101054.0,2.492931203813074,0.8204114344573038,0.8852535892427617,0.7813647053443352,0.9893372563670049,1.007187126164879,1.2746107931384978,4.2517161648359645
1569408145102051.0,2.497407101770812,0.8314634887596154,0.8801135188679021,0.7766837253538043,0.9965870756272367,1.0055062167945166,1.2744248026492657,4.232280025131581
1569408145102051.0,2.5039076246501435,0.8409530049599291,0.875520727115641,0.7722089374693697,1.003726980135441,1.000912851668724,1.275402173382231,4.224979563569786
1569408145125029.0,2.513063601875103,0.8498278534157236,0.870484082810359,0.7666525828245656,1.010539374519573,0.9954527580794942,1.2755479260418292,4.2249155579459705
1569408145125029.0,2.5207289501899903,0.859135402383058,0.8639319782081886,0.7618812201601054,1.0153274178864948,0.9910218785627557,1.270209859089886,4.23030156901587
1569408145125029.0,2.5180270162547713,0.8669147382846977,0.8557657947878174,0.7600668429231143,1.017144274195087,0.9865910221838651,1.2608566119960982,4.2244193656988696
1569408145125029.0,2.511618541216371,0.8731823595150994,0.8488520047324705,0.7606147686558109,1.0182720357003046,0.9831826133975635,1.2480087087353398,4.219274335441424
1569408145138953.0,2.506309487722926,0.8789474533181355,0.8453126783062539,0.7614487747117881,1.0194169579119559,0.9817281049936841,1.2356642547006707,4.218723649998924
1569408145138953.0,2.502657402981787,0.8842382215369858,0.8442191307920527,0.7615100140331851,1.0207173047219156,0.9821865387573625,1.2225144728217179,4.228313015515892
1569408145139949.0,2.4993460603159074,0.8890726613505415,0.8426499881997752,0.7605961072919974,1.020984645495656,0.9835140008596983,1.2094148080645208,4.239039109831023
1569408145139949.0,2.49972367048792,0.8934712541763928,0.837560767587346,0.7596706084138465,1.0194942087709813,0.9857495174961489,1.1940507956639965,4.250682289404898
1569408145169902.0,2.498979999342743,0.8974511544747626,0.8278533960334309,0.7607438878452988,1.018099900229399,0.9887828265877211,1.179859080400385,4.251824984512416
1569408145169902.0,2.4911386381339087,0.9010279263334104,0.8152879369647691,0.7630937674415177,1.016818576274676,0.9896690912971705,1.1665460117413797,4.236051135912359
1569408145170867.0,2.4745662373584665,0.9042186780806932,0.8038217857822385,0.7636259037092338,1.0136039694396464,0.9875843556443199,1.1561971318128046,4.205593736912137
1569408145170867.0,2.4530837719716088,0.9070351633299724,0.7955347462027703,0.7621983486454504,1.0106023349705364,0.9845948799688664,1.146541826159161,4.178108147640706
1569408145184830.0,2.429318768011002,0.9094969098002083,0.7905183823236528,0.7606906806358789,1.009573011217042,0.9816527740572962,1.1379136204525406,4.154104427754795
1569408145184830.0,2.4084297218648145,0.9116189118204592,0.7887700992471351,0.7612087621719501,1.0085507018683875,0.9797879081331116,1.129370874554146,4.142645418685542
1569408145185826.0,2.3906028247699624,0.9144286992379582,0.7892421649137877,0.7638398905198818,1.0045494850261332,0.9799269007566296,1.1245495648398185,4.141040357347313
1569408145185826.0,2.3767934866878058,0.9189158089018054,0.7898969584402531,0.7666434201853927,0.9987246514906393,0.9820556515854979,1.122727272292673,4.1496104525217445
1569408145198792.0,2.3663706642018196,0.9250971289671114,0.7897156590524873,0.768557551456041,0.9939394851023313,0.9861200553203293,1.124454336074738,4.160860826471917
1569408145198792.0,2.3598836713577156,0.9329418471464288,0.7887277759161864,0.7695761520107235,0.9921769888296418,0.9921234758875864,1.127700142583774,4.178601346655737
1569408145199831.0,2.3560349511210403,0.9414672344159034,0.7869281399048181,0.7706638933701058,0.9922710061840779,0.9999672512679465,1.131446020636799,4.2012283922839835
1569408145199831.0,2.3539570032146218,0.9496991068427825,0.7853708665165118,0.7728540952536501,0.9923512534972352,1.0086334916225284,1.135045679618721,4.230400777355405
1569408145221731.0,2.355789223369673,0.957725811848407,0.7849624358139836,0.7751615085509453,0.99332894673181,1.0172036725959381,1.1417285563686297,4.266785428734695
1569408145221731.0,2.3652369109918694,0.9665413627228515,0.7847060115899629,0.7765966260824906,0.9942652049411916,1.0267837206994195,1.1508776824442866,4.314183236412936
1569408145222727.0,2.3825696151746416,0.9761491477460911,0.7846069119529289,0.7771539200694837,0.9941409477598692,1.037197013374943,1.162782209951943,4.3630430173454755
1569408145222727.0,2.400840593368184,0.9855758633952829,0.7856230369998047,0.7778328403911849,0.9940415625489849,1.046574636882895,1.173697194729452,4.411002472411
1569408145244709.0,2.4161146189633462,0.9948847112580708,0.785607783451344,0.7796315400411112,0.9938836728461155,1.0551365632278689,1.182088964488902,4.456484124097955
1569408145244709.0,2.4296226795522093,1.0021335184375932,0.7828230160514124,0.7815540211258154,0.9947237126879528,1.0649565666940148,1.1876730862014424,4.4956251726557195
1569408145245709.0,2.4433917912585605,1.0064854451427157,0.7794115703238556,0.7836161237277826,0.995462268982584,1.0768291375168941,1.1932528367185569,4.520444384405124
1569408145245709.0,2.454444556881818,1.0099343317548564,0.7783034276768765,0.785798219524554,0.9952287883486838,1.089687838877566,1.198371056639259,4.533117462616512
1569408145258632.0,2.4682858051340144,1.0124847954771217,0.7781827437631845,0.7871318173155787,0.9949483046750236,1.101594312038712,1.200885823425729,4.54007357562479
1569408145258632.0,2.485202262946535,1.0121888903111853,0.7772503589237939,0.7876118855288798,0.9936878886566869,1.1118321661207013,1.1992650913947394,4.551678437595103
1569408145259631.0,2.5046854171226545,1.0100134124183349,0.7765740941395394,0.7862816777113275,0.9924061554620848,1.1214634249517603,1.1980291664868812,4.563612836560821
1569408145259631.0,2.526060816697057,1.0079099844559376,0.7771759717182677,0.784176853888703,0.9920966408150119,1.1295129383081328,1.1987116716687771,4.572681391005023
1569408145281570.0,2.5478073161124324,1.0048779593442363,0.7788991067419004,0.7842882155356489,0.9907623132751296,1.1332075318009034,1.203318997830131,4.585295383123708
1569408145281570.0,2.5656503016989407,1.0008959627097862,0.781818124325075,0.7865069042514633,0.9884408924663699,1.1327564524277425,1.2125960146043337,4.611807833926068
1569408145282569.0,2.5835970072526337,0.995937715085321,0.78577983275049,0.7888438114365381,0.9841575840185371,1.129123588987886,1.2248146093872663,4.635902476082373
1569408145282569.0,2.6008914764066153,0.9889776431029201,0.7908681707733833,0.790335724583687,0.9759117852681789,1.1232365217512148,1.2342034608397088,4.6363614191274225
1569408145304546.0,2.6212608735807885,0.9808748566498223,0.7968509203717944,0.7920724102673184,0.964636092830604,1.1169570678412026,1.240813678228281,4.6120611268416285
1569408145304546.0,2.6414478553724905,0.9735884881890826,0.8028362379884767,0.7949544172676558,0.9511646921023075,1.111186355160387,1.2469009396736328,4.584434490331275
1569408145305509.0,2.656479217504398,0.9681121070636732,0.8088839013727209,0.797996451238259,0.9364381953199205,1.1068575775420317,1.2533791142455186,4.555614482694078
1569408145305509.0,2.6635533500674193,0.9644997186378655,0.8160331190241844,0.8011997770538355,0.9223113241511289,1.1049421067101008,1.2586123382580554,4.527038562972429
1569408145318473.0,2.6716554894647566,0.9617583720944427,0.8239407441016164,0.804541724533986,0.9108513344875339,1.1034987819198439,1.263194423319735,4.500875132172774
1569408145318473.0,2.681422670516736,0.9588799568185817,0.8314505284425886,0.8060527207433497,0.9020687612833876,1.09956120929621,1.2664511235962608,4.48414182867485
1569408145319470.0,2.6894711270210996,0.9568153719321856,0.834635127971095,0.8069656534023955,0.8950004333172692,1.0930448133474697,1.2689616915986937,4.47296388967872
1569408145319470.0,2.692657618923327,0.9555950834500705,0.8336102572472901,0.8091276895903516,0.8906846476985356,1.0868067634606324,1.2709235145719493,4.467556735827947
1569408145341411.0,2.695995074316704,0.9552031753599902,0.8324466398867639,0.8115023770001125,0.8900793926868668,1.0828573191425919,1.2750782936001415,4.469709353447162
1569408145341411.0,2.702717054856352,0.9546992978160724,0.8328594502565825,0.8131442776704282,0.8932270633222054,1.0802407964882665,1.2811891988881003,4.485092137085882
1569408145342410.0,2.716064745675963,0.9501020373717936,0.8344286442073904,0.8152200165034611,0.899915837313073,1.0779686536169049,1.2871598166314602,4.502548134963673
1569408145342410.0,2.7321875225574965,0.9412884998632358,0.8360811790059177,0.8186083963807813,0.90916354506578,1.0760282658492555,1.2900263649023167,4.513075729071388
1569408145364349.0,2.754924922927883,0.9321169350389165,0.8358404968787971,0.8233727579473364,0.9197643639887995,1.0734621689667736,1.2920901437158263,4.5252287864079985
1569408145364349.0,2.78283625704298,0.9256180986314022,0.8342807679134356,0.830399503079506,0.9318297611014037,1.069221652338045,1.2947586718648696,4.551103410065687
1569408145365347.0,2.8125787401093256,0.922837737295192,0.8333170141028228,0.8395241585807037,0.9431083575028639,1.0632410318466095,1.299973523484324,4.589942611906133
1569408145365347.0,2.8386058167022252,0.9227942527055882,0.8338655708653462,0.8486136547142973,0.9519951117803576,1.0563688434777552,1.30558469683433,4.63887827389024
1569408145379352.0,2.8572098552689273,0.92347474836047,0.8355634708846098,0.8569277229637576,0.9574447070659056,1.051555855436063,1.3081117308856007,4.675372842100588
1569408145379352.0,2.8668118954754633,0.9248614083200094,0.8375084253790392,0.8644946386749941,0.9568857163848951,1.0499170465574208,1.3083153689285543,4.68797184987903
1569408145379352.0,2.8759454891419387,0.9269326799036786,0.8397368658746214,0.8714676423454519,0.9514593021716823,1.0495545580524719,1.3082182719664175,4.685173121472403
1569408145379352.0,2.883925846198046,0.9276953726632631,0.8432828646888094,0.8778615908481336,0.9471618013241201,1.049459245547032,1.3049451388679114,4.677167791787892
1569408145401292.0,2.892892830409638,0.927189053682092,0.8476761394646601,0.884790980546104,0.9456036390218319,1.047679936687195,1.3008837317448987,4.670247124980992
1569408145401292.0,2.8955277150712275,0.9254024258319605,0.8508422009463557,0.8920389907309253,0.94483393179474,1.0430303415596414,1.2965435870811566,4.668686199471465
1569408145402248.0,2.8797035020767696,0.9223896181009776,0.8501809488349413,0.8988001116023987,0.9437782020959722,1.0393603988447275,1.2908185245863866,4.663070278085931
1569408145402248.0,2.849225985814934,0.9211240311547715,0.8476215362383298,0.9060490613429478,0.9425809307871096,1.0387939201062668,1.2824465851441509,4.653443903773498
1569408145424230.0,2.8191242760034427,0.9225281950808311,0.8460603475623532,0.9137365340832132,0.9421480119631109,1.039444666454644,1.274121994871492,4.645868515454916
1569408145424230.0,2.794305227375189,0.9245580443488681,0.8473760260010164,0.9208164939653595,0.9445041989007837,1.0412664488400518,1.265222650713447,4.645410700791944
1569408145425186.0,2.776037942181379,0.9272578903242976,0.851903397075376,0.9264107069183323,0.9484003483497115,1.0443807787143629,1.255417110265506,4.647769645005299
1569408145425186.0,2.7656442127797582,0.9305303722392672,0.8583200570825279,0.9286498700917613,0.9510229083507495,1.045866681678264,1.2454902761229336,4.651457130619924
1569408145447128.0,2.764420592383669,0.9314409603018565,0.8644489055192375,0.9278593100373259,0.9513946481280002,1.0446527611181915,1.2386751500515796,4.65470811779812
1569408145447128.0,2.7665629471688664,0.9291175850882422,0.8697673035319502,0.9259837653990206,0.9496754315444388,1.041673477370552,1.2326243179887397,4.667765586967149
1569408145448126.0,2.763889526346777,0.9255969036625256,0.8743785864740328,0.9239590771836634,0.9467915275857314,1.0359474460580105,1.2259407994250926,4.69499018341315
1569408145448126.0,2.7571262800067644,0.9217870409228176,0.8796024312490087,0.9216826291501636,0.9437556770474657,1.027211046848209,1.218599084619936,4.7320981791398795
1569408145461091.0,2.7526646156800942,0.9166920055788137,0.8859594630486047,0.9191757303403786,0.9395039139319522,1.0183053050666926,1.2106417528551963,4.7731910316444885
1569408145461091.0,2.7478487183535356,0.910329603704305,0.8924751186591636,0.9163817150602307,0.9321093098630168,1.0103063359304356,1.1988096016180259,4.8137687209213595
1569408145462088.0,2.7392752567514354,0.904676850308516,0.8991365299687771,0.9133414989847839,0.9215260550495694,1.0022043772176832,1.186251230246586,4.843880900340837
1569408145462088.0,2.7285410492843662,0.8996282590108861,0.9058342580763838,0.9110294569537399,0.9096542049606503,0.9958399167595781,1.1755020679754686,4.865508382725727
1569408145485027.0,2.7169054617849504,0.8941879643278703,0.9106289064526588,0.9113351795752294,0.8984095856518399,0.9934216339064437,1.1666609949946798,4.8796754179114465
1569408145485027.0,2.6990769380137936,0.8873257174101289,0.915106719365191,0.9110766227595437,0.889744329456628,0.9931302239437084,1.1589139313260388,4.8760703791146565
1569408145485027.0,2.677370607891984,0.8781563807133138,0.9195917858881203,0.9065745067412344,0.8836275658312075,0.9929481141254164,1.1540865849056792,4.85218833669866
1569408145485027.0,2.659302772493335,0.8687611232546995,0.9212525803802533,0.9019519807294966,0.8780677813828929,0.9928439176305448,1.1507444901700388,4.831595689448718
1569408145498993.0,2.644956627277402,0.8621586642515178,0.9196979800746493,0.9010399680969134,0.8730390177152795,0.9908936262728594,1.1483679338863848,4.824498994261196
1569408145498993.0,2.6310282523201742,0.8591732129913328,0.9171911313716181,0.9026497722062425,0.8705547887677408,0.9858896685319855,1.1472957379745579,4.829920262268896
1569408145499989.0,2.617735359122593,0.8587047182713508,0.9134085481969366,0.9058211234007766,0.8714691603241538,0.9796996474044242,1.1501461543275213,4.840780769860041
1569408145499989.0,2.601752403275526,0.8596729806170633,0.9087591433596316,0.9104730131618615,0.8737399647246915,0.973304769059058,1.155779672137807,4.845772441406235
1569408145521928.0,2.5814055622243863,0.8620729001133391,0.9050575730695465,0.9156195997992914,0.8723693037938389,0.9667261024602007,1.1615310401527836,4.831822780122658
1569408145521928.0,2.559356909744121,0.8647436992334037,0.903115323629874,0.9202667604979161,0.8656201094356486,0.9598942908378414,1.1668901062366313,4.806570135328403
1569408145521928.0,2.539784277489071,0.8668620304158188,0.9024311710263998,0.9235187553509153,0.8574111452485823,0.9537578615290968,1.1731959968721666,4.777146784387676
1569408145521928.0,2.523172749121487,0.8685039872227761,0.9010125761342539,0.9244683136189297,0.8496691459294432,0.9503547475768213,1.178262914178206,4.752281552071064
1569408145544867.0,2.5058013993437265,0.8709142981463328,0.898137423921481,0.9242437026985635,0.8403231924632136,0.9488836854672885,1.1802161942959564,4.730731062557519
1569408145544867.0,2.482313683654344,0.875869381511737,0.8949911597969695,0.9247677580022996,0.8294343968399119,0.9463211891803315,1.180663081281082,4.69812303566084
1569408145545899.0,2.4543525686867125,0.8830292450381746,0.891514460554559,0.9269670752950947,0.8179277261141803,0.9415579801002015,1.1828505254067996,4.638663709036266
1569408145545899.0,2.42941317863074,0.8901665177671402,0.8897219137658712,0.9297517652523277,0.8068910571741471,0.935442202646136,1.1877209296274645,4.5741763123849015
1569408145558831.0,2.4128667335196434,0.8965655917964255,0.8878705586666444,0.9312015960631489,0.7982588479740447,0.9309567863410529,1.1945035694415131,4.518020148002417
1569408145558831.0,2.399655548947456,0.9021594711852462,0.8835640427324256,0.9294128755921877,0.7930993050127553,0.9301983542456537,1.2020957654714701,4.472328871365259
1569408145559827.0,2.3868914985551877,0.9060721676040371,0.8790224627018921,0.9244967481754883,0.7911928818739451,0.9332512314261182,1.2086345184487142,4.430885027881529
1569408145559827.0,2.3767534716833807,0.9075287905031272,0.8749306424957968,0.9193834115566809,0.7925377957819896,0.9391167080720387,1.2120205900564276,4.390859727969736
1569408145581769.0,2.3743178149063673,0.907963123059078,0.8690945026816275,0.9169699542508527,0.7946812976018215,0.945784716530635,1.2132953474128108,4.3561226849964205
1569408145581769.0,2.3777317533583666,0.9091704309546091,0.8611386848952614,0.9171524044634636,0.7949641556482274,0.9512610872619921,1.2133820103199426,4.33294355689743
1569408145582781.0,2.3863141607205858,0.9108767675449415,0.8532458659504516,0.9169605957971806,0.7934577183012819,0.9545689295909884,1.2143372993394943,4.314246184153354
1569408145582781.0,2.3960769518230274,0.9111346571929991,0.8472802331470395,0.9144666242445298,0.7925625548685952,0.9557199187600969,1.2181586017445336,4.306816336784021
1569408145604706.0,2.405976751268866,0.9114930560697035,0.8428623150022135,0.9106807335854041,0.7939004107432501,0.9557059055875473,1.2238791382714416,4.308603746564765
1569408145604706.0,2.41341991730603,0.9136055670789137,0.8400760765888302,0.905573504867143,0.7983682871358957,0.9555179838441918,1.2285406514939052,4.313973477604164
1569408145605704.0,2.422780361014125,0.9173426726024774,0.8386833185075466,0.8991225826273612,0.8022125609100696,0.9551625944328506,1.231167596520205,4.3233054547391365
1569408145605704.0,2.433752856113096,0.9223779347922944,0.8387949907306729,0.8932646978845565,0.8023052289344335,0.9566336976719553,1.235852541517495,4.341794485714331
1569408145618669.0,2.4502918888032736,0.927665616311705,0.8401784662058994,0.8879735934831013,0.8009434944946475,0.960909657666602,1.244468791434228,4.368712879958173
1569408145618669.0,2.4682076327849205,0.932157108359101,0.8429479967620751,0.8822402128508536,0.8013208645299059,0.9659962378463486,1.2560882898453116,4.402934554213421
1569408145619667.0,2.484788715283428,0.9351536721547027,0.8468519956909292,0.8760387508602593,0.8029079382184091,0.9699307334750639,1.2685212854152903,4.434036755317962
1569408145619667.0,2.4932419204375362,0.9369115462532133,0.8519100098066112,0.869345568300118,0.8071249644238139,0.9727633574643274,1.279045090315599,4.4524819712567645
1569408145641646.0,2.497241957948835,0.9385629892648258,0.8568230469702576,0.8631284745374008,0.8141400914459493,0.9764721484620796,1.2886273319275328,4.463485332796354
1569408145641646.0,2.4985895462605137,0.9401022193235632,0.8612444233908276,0.8583641893930596,0.8229763240160697,0.9800606520902626,1.2994329225981198,4.47166483870671
1569408145642606.0,2.5026016461391856,0.9436119059786798,0.8664554533018564,0.8550416929982689,0.8310470223250922,0.9815827435501501,1.3112239214315504,4.473560157703426
1569408145642606.0,2.5063498484108035,0.9482789855673954,0.8744982074656362,0.8531325476541475,0.8370746260445584,0.9800813064268313,1.3221952200327483,4.467670374484355
1569408145664586.0,2.5127752227504634,0.952344815455713,0.8855567763785607,0.8516274973088747,0.8400923984653859,0.9755559654393017,1.3293384387452771,4.4522633407595595
1569408145664586.0,2.521988504707788,0.9557152768431632,0.8991306833192447,0.8495235779156947,0.8420159975623774,0.9719434308792262,1.3340062511258675,4.43557751571143
1569408145665546.0,2.5371272281369377,0.9565833211637105,0.9125307703381528,0.8468433391983267,0.8443527165256509,0.9712077469266491,1.338992209071077,4.429227041476155
1569408145665546.0,2.553651972709169,0.9547293577489523,0.9246509659420952,0.8445689647499377,0.8482251855490768,0.9723504987781344,1.3444006117691296,4.437820049622876
1569408145678547.0,2.5691378282071202,0.9537733894399756,0.9364684644853762,0.8436599558012328,0.8519141998610515,0.9743679696392733,1.3491235409569629,4.454279421625205
1569408145678547.0,2.577041739235293,0.9561661457305671,0.9466947358264229,0.8420659874342161,0.8551094329621997,0.9762913689183879,1.3543539214709648,4.4716886092613715
1569408145686489.0,2.587337542622755,0.9624227436434948,0.9529777869054904,0.8378950648379504,0.8575476604117831,0.9791288463985648,1.3609058940973662,4.490114398629509
1569408145686489.0,2.601201559613576,0.9718232722724508,0.9576369629800269,0.8331884076201913,0.8608856775846845,0.9838584846686197,1.3689118117085126,4.513403066203434
1569408145701449.0,2.6094493980554003,0.9828990861835091,0.9622322792674036,0.8309246833209568,0.8654044633141907,0.9894519860405939,1.3772032027995,4.535779818420058
1569408145701449.0,2.603228870192966,0.9923316480054837,0.9670469938594409,0.8319544281630132,0.8715470377893431,0.9939691212414897,1.3830193829578985,4.547268817654973
1569408145702446.0,2.597789766459894,0.9980678184528284,0.9739782552994432,0.8341784176294765,0.8796222864340385,0.9974746990252077,1.3853885236293755,4.556306072676702
1569408145702446.0,2.594685622207065,1.0010275025993967,0.9842685814430655,0.8346538981001307,0.8896129418053506,1.001958184047283,1.3874314410509518,4.571475650189409
1569408145724417.0,2.5943037366805157,1.0047257613146372,0.9957571795304012,0.8345594376125867,0.8987837817925339,1.006386794187615,1.3899646925727185,4.595120072127282
1569408145724417.0,2.5925043363592457,1.0113493863986702,1.0054178801098972,0.8357685105937186,0.9058886962478752,1.0078641345123813,1.3911073603134394,4.62367105085354
1569408145725385.0,2.5887449771478135,1.0200446392356834,1.0100147118770828,0.8372340453746103,0.9089212520621197,1.0064426862047926,1.3898280507487621,4.649865864050564
1569408145725385.0,2.584438737842419,1.0273267532728956,1.0113529757132953,0.8379637247732667,0.9091815030159528,1.0031109095590927,1.3872038032772604,4.67536619694227
1569408145738409.0,2.5901048586894757,1.031033739931047,1.0132174074469544,0.8380100710307755,0.90931430440964,0.9998333983472506,1.3841383509918257,4.702742358030837
1569408145738409.0,2.6042095699465766,1.0317859727685288,1.015943048503724,0.8363391216008855,0.9112017267373737,0.9995741316135989,1.3816944762913586,4.728555886737813
1569408145746388.0,2.6275522075072346,1.0308268752262593,1.0181460364630046,0.8321243300670398,0.9128284637719036,1.003290530631206,1.3827479799275706,4.75653010882328
1569408145746388.0,2.6521491123368413,1.0281344160464572,1.0190368629160753,0.8274096416840893,0.9116502248162555,1.009953848510628,1.3863037906854865,4.786070298782386
1569408145761348.0,2.678256391629822,1.0249925154887924,1.0177609998521278,0.8241049762975161,0.9048633273946739,1.0175550507248776,1.3883211925123897,4.818848399510031
1569408145761348.0,2.6988618185997515,1.0219699519070844,1.0147589471984386,0.8210755794168934,0.8937028804236957,1.023183225817909,1.387989092310269,4.849309404966201
1569408145762287.0,2.70379282425166,1.0180298307976807,1.0101696444787456,0.8174512816738702,0.8811245184961005,1.0259600485738587,1.3862759445738553,4.864562907929913
1569408145762287.0,2.6854173676468114,1.0125187537577882,1.0063648292112155,0.814297207789113,0.8713647462307691,1.0298738773497214,1.3873116994098822,4.871499285460908
1569408145785443.0,2.6619826904422106,1.0079397833276609,1.0045538213321414,0.8136479725360801,0.8654545521004983,1.035858458964214,1.3928683212964335,4.886136926244775
1569408145785443.0,2.6428401920413664,1.0057423991483065,1.0034582367290987,0.816262081020405,0.8634767533379601,1.041971895655966,1.402063395391115,4.908025910613709
1569408145785443.0,2.6279332309777015,1.00584097132818,1.0020403420360429,0.8209813876742191,0.8647298560760448,1.049236463556665,1.4146563896613558,4.9246867020801375
1569408145785443.0,2.611016426981005,1.0089839284848832,1.0005272907573086,0.825756673416607,0.8694297127324705,1.0557345550179937,1.428771723690352,4.927348874145427
1569408145798244.0,2.600489856955102,1.015695362707348,0.9987464287078913,0.8308407544973306,0.8767004472270289,1.0586041809880484,1.4413488091473579,4.922944649026362
1569408145798244.0,2.597222402960682,1.0240857948379156,0.9967612073521248,0.8371075999954709,0.8855378020209018,1.0588563258617154,1.453793904839085,4.9193327346537155
1569408145807254.0,2.602038062100246,1.0312028290473048,0.9933628874070096,0.8445868287110824,0.8923572313114577,1.0564967829372445,1.4678588061187972,4.919313379992528
1569408145807254.0,2.608935306849817,1.0355718523398907,0.9880825778397763,0.854029789804183,0.8963263776687611,1.0514349472472848,1.4837205799087063,4.921220128439502
1569408145822348.0,2.6135567905655077,1.0377030980937925,0.9820323021597918,0.8631366885500087,0.8972738872338056,1.0455748357770271,1.5001706429213506,4.917919307858152
1569408145822348.0,2.6075918530670754,1.03673198102421,0.976274829616121,0.8672353725555596,0.8949800245099836,1.038910044583184,1.5145258201565566,4.908785597449249
1569408145822348.0,2.59903459122074,1.0335832723415608,0.9715885771013846,0.8670396109640337,0.8896298822814085,1.030358452143768,1.5229300367843663,4.888414412120825
1569408145822348.0,2.5908591717847678,1.0313204636405664,0.9686348801579385,0.8645079319130491,0.8849173950005815,1.0217381487358719,1.5257610530083312,4.851906124950847
1569408145845512.0,2.5907671082085555,1.0313767973764782,0.9649240866830193,0.8597574806640551,0.8818573386631927,1.014111582091348,1.5268538939981426,4.812644483854106
1569408145845512.0,2.5967198091954,1.0322700606453303,0.9591216613990333,0.854845668328767,0.8806368216642995,1.0064359079058836,1.527189583701471,4.786388879974455
1569408145845512.0,2.604784245394785,1.0343426032191247,0.9525461442220281,0.8526263166538303,0.8805855244527525,0.9996424407720081,1.5267097921492951,4.768909497131164
1569408145845512.0,2.606268772549436,1.0381805110008875,0.9472770789079626,0.8527055702238499,0.8819916930541876,0.9947252233055559,1.5244260140049168,4.751914913398542
1569408145859296.0,2.6115755760396078,1.0435326275862138,0.943728178902549,0.8531209094666331,0.8830562374593519,0.9927385075818139,1.519318955613909,4.735436731427611
1569408145859296.0,2.623700653138535,1.0488151490969173,0.9407684110556984,0.8539943009116773,0.8825718445374138,0.9937967592044741,1.5152269205197255,4.7270841626052515
1569408145866837.0,2.6423337163671117,1.0513860115005575,0.9374940203967232,0.8572725708165587,0.8805294059400407,0.9950068908887343,1.5141829887547813,4.722576295883456
1569408145866837.0,2.6593045931067474,1.0510873789246735,0.9352432179770492,0.861551674547703,0.8785947245265839,0.9942881826018551,1.5141803756688759,4.710481941582268
1569408145881635.0,2.6822323528692613,1.0503346780908986,0.9345034402027407,0.8640963038330894,0.877261848158713,0.9915799784543543,1.5142945466043995,4.693741274921973
1569408145881635.0,2.7098988082807702,1.049694702372416,0.9341756295396818,0.8661544271766463,0.8777596431482092,0.9867673886566688,1.5144772790903485,4.684893357936739
1569408145882439.0,2.7336703701608553,1.0491736986775813,0.9333839276131755,0.8696074322785005,0.8783750899422763,0.9817225118768309,1.5119028903245426,4.675795403523631
1569408145882439.0,2.7376523349725335,1.0485790063308518,0.9335668859654948,0.8731844785647305,0.8801063902068367,0.9794432153848749,1.5033575116242015,4.654813810085772
1569408145904810.0,2.7361629807059185,1.0479227763821768,0.9361045611301602,0.8750085275149998,0.8842667720870768,0.9810895945454445,1.4936598373573133,4.6288807662377724
1569408145904810.0,2.7359496513344146,1.04607448434268,0.9391716197572153,0.8732914838776615,0.8917640406103946,0.9847799603642875,1.4876816632676606,4.609477079010536
1569408145906437.0,2.738342141608477,1.043621821888898,0.9379330345124214,0.8694544824548104,0.9003559637290911,0.9875357020579447,1.485645091243121,4.593317882569037
1569408145906437.0,2.7405555468395444,1.0421588131240775,0.9331774321002632,0.867304589625933,0.9085543626673904,0.9892691425377023,1.4875005083173234,4.57775127405196
1569408145918773.0,2.743201168788082,1.0402513746033715,0.9290667720632911,0.8665261834271115,0.9140655646474396,0.9910045040604183,1.4904421824202934,4.562388318243983
1569408145918773.0,2.7389305822423946,1.0361149045400737,0.9272457880449622,0.8651681503644211,0.9172350427003158,0.9917894128190275,1.491351764697981,4.544473251474858
1569408145927185.0,2.7355663983890866,1.030222557638041,0.928130597622062,0.865315471533501,0.9187774916273491,0.9906000577808095,1.4912467774802525,4.524712510110594
1569408145927185.0,2.7323352944499377,1.022663053056918,0.9312009735796868,0.8665684323825993,0.9192592650073149,0.9883516465195762,1.4920062172412765,4.504230202912256
1569408145942140.0,2.7367040714639304,1.0147815842265835,0.9341062528974861,0.8650325166751599,0.9185440875597711,0.9850708839004836,1.4947442357094258,4.4890614511049405
1569408145942140.0,2.745943913208477,1.0072650997583144,0.9364919850061693,0.8590483671114681,0.9191792306157754,0.9806419704466129,1.4994101083385332,4.489112254738313
1569408145942697.0,2.756702029549472,1.0002602540592715,0.9392954936783505,0.8508553693309757,0.9201801390938363,0.9770364043691478,1.506113099622744,4.501538714986861
1569408145942697.0,2.761794154009258,0.9947001776393413,0.9422298675545236,0.8432825643096966,0.9224621601136855,0.9743545023401953,1.5138330690754127,4.51979505246055
1569408145964903.0,2.7682231081658117,0.9914278585572578,0.9434140421143309,0.8371663721927506,0.9271373008694733,0.9706596947312506,1.5216718599791097,4.540433127448093
1569408145964903.0,2.775139108620198,0.9900446652972512,0.9446684659170721,0.8313492412357999,0.9340138496629105,0.9647879114447773,1.5295862677415155,4.557971179417232
1569408145965634.0,2.7880040389702696,0.9905618863500764,0.9472213429198534,0.8249426079892763,0.9404501952183509,0.9585802670528702,1.5376828247778105,4.578611147303343
1569408145965634.0,2.804507944371774,0.9926619270210907,0.9495630208755675,0.8189451360002241,0.9473991943692899,0.9540576918630398,1.5469069616868716,4.606238922866209
1569408145979061.0,2.8298529516600204,0.9963519071003557,0.948536667148839,0.8143121114750892,0.9538589385857148,0.9513249726692269,1.5574694769893918,4.640937738006409
1569408145979061.0,2.852031235999697,1.0011796084075335,0.9425818874283054,0.8108752374777028,0.9587029561852372,0.9504161472783975,1.566413020786142,4.683629588691361
1569408145987044.0,2.8672757505937416,1.0060827399066126,0.9349839778318538,0.807612043965775,0.9619253191229707,0.9504549030181155,1.5729187759362497,4.740350381161068
1569408145987044.0,2.8769901213004374,1.010125224695036,0.9305870610017867,0.8035625806323419,0.9651153397036211,0.9484744505016017,1.5759248151175496,4.807061362644356
1569408146002899.0,2.8871289925921553,1.0135983845811203,0.9290831693232949,0.7998663983458301,0.9675633159883688,0.9422930310309876,1.5735193289095926,4.8811924632135835
1569408146002899.0,2.8913435512278074,1.0162376799596082,0.9296130575090567,0.7973106139870094,0.969888779436365,0.9345863184195218,1.5681384876859514,4.955978016601632
1569408146002899.0,2.8965461024335153,1.0169283121509947,0.9328782485388945,0.794832643207179,0.9713827953897902,0.9294118734144595,1.5629664439205317,5.0168440311773965
1569408146002899.0,2.904289291081325,1.0131009655120817,0.9384743061403689,0.7914026703203061,0.9716071654823444,0.9269515447764016,1.5586905702645697,5.061406161726051
1569408146024896.0,2.9168512605600743,1.0062844738181125,0.9451671012490689,0.7861672889096731,0.9694683431926068,0.9252775473397619,1.5577013153097536,5.104970326134801
1569408146024896.0,2.9207908776414415,0.9995642344055412,0.9532040480400427,0.779352703373792,0.9668818995774836,0.9233135554692018,1.5580239306266181,5.140278849860866
1569408146026501.0,2.912404416152362,0.9947341751545338,0.9622546585258199,0.7740375761218115,0.9642180741425485,0.922017608094315,1.5568883908668092,5.151413861363572
1569408146026501.0,2.894408179279864,0.9921139932320517,0.9723105562777681,0.7697812434410151,0.9629791912083906,0.9224123826205566,1.5558062871006821,5.139507132600022
1569408146047845.0,2.8799045056811567,0.9915256723768503,0.9819926148569948,0.7648716759541411,0.9632373613363294,0.923553761031657,1.5544229792448498,5.112503281683211
1569408146047845.0,2.868100310991633,0.9924645577957998,0.9910413695255984,0.7615005347448746,0.965154067099417,0.9244106233409187,1.5491431378222067,5.074702745937921
1569408146048413.0,2.8623932516904347,0.9939958801049229,1.000541405267096,0.7614845244382803,0.9668414561166,0.9259665594955868,1.542853061308418,5.032379977836608
1569408146048413.0,2.8585231379944673,0.9961808371472707,1.011037394021202,0.7643042018444922,0.9671130111034314,0.9282446382442929,1.5392591135293427,4.9912081906750165
1569408146061837.0,2.856248940277634,0.9989129332363871,1.0199316880839588,0.7676880594737532,0.9659436934761492,0.9302504709861429,1.5383596943672428,4.959554473360736
1569408146061837.0,2.849639789033032,1.0014924589381842,1.0264567967509164,0.7689107534227869,0.9648304526904016,0.9339592512939429,1.535855181385297,4.935920100424177
1569408146062377.0,2.8405688887705614,1.0063035004989809,1.0320779806920732,0.769807884133804,0.9631229832454801,0.9404034241914072,1.5308927074675784,4.908940179587857
1569408146062377.0,2.827761151616703,1.0131536254994127,1.0379953427243769,0.7731792565438111,0.9612644278434727,0.9476195320391481,1.5237661894754884,4.879730386992947
1569408146085599.0,2.8190444777448187,1.020825244310064,1.0450941001933851,0.7796782911238522,0.9576699174936878,0.9546426518543902,1.5158244417161486,4.853575192701894
1569408146085599.0,2.8105236212015123,1.027724202708639,1.055019337273521,0.7886523958577282,0.9523225135864033,0.960524038464413,1.5086683807965857,4.837002662993061
1569408146085599.0,2.7967996594826157,1.0314236132726984,1.066477246378852,0.797680501816043,0.9461058084920427,0.9643074693556065,1.5004931185969577,4.820964189680225
1569408146085599.0,2.7700360500045704,1.0322075261554349,1.0773980434426353,0.8031219760096175,0.9415329722050547,0.966980095904902,1.4860690424652507,4.787994212884488
1569408146107702.0,2.739389194144487,1.0327022116222377,1.0858235898770974,0.8064048033770901,0.9394932413784338,0.9695547320953515,1.469008345908589,4.73959251634172
1569408146107702.0,2.710642184524938,1.0335161163946056,1.090708614012422,0.8114684709723236,0.9386950787221573,0.9720764777970786,1.4519440397092331,4.688784588767969
1569408146108254.0,2.689452321534883,1.0359239821054698,1.0927165388991749,0.8187182738861419,0.9358807397823647,0.9726501643743026,1.433676342672152,4.644750983560985
1569408146108254.0,2.6718959133815603,1.0409543645499257,1.0930095895173866,0.826996338347336,0.9322306765494348,0.9692208976566065,1.4139040281413617,4.613363399597148
1569408146122350.0,2.6596741903044587,1.0466168788782304,1.090489622290434,0.8375167017962193,0.9282042413911333,0.9635899042260949,1.3953853595491588,4.58929299122798
1569408146122350.0,2.64874444945929,1.050252220632399,1.086036591617746,0.8504718798462105,0.9244182960571845,0.9586563380627974,1.3773895854895641,4.565934808549395
1569408146122350.0,2.64443429191635,1.0530062970845833,1.081501372547618,0.8634420243213619,0.9214559032342483,0.9555293181605238,1.3626179528023996,4.543677567075233
1569408146122350.0,2.643513291261538,1.055764595104076,1.0776424110941196,0.8739295004761904,0.9205685273277159,0.9523214952860195,1.3509660815364795,4.523797806584488
1569408146145575.0,2.6480957181506226,1.0596580556356903,1.0740759691279338,0.8838795943615866,0.9210532776427705,0.9469469219083643,1.3413250997048212,4.507959433237797
1569408146145575.0,2.654332829609893,1.064660345545899,1.0709131372416756,0.8947075520581823,0.9241677116598367,0.9411856364157255,1.3320654805429435,4.496321176348469
1569408146145575.0,2.6650976122170302,1.068459598217876,1.0679332443973257,0.9051090055235906,0.9275741036288782,0.937119795747873,1.321802328984873,4.483773033792881
1569408146145575.0,2.671943808270972,1.0698717433492078,1.0653838652892127,0.9131457250737371,0.9292726154034224,0.9338754074182268,1.309514779850997,4.472263963749871
1569408146167516.0,2.6744250087351022,1.0707222844336675,1.0641047826588625,0.9184528009166092,0.9294658931291307,0.9295008221543953,1.2948609312072856,4.465837155807012
1569408146167516.0,2.6751312753019953,1.071685829838709,1.0646330474894459,0.9211114926755902,0.9299170892298645,0.9228408626343578,1.2764161128901759,4.468216979609822
1569408146168093.0,2.6851978807560943,1.0736800953358812,1.0643761495776742,0.9203980944431716,0.9311954544704494,0.9147493453906577,1.257713078630464,4.476489798429388
1569408146168093.0,2.696004684739454,1.0755925240463091,1.0621924136764183,0.9157666739777407,0.9355440319356203,0.9061343052370909,1.2372819145159637,4.480355401489763
1569408146181474.0,2.705853589021195,1.074792604539541,1.0593869811376528,0.9097866036178797,0.9414973910084228,0.8979631257601457,1.2151693477534746,4.478426251633226
1569408146181474.0,2.7105559338328504,1.0715457961135613,1.0569481069551567,0.9049492560844529,0.9476951464582645,0.8912751970604812,1.194471902840643,4.47629128675898
1569408146182057.0,2.712784630199212,1.0684190134790021,1.054689831025505,0.9008638270825614,0.9540801241372489,0.8851873845675735,1.177566495630643,4.479201108545931
1569408146182057.0,2.703949182469924,1.066005202421189,1.0537845093393845,0.8964388170497649,0.9629523495360691,0.8785969431016125,1.1620375849880773,4.480504754323971
1569408146204996.0,2.685780637064636,1.065447675702092,1.0544258631137695,0.8919532757855205,0.9726679132313514,0.8724464552010867,1.1482386211469127,4.4759578711093235
1569408146204996.0,2.663805366110778,1.0670377717331123,1.0542584742841137,0.8884282726636022,0.9804762425807282,0.8667764538591326,1.1377500879975224,4.467968394748263
1569408146206396.0,2.648063476436747,1.0705956918674053,1.05075600381572,0.8877966236785224,0.9827579996690144,0.8605383468767592,1.129573724402324,4.449071746437409
1569408146206396.0,2.632762340282377,1.075695384046159,1.0450538181997673,0.8903082104616716,0.9816362582987291,0.8556307242834651,1.1198250862778478,4.415145625789022
1569408146227385.0,2.6241660131531437,1.0823416264675123,1.039295685050668,0.8935605689338426,0.9794575771663458,0.8531934221158812,1.1115682464032253,4.378646271132817
1569408146227385.0,2.6207136201931296,1.089955455053962,1.0355582736940308,0.8947781994484912,0.9763932903839578,0.8512491619404563,1.1067537552783184,4.348739944207387
1569408146228937.0,2.622454874376337,1.09766246345331,1.0352443835716345,0.8946322880975948,0.9720104014514721,0.8497402805279612,1.1039095254596907,4.327604783174562
1569408146228937.0,2.620224745904548,1.1055220450825922,1.0387053522397252,0.894022324704004,0.9666680469303289,0.8496656458551157,1.101616815016329,4.307279255344674
