timestamp,emg1,emg2,emg3,emg4,emg5,emg6,emg7,emg8
1570181486842431,-1,1,1,0,1,2,-2,5
1570181486842431,0,0,-2,-2,0,-1,1,-5
1570181486843434,-3,0,-2,0,-1,1,13,-14
1570181486843434,1,0,0,-1,-1,-4,-7,5
1570181486845069,0,-3,-2,-2,0,-1,0,1
1570181486845069,1,-1,1,0,-1,1,5,-3
1570181486845422,3,2,0,0,1,2,-1,4
1570181486845422,3,1,0,1,-2,-1,0,0
1570181486852520,-4,-1,0,0,-1,0,3,-2
1570181486852520,-1,-1,0,0,0,-3,-3,0
1570181486862377,2,-1,1,-1,0,-1,2,26
1570181486862377,-2,-1,-2,-1,-1,1,3,-5
1570181486874393,2,1,-1,2,0,-2,-4,3
1570181486874393,1,1,-1,-1,-1,-7,-1,5
1570181486884367,1,1,0,2,-2,-10,-7,-3
1570181486884367,-2,-1,-1,-1,0,1,-2,-3
1570181486889352,-1,-2,-2,-1,-1,-2,4,1
1570181486889352,-3,0,-1,2,-2,-2,-5,-7
1570181486913242,-3,-1,-1,-1,1,10,0,-6
1570181486913242,5,3,2,0,-1,-8,-17,8
1570181486951307,0,-1,-1,-1,-1,0,0,-3
1570181486951307,0,0,-2,-1,-1,-1,1,-1
1570181486952348,-1,0,-2,-1,-1,-1,0,-3
1570181486952348,-4,0,-1,-1,1,-4,0,-1
1570181486952556,5,0,-2,-3,1,-1,3,9
1570181486952556,0,0,1,1,-1,3,3,0
1570181486953135,0,0,0,-1,-1,0,0,-1
1570181486953135,1,-1,0,-2,-1,-2,-2,-2
1570181486964105,-2,0,-1,1,-1,-1,2,8
1570181486964105,-3,-1,-1,0,0,-3,-2,-3
1570181486971161,2,1,0,2,-1,0,-3,6
1570181486971161,0,-2,-2,1,-1,1,0,-3
1570181486980114,-1,0,-1,0,-2,1,-2,2
1570181486980114,1,0,1,-1,0,0,-1,0
1570181486995026,-7,-2,-1,-2,0,2,4,-5
1570181486995026,-2,-1,-1,-2,0,0,-2,3
1570181487002050,-3,-1,-1,-1,0,6,-1,-5
1570181487002050,0,-1,-4,-3,-5,-15,-3,-4
1570181487017032,-3,-2,-1,-2,0,0,-2,-2
1570181487017032,1,-1,0,-1,0,2,1,8
1570181487025124,-2,1,0,1,1,0,0,-3
1570181487025124,-4,0,-2,0,1,5,4,-22
1570181487039909,5,-1,-2,-2,-2,-2,-6,13
1570181487039909,-1,-1,0,-1,-2,-2,-1,-4
1570181487041904,-1,-2,0,0,-3,-1,-2,-5
1570181487041904,-4,-1,0,0,-1,1,1,0
1570181487062839,-1,0,0,1,0,-4,0,-5
1570181487062839,0,-1,-1,0,0,2,3,9
1570181487063838,-2,-1,-1,-1,-1,-5,-5,-4
1570181487063838,1,-2,-1,1,0,1,-1,9
1570181487076965,0,1,0,1,1,0,2,4
1570181487076965,0,0,-1,0,-1,0,0,1
1570181487085778,-1,0,-1,-1,1,0,1,-5
1570181487085778,0,-1,0,-2,-1,0,0,5
1570181487100868,1,0,1,0,-1,1,-6,-2
1570181487100868,-2,1,0,0,0,-1,-2,-10
1570181487102193,0,-2,0,-1,-1,-2,0,6
1570181487102193,-2,1,1,0,2,0,-4,-7
1570181487122691,4,-1,-3,0,-2,-1,3,7
1570181487122691,0,1,-1,-1,-1,-1,-2,-4
1570181487124677,1,-1,0,1,-1,-1,-1,0
1570181487124677,-1,0,1,1,-1,0,-1,5
1570181487136860,0,0,1,0,-1,0,2,-5
1570181487136860,-4,-2,-2,1,-2,-7,-1,0
1570181487145619,-2,0,-1,-2,2,6,-2,-16
1570181487145619,5,3,1,1,-1,0,-15,18
1570181487160629,-3,-1,-2,-3,1,1,0,-1
1570181487160629,0,0,-1,0,-1,1,0,-2
1570181487161581,0,-3,-1,-2,-2,-3,-3,0
1570181487161581,-3,-1,-3,-3,-1,-4,1,-4
1570181487182572,-1,-1,0,0,2,-12,-4,-7
1570181487182572,3,1,1,1,-2,3,3,8
1570181487184573,-4,-1,-2,0,-2,-4,0,-6
1570181487184573,-1,0,0,-1,-3,2,1,-2
1570181487196589,-3,-1,-1,0,-2,-9,-2,1
1570181487196589,-3,-2,-2,-2,4,12,1,-9
1570181487205461,1,2,1,1,0,0,0,7
1570181487205461,1,-1,-1,-1,0,3,2,0
1570181487220530,-1,-3,-1,-2,-1,2,-2,-4
1570181487220530,1,0,0,-1,-4,-5,-2,-1
1570181487221419,-5,-3,-3,0,-2,-2,-4,-16
1570181487221419,1,0,-1,0,0,0,-3,2
1570181487242548,-5,-1,-1,0,-3,0,7,-23
1570181487242548,1,0,1,-2,-1,-3,-7,4
1570181487244358,1,0,0,2,-1,0,-1,2
1570181487244358,0,-1,0,-2,-2,-5,4,0
1570181487256358,-2,-1,-1,-3,0,3,3,-1
1570181487256358,-2,-2,0,0,0,-1,0,-5
1570181487265308,1,0,-1,-2,1,-4,0,2
1570181487265308,0,-2,-2,0,1,0,1,0
1570181487280463,0,-1,0,0,1,4,-3,5
1570181487280463,-1,0,0,0,-1,-1,-3,-5
1570181487281261,2,0,0,-1,-1,0,1,9
1570181487281261,1,-1,-2,0,0,1,-1,-3
1570181487302209,2,-1,0,-1,0,0,0,3
1570181487302209,0,0,-3,0,-1,-4,0,-1
1570181487304196,-1,-1,-1,-2,-1,2,3,-3
1570181487304196,-2,0,-1,0,0,-3,0,-9
1570181487325184,-3,-2,0,1,2,-2,-6,4
1570181487325184,2,-2,-1,1,0,-4,1,-7
1570181487327184,4,0,2,1,0,4,4,10
1570181487327184,-3,0,-2,-2,-2,-1,-1,-1
1570181487340424,-2,2,-2,-1,0,3,-2,1
1570181487340424,0,-1,-2,-1,0,-1,1,1
1570181487342098,-1,0,0,0,1,-2,-3,-10
1570181487342098,4,1,2,1,0,1,-15,13
1570181487363038,2,-1,0,0,-1,-1,-5,3
1570181487363038,-3,-1,-3,-2,-1,2,0,0
1570181487364160,1,0,-1,-1,-1,-2,1,3
1570181487364160,-3,-1,0,-1,-1,0,4,-5
1570181487384979,0,1,0,1,-2,0,1,3
1570181487384979,0,1,0,-1,-1,-2,-3,3
1570181487387046,-3,-1,-1,-1,-1,1,1,0
1570181487387046,0,0,-1,1,0,1,3,3
1570181487400186,2,-3,-2,-2,0,-2,-3,-3
1570181487400186,-1,-1,-1,-2,-3,-1,1,-5
1570181487401984,-2,0,-2,-2,-1,-2,-2,-5
1570181487401984,-1,0,-2,0,-2,1,2,-3
1570181487423085,1,1,0,0,-2,2,0,4
1570181487423085,-1,-1,0,-2,1,0,-2,-2
1570181487424499,0,-1,0,-3,-4,-6,0,3
1570181487424499,-3,-4,-2,-2,2,10,5,-3
1570181487444819,2,2,0,2,1,-1,1,2
1570181487444819,4,3,0,0,-1,-2,-15,17
1570181487446862,0,-1,0,0,-1,-1,-3,-1
1570181487446862,0,-3,-2,-2,0,-2,3,-3
1570181487459999,-2,-1,0,-2,-1,-1,0,-4
1570181487459999,-2,0,0,-1,0,2,6,-1
1570181487461774,0,-2,0,0,-1,1,-2,0
1570181487461774,-5,-1,1,1,-1,7,0,-13
1570181487482821,4,0,-2,-3,-4,-16,-6,8
1570181487482821,0,0,-1,0,0,-5,0,-4
1570181487484713,-3,-2,-2,-2,-1,0,-2,-4
1570181487484713,-1,0,0,2,0,-4,1,-3
1570181487504659,-2,-2,-2,-1,-1,5,2,-3
1570181487504659,0,-1,1,-2,-2,1,1,-1
1570181487506711,-1,2,-2,-1,-1,-2,-2,0
1570181487506711,3,0,0,-1,-1,-3,-1,2
1570181487519885,-1,-2,-1,0,-1,3,1,-2
1570181487519885,-3,-1,2,0,-2,-6,-4,-6
1570181487526743,2,-1,-1,-1,-1,4,2,6
1570181487526743,-4,-1,-2,-3,3,3,13,-14
1570181487542562,-3,-2,-2,0,0,1,-3,-3
1570181487542562,-2,-2,-1,-1,-1,3,4,-5
1570181487544555,0,0,0,1,1,-2,-1,-2
1570181487544555,-1,0,-2,-2,-2,-6,-2,0
1570181487565703,-1,0,0,-1,-1,0,2,1
1570181487565703,-1,2,1,0,-2,-1,-2,-6
1570181487566499,-3,-1,0,0,1,8,1,-5
1570181487566499,2,-1,-2,-2,-5,-27,-14,9
1570181487579593,1,1,0,1,2,1,3,1
1570181487579593,0,0,-1,2,1,-3,-2,-1
1570181487586616,-2,-1,-1,-1,-2,-3,-2,-3
1570181487586616,-1,0,-1,0,1,4,-4,-5
1570181487602450,-2,-1,0,0,-2,0,-3,-2
1570181487602450,-1,-3,-1,-2,-1,0,3,4
1570181487604472,0,-1,0,-2,1,0,-4,4
1570181487604472,-2,0,3,-1,-1,-3,-2,10
1570181487625597,1,0,-2,0,0,4,1,-9
1570181487625597,0,-2,-1,0,0,4,3,5
1570181487626344,1,1,-1,0,-2,-2,-1,-3
1570181487626344,-1,1,0,-1,0,2,-1,-2
1570181487639348,1,-1,-2,-2,-1,-1,0,4
1570181487639348,0,1,-1,-2,-2,1,1,2
1570181487646280,-3,0,0,-2,-1,-3,0,-4
1570181487646280,-4,-2,-1,0,-2,2,6,-4
1570181487663237,0,-1,0,1,1,6,0,8
1570181487663237,-3,-3,-3,-1,0,2,3,-2
1570181487664234,-1,-2,0,0,-1,1,0,7
1570181487664234,1,1,-1,1,-2,0,-1,-1
1570181487685177,-3,-1,0,-1,0,0,-1,-3
1570181487685177,0,0,0,-1,-1,-1,-2,1
1570181487687205,-1,-2,-2,0,-2,-1,1,-6
1570181487687205,-1,-1,-1,0,0,2,-3,-1
1570181487699140,-2,0,-1,0,-1,-4,-1,-2
1570181487699140,4,-1,-1,-1,-1,-3,-1,4
1570181487714099,0,1,0,-1,-2,-3,0,0
1570181487714099,1,-1,0,-3,1,0,-1,-3
1570181487723074,2,0,0,-1,-2,-4,0,11
1570181487723074,-1,-1,-1,-1,-1,-1,2,-1
1570181487724498,-2,-1,-1,-1,1,2,0,-2
1570181487724498,2,-1,1,1,-1,0,-3,1
1570181487745020,-4,-1,1,-1,0,7,3,-11
1570181487745020,3,1,2,-1,3,2,-2,11
1570181487747013,2,1,2,1,-4,0,0,0
1570181487747013,-1,-1,0,0,-2,-1,-2,0
1570181487760085,-6,-2,-1,-2,-3,0,13,-22
1570181487760085,-3,-1,-1,0,-1,0,-1,-8
1570181487765965,0,0,-1,0,0,-3,-1,5
1570181487765965,2,-2,-2,-1,0,2,1,0
1570181487782916,-1,-2,0,-2,0,-2,-2,1
1570181487782916,-2,0,-2,-1,-2,-12,-4,-2
1570181487784098,0,-2,-2,-1,-1,0,0,-5
1570181487784098,-2,0,-1,1,0,2,3,-6
1570181487804856,3,0,-1,-2,-1,-6,-6,3
1570181487804856,0,-2,-1,0,-2,1,0,1
1570181487806988,1,2,2,0,-1,0,-5,-1
1570181487806988,-3,-2,0,-1,0,-3,-2,-2
1570181487818822,4,1,0,1,2,4,6,28
1570181487818822,-2,0,-1,0,-1,-1,-1,-4
1570181487827795,-3,-1,0,0,0,-2,2,-2
1570181487827795,-2,-2,-1,0,-2,2,12,-12
1570181487842761,0,1,-1,0,-1,-4,-9,-6
1570181487842761,-2,-2,-2,0,-2,0,0,-5
1570181487844752,-2,-2,-1,-1,1,1,-1,-1
1570181487844752,-2,-1,-1,-1,-1,0,-2,1
1570181487864774,-5,-2,-4,-1,-2,-2,0,-7
1570181487864774,-1,0,0,0,0,3,-2,-3
1570181487866775,-2,-2,0,0,-2,-9,-3,-7
1570181487866775,0,0,-1,-1,0,-2,-3,9
1570181487878712,-5,-1,1,1,-3,-4,-1,-8
1570181487878712,1,0,0,0,0,3,1,14
1570181487887634,0,0,0,0,-1,2,-2,-2
1570181487887634,2,-1,-2,-2,-2,0,-3,1
1570181487902621,0,0,-1,-1,0,-3,-4,1
1570181487902621,-4,-1,1,-1,0,-2,-4,-23
1570181487904589,1,0,1,1,1,2,0,7
1570181487904589,3,2,0,1,0,4,3,7
1570181487925577,0,0,-1,1,-1,0,-2,3
1570181487925577,-3,0,-2,-1,-1,1,-2,-6
1570181487926875,3,1,-1,-2,-1,-2,1,6
1570181487926875,1,0,-1,0,0,-2,-4,3
1570181487947563,8,2,-1,0,1,3,-11,28
1570181487947563,1,0,0,1,1,-1,-3,-3
1570181487949471,-6,-1,-2,0,-2,-1,0,-7
1570181487949471,1,0,-1,0,-1,-2,1,12
1570181487970496,-3,-1,0,-1,-2,-1,3,-10
1570181487970496,1,-2,-2,0,0,-2,1,2
1570181487971419,-2,-1,-1,-1,0,0,-1,2
1570181487971419,-2,-2,-1,0,-2,-2,-2,-6
1570181487985375,-4,-3,-1,-3,-2,-4,-2,-26
1570181487985375,3,2,2,1,0,-4,-2,12
1570181487993354,3,0,-2,0,-1,5,4,-2
1570181487993354,-1,0,-2,-2,1,1,-2,-1
1570181488006326,-2,-2,-1,-1,1,-2,0,-6
1570181488006326,-2,-3,0,-2,-1,0,2,-1
1570181488015308,-2,-1,-1,-2,0,-2,-2,-1
1570181488015308,-2,-2,0,0,-2,-2,-4,-3
1570181488030408,5,2,-1,-1,0,2,1,9
1570181488030408,-4,-2,-2,-3,-4,-7,7,-17
1570181488031524,1,0,0,1,1,-5,-6,6
1570181488031524,-1,-1,0,-1,-1,-1,-2,-2
1570181488044222,-2,-3,-1,-1,0,0,2,-3
1570181488044222,-1,-1,-2,0,0,3,1,0
1570181488051203,1,-1,-1,0,0,2,4,8
1570181488051203,0,2,2,2,-1,-1,-4,-5
1570181488068285,-1,-3,-1,0,1,2,1,-3
1570181488068285,0,0,0,-1,-3,-2,-3,6
1570181488069156,-5,-2,-4,-1,0,3,-4,-20
1570181488069156,3,1,0,2,0,1,1,15
1570181488090589,-1,0,-1,0,-2,-2,1,0
1570181488090589,0,-2,-3,-1,1,1,-2,-2
1570181488092095,-3,0,0,0,0,-2,-1,-2
1570181488092095,1,0,0,0,0,-2,-5,-4
1570181488104063,-2,-2,0,-1,-1,-2,-1,-5
1570181488104063,1,-1,1,0,-1,-1,-1,2
1570181488113034,1,0,1,-2,1,0,2,5
1570181488113034,-3,-1,-2,-2,-1,0,1,-3
1570181488128097,-1,1,0,1,0,0,-3,1
1570181488128097,-2,0,-2,-1,-1,2,-1,-1
1570181488129754,4,1,0,0,-2,-5,-13,11
1570181488129754,-2,-4,-3,0,3,9,3,-1
1570181488150936,5,0,-1,0,0,-3,-1,3
1570181488150936,1,-1,-3,-2,0,2,2,3
1570181488151929,-2,-2,-1,-1,-1,-1,2,-14
1570181488151929,1,0,-2,-2,-3,-6,1,6
1570181488164964,-5,-3,-3,-2,-4,-5,-7,-13
1570181488164964,1,0,2,2,4,-2,-5,2
1570181488171879,-2,-1,-1,0,-2,0,6,-4
1570181488171879,0,-1,-2,0,0,-4,-1,5
1570181488188036,-2,-2,0,-1,-1,3,3,2
1570181488188036,0,0,-1,0,0,1,0,2
1570181488189313,0,0,-1,-1,-1,-7,-1,1
1570181488189313,-5,-3,-3,-2,-1,-1,4,-10
1570181488210771,8,4,1,1,3,0,-18,22
1570181488210771,-3,-2,0,0,0,-1,0,3
1570181488211768,0,-3,-1,-2,0,2,1,6
1570181488211768,-2,0,0,0,-1,0,-5,-17
1570181488224967,-2,0,-2,-1,1,-1,5,-4
1570181488224967,-1,2,-2,-1,-1,-1,-1,-3
1570181488231760,-2,-1,-1,-1,0,0,-1,0
1570181488231760,-1,0,-1,-2,0,0,1,5
1570181488247826,-3,-2,0,-1,-2,0,2,-7
1570181488247826,-4,-1,-1,0,-2,1,-4,-7
1570181488249785,-2,0,0,-2,0,1,4,-7
1570181488249785,1,-1,0,1,-1,-3,-2,3
1570181488270997,0,-1,-1,-1,0,1,3,2
1570181488270997,-5,-2,-1,-1,-2,-7,0,-5
1570181488272607,5,-2,-3,-1,0,-7,1,16
1570181488272607,-1,3,3,2,2,6,-2,-1
1570181488284577,-3,-2,0,0,-4,-3,1,-4
1570181488284577,3,0,-1,-2,0,3,1,2
1570181488291554,-2,-1,0,0,0,4,0,-4
1570181488291554,-3,-1,-2,-3,-1,-2,13,-15
1570181488307511,-4,-1,0,1,5,3,-1,-13
1570181488307511,0,0,-2,-1,-6,1,-1,-2
1570181488309509,0,2,0,1,-2,0,-3,2
1570181488309509,-1,-2,-2,-2,-1,-1,2,-4
1570181488330452,-1,0,1,0,1,1,-2,-2
1570181488330452,-2,-2,-2,-2,0,0,-1,-2
1570181488331449,-2,-2,-2,0,0,-3,0,-2
1570181488331449,-1,0,-1,-2,0,1,-3,1
1570181488343417,0,-1,0,-1,-3,-3,2,2
1570181488343417,-2,-1,2,0,-2,-6,-5,-8
1570181488352392,4,0,-2,1,1,7,5,4
1570181488352392,3,-1,-1,-1,-1,0,-2,13
1570181488367616,0,0,-1,-1,0,-1,2,3
1570181488367616,0,1,0,-2,1,1,2,1
1570181488369348,-4,-2,-1,0,-1,-1,-1,-8
1570181488369348,-1,0,0,1,-1,-3,-5,-1
1570181488390299,-2,0,-1,0,-1,2,18,0
1570181488390299,1,-4,-2,0,1,4,-2,9
1570181488391287,-1,1,-1,0,-1,-1,-1,2
1570181488391287,0,-1,-1,-1,1,0,-1,5
1570181488404296,-3,-1,-2,-2,0,-1,-1,-6
1570181488404296,0,-2,-2,-2,1,1,3,5
1570181488413232,-1,-2,-2,-1,0,8,2,6
1570181488413232,-3,-1,-1,-1,-7,-19,-7,-7
1570181488427192,-1,-1,0,2,2,6,1,2
1570181488427192,1,-2,-1,-1,0,3,1,4
1570181488429188,-1,-1,-1,-2,-2,-4,-3,-2
1570181488429188,1,0,0,0,0,5,1,0
1570181488450224,-2,-1,0,-3,-1,-2,-3,-6
1570181488450224,0,-1,0,0,-1,-2,-3,2
1570181488452127,-2,-2,-2,-1,1,2,0,-8
1570181488452127,-7,-3,-1,-1,0,4,9,-31
1570181488464132,-4,1,0,1,0,-7,-12,-10
1570181488464132,1,0,-2,0,1,2,4,3
1570181488473076,-1,-3,-3,-1,-3,-2,-1,-1
1570181488473076,2,-1,-2,-2,-1,2,0,2
1570181488488029,1,-1,-1,0,-3,0,-2,3
1570181488488029,0,2,0,0,-1,2,0,1
1570181488489136,-2,0,1,-1,-1,-2,-2,-5
1570181488489136,2,0,0,-1,1,0,-2,10
1570181488510202,2,0,-2,-1,0,-1,-2,1
1570181488510202,-2,-1,0,1,-1,-2,-3,1
1570181488511966,-1,-1,0,0,-1,-4,0,0
1570181488511966,-1,-1,0,-1,0,2,-3,4
1570181488524024,0,0,-1,-1,-1,-1,0,4
1570181488524024,-3,0,1,0,-2,-4,-2,-4
1570181488532911,-4,0,0,-1,2,4,3,7
1570181488532911,-1,-1,-1,-1,-2,-3,-4,5
1570181488548001,-1,-1,-1,-2,-1,-3,-4,-14
1570181488548001,2,-3,-2,-2,0,-3,0,4
1570181488549276,-4,-2,-1,-2,0,1,11,-22
1570181488549276,2,-2,-2,0,1,0,-5,3
1570181488570811,-1,-1,-1,0,0,0,1,2
1570181488570811,-1,-1,-1,1,1,9,1,2
1570181488571820,-1,0,-1,-2,-1,-5,-1,-4
1570181488571820,-4,-1,-1,0,-1,0,1,-4
1570181488583905,1,0,1,0,-2,1,-7,5
1570181488583905,-3,1,0,-1,1,3,2,-6
1570181488592751,3,0,0,-1,-1,0,-3,8
1570181488592751,-1,0,-1,1,0,-1,1,1
1570181488607709,2,-1,-1,-2,-1,2,1,6
1570181488607709,1,-1,-1,-1,-3,-2,-1,0
1570181488609705,-1,2,1,1,-3,-3,-7,-1
1570181488609705,-1,-1,-2,-2,-1,-2,-2,-1
1570181488630653,0,-2,-2,0,1,-3,5,13
1570181488630653,-4,-1,1,-1,0,-6,-2,-19
1570181488631931,-1,1,2,-1,0,-5,-17,4
1570181488631931,4,0,-1,-1,1,2,1,3
1570181488643844,-1,0,-1,0,0,-2,-1,0
1570181488643844,-2,-1,0,0,-2,-4,3,-4
1570181488652588,0,0,-2,0,0,-1,2,1
1570181488652588,-1,0,1,1,0,-1,-1,0
1570181488667559,0,0,-1,1,-1,-2,-5,-4
1570181488667559,0,-2,-1,-1,-3,-4,-8,7
1570181488669544,2,-1,-1,0,-1,-1,4,3
1570181488669544,0,0,-1,-1,-1,0,-4,-9
1570181488690728,-1,0,-2,-1,-2,0,2,5
1570181488690728,-1,1,-2,-1,0,-1,-1,-3
1570181488691488,-3,-1,-2,0,-1,-2,-1,1
1570181488691488,-1,0,-2,-1,-1,-2,-1,-1
1570181488704452,-3,-2,-2,-1,0,-6,-3,-10
1570181488704452,2,-1,-1,0,-5,-7,-2,1
1570181488712429,-3,-2,-1,0,-2,2,7,-3
1570181488712429,-1,0,-2,1,1,0,2,1
1570181488727566,0,0,0,-2,-1,3,1,-5
1570181488727566,3,2,2,2,1,-1,1,14
1570181488729386,-1,-1,-2,-1,2,5,3,4
1570181488729386,0,0,1,0,-1,-1,-2,0
1570181488750336,-1,0,-1,0,-1,-10,1,2
1570181488750336,-3,-2,-3,-4,-2,6,5,-11
1570181488751417,-2,3,4,-1,1,-1,-11,-2
1570181488751417,5,-1,-1,0,0,0,2,13
1570181488773270,1,-1,-1,-1,-1,4,1,3
1570181488773270,1,-1,-1,-1,-1,-5,-5,2
1570181488774268,-2,-1,-1,-2,0,-1,0,-8
1570181488774268,-3,-1,-1,-1,-1,4,-1,-3
1570181488795417,0,0,0,1,-1,-4,1,2
1570181488795417,-2,1,-1,-1,0,1,3,0
1570181488796207,1,0,0,1,2,13,-1,6
1570181488796207,0,-1,2,0,-1,-12,-4,-3
1570181488809213,-2,-3,-2,-1,-2,1,-2,-2
1570181488809213,-1,-1,-2,-2,1,-1,-1,0
1570181488810168,0,-3,-1,-2,1,1,0,-2
1570181488810168,0,1,-1,-2,-2,1,0,-1
1570181488832346,1,0,-1,-1,0,3,4,11
1570181488832346,-1,2,1,0,0,2,-2,2
1570181488833109,0,-2,-3,-2,-1,-7,-4,-6
1570181488833109,-1,0,0,1,1,1,3,-4
1570181488847213,0,-1,0,0,0,-2,-6,-6
1570181488847213,0,0,0,1,0,1,0,-1
1570181488848071,1,-1,-2,-1,-3,-3,4,2
1570181488848071,-2,0,1,0,-2,-3,-5,5
1570181488869787,-2,-2,-1,-1,-1,5,1,-3
1570181488869787,0,-1,-1,-2,1,-3,-1,1
1570181488870013,-1,1,0,-1,-7,-10,-8,4
1570181488870013,-3,0,-1,-1,1,0,-2,-10
1570181488892154,0,0,1,-2,0,-1,0,2
1570181488892154,1,-3,-1,1,-2,1,4,2
1570181488892949,-2,-1,-1,0,-1,-3,3,-4
1570181488892949,-2,-1,-2,-2,-2,0,-3,-6
1570181488907419,1,0,0,-1,-1,3,6,17
1570181488907419,0,-2,-2,-3,0,-3,-1,-5
1570181488907924,-2,-1,-1,-1,1,21,5,-4
1570181488907924,6,-1,-1,1,-1,-12,-21,18
1570181488929898,1,0,1,-2,-1,-1,-5,-6
1570181488929898,0,-1,-2,0,-1,-1,0,1
1570181488930849,2,2,1,1,0,0,-1,2
1570181488930849,-4,-2,-3,-2,-2,6,8,-2
1570181488951793,-1,-2,-2,0,0,-1,1,-7
1570181488951793,1,0,0,-1,-2,-2,-3,4
1570181488952795,-3,-3,-2,-1,-1,-6,-3,-6
1570181488952795,0,-1,0,-1,0,2,6,-1
1570181488966757,-1,-1,-1,-1,-2,-4,-4,-5
1570181488966757,-1,1,-1,-1,-3,2,2,-6
1570181488967748,1,-2,-2,1,0,-5,2,16
1570181488967748,1,0,-1,-1,-2,1,4,-2
1570181488989726,-1,0,-1,1,0,-2,-1,1
1570181488989726,0,1,1,-1,1,9,1,1
1570181488990687,3,-3,-3,-3,0,-3,10,9
1570181488990687,1,1,0,1,0,2,1,-1
1570181489011633,-2,-2,-1,-1,1,1,0,-9
1570181489011633,-2,-1,0,1,-1,-5,-3,1
1570181489012626,-2,-1,-1,0,-2,-6,-2,-8
1570181489012626,-5,-2,0,0,0,2,3,-5
1570181489026594,1,-2,-3,0,-1,2,0,-2
1570181489026594,-4,-2,-2,-3,1,9,6,-3
1570181489027587,3,2,3,1,-1,-10,-5,-2
1570181489027587,0,-1,0,-1,-1,-1,-1,-1
1570181489049529,0,0,-2,-1,0,-1,-1,0
1570181489049529,0,-2,-1,-1,-2,-3,-3,2
1570181489050527,-2,-1,1,1,0,2,-2,-8
1570181489050527,0,-1,0,-1,-1,-1,-1,3
1570181489072466,0,2,0,-1,1,6,3,3
1570181489072466,-3,0,0,-1,-3,-16,-5,-4
1570181489072466,-3,-2,-1,-1,-1,0,-4,-6
1570181489072466,-2,-2,-2,-1,-1,0,7,-4
1570181489087427,-1,-1,2,1,-1,-1,-1,-2
1570181489087427,-2,-1,-1,-1,-1,-2,0,-5
1570181489087427,6,0,-1,-1,-1,-1,-1,18
1570181489087427,-2,-2,0,-2,0,0,2,-1
1570181489109574,-1,-1,-1,0,-2,-7,-4,-2
1570181489109574,1,2,1,0,1,7,1,1
1570181489110566,-4,-1,0,-1,1,3,2,-9
1570181489110566,-1,1,-2,1,0,1,-2,1
1570181489132345,2,1,-1,0,-3,-1,-1,0
1570181489132345,-2,0,-1,0,-3,-3,-5,-3
1570181489132345,-3,-1,-2,-1,-2,1,-3,-5
1570181489132345,1,0,1,-1,0,-2,-3,5
1570181489147275,0,1,-1,-1,0,0,-1,3
1570181489147275,-1,-1,-1,0,4,11,21,-7
1570181489147275,-1,-2,-1,-3,-9,-8,-10,-7
1570181489147275,-1,-1,1,0,-3,-9,-2,-5
1570181489169355,2,-2,-2,-2,-2,1,2,1
1570181489169355,-1,0,-1,-3,-1,0,0,-1
1570181489170207,-1,2,-1,-1,0,5,1,1
1570181489170207,0,-1,0,-2,2,2,-2,-4
1570181489192157,-2,-1,0,-1,-1,-3,-1,0
1570181489192157,-2,-2,-2,0,-1,-2,-9,-5
1570181489193146,3,1,0,1,0,-1,2,7
1570181489193146,-4,1,-1,-1,-1,-2,-4,0
1570181489207198,1,0,0,0,1,0,-3,3
1570181489207198,0,-3,-1,0,0,-2,1,14
1570181489215099,-1,1,1,0,2,-1,0,-3
1570181489215099,2,0,-2,0,-1,3,3,1
1570181489230071,-4,-2,-1,-1,-2,-2,0,-3
1570181489230071,1,-1,0,0,1,7,0,-2
1570181489230071,3,-1,1,0,0,-3,-18,8
1570181489230071,-1,-2,-2,0,1,-2,4,5
1570181489252268,-1,0,0,1,1,5,1,-2
1570181489252268,0,-1,1,-1,-2,-7,-5,-2
1570181489252987,-1,-2,0,-1,0,0,3,4
1570181489252987,0,0,-1,0,-1,2,0,0
1570181489267189,1,-1,-1,-1,-2,5,-3,1
1570181489267189,-3,0,-2,-2,-4,-17,-10,-16
1570181489267947,-2,0,0,0,-1,3,9,-5
1570181489267947,1,-1,-1,1,-1,2,0,7
1570181489290138,-2,-1,0,-1,-1,-3,2,-1
1570181489290138,1,-1,0,0,0,2,-2,6
1570181489290138,-5,-2,-1,-3,-1,-3,1,-8
1570181489290138,2,-1,-1,-1,0,-2,-5,-5
1570181489312061,0,0,2,-1,-2,1,2,-7
1570181489312061,0,-1,-3,-2,-1,0,1,1
1570181489312835,1,2,-1,1,1,1,1,0
1570181489312835,-2,-1,1,-1,-2,-3,-1,-3
1570181489326892,-8,-3,-3,-1,3,3,10,-20
1570181489326892,1,-1,-1,0,-2,-6,-6,-2
1570181489327785,2,1,-2,0,-2,3,5,7
1570181489327785,-5,-2,0,-1,-1,-1,-3,-11
1570181489349727,0,0,0,-1,-2,-6,-3,-4
1570181489349727,-2,1,0,1,-1,2,-1,2
1570181489350722,2,-1,-1,0,0,0,0,-1
1570181489350722,-1,1,1,0,0,1,-1,-10
1570181489371747,1,-2,-1,-1,-2,-3,-5,2
1570181489371747,-1,0,1,-1,1,3,2,3
1570181489372407,-2,0,-1,-1,0,-1,-1,2
1570181489372407,-1,0,-1,-3,0,0,1,-2
1570181489395557,1,-1,0,0,-1,0,-2,4
1570181489395557,1,0,-1,1,0,1,1,5
1570181489396351,-2,-2,-1,-2,0,-3,0,-2
1570181489396351,-2,-1,-2,1,0,0,1,6
1570181489409319,-1,0,-1,-1,1,-3,-2,1
1570181489409319,-3,-2,1,-1,0,3,12,-20
1570181489410324,-2,-1,0,1,-1,-1,-6,-3
1570181489410324,5,0,-2,-1,2,18,0,12
1570181489440529,-1,-1,-1,-1,-1,-11,-4,1
1570181489440529,2,0,-2,-1,-2,-2,3,3
1570181489441227,-3,-1,-1,-1,1,-1,0,-10
1570181489441227,1,1,0,0,-2,-2,0,0
1570181489446276,-1,0,0,0,2,5,1,4
1570181489446276,0,-2,-2,-1,-3,-2,-5,5
1570181489455190,-1,-1,1,1,-2,1,0,-1
1570181489455190,-1,0,0,-2,-2,-5,-3,-6
1570181489469331,0,0,1,0,-3,-1,-1,1
1570181489469331,-2,0,0,0,-1,-2,0,3
1570181489470151,2,0,-1,0,-3,-5,-4,-3
1570181489470151,1,-1,-1,-1,0,-1,1,3
1570181489492472,2,0,-2,0,-1,0,0,3
1570181489492472,1,0,-1,0,1,3,-2,4
1570181489493153,-4,-3,0,-1,1,-2,0,-2
1570181489493153,-1,-1,1,-1,-3,-3,-4,1
1570181489506111,0,0,1,-1,-3,-10,-4,2
1570181489506111,-1,-1,0,1,1,-5,10,-12
1570181489515031,-1,2,0,-2,0,-1,-4,-1
1570181489515031,-3,-1,0,0,-2,-6,-2,-9
1570181489530037,0,-1,0,-2,2,4,0,0
1570181489530037,-2,0,-1,-1,-2,-2,-1,1
1570181489530037,2,-1,-1,0,-1,-3,5,15
1570181489530037,-1,1,1,-1,0,8,3,0
1570181489551978,-2,0,-1,-1,0,2,0,-1
1570181489551978,3,3,0,-1,-2,-7,-8,4
1570181489552927,-1,-2,-2,-1,2,10,2,3
1570181489552927,-1,0,-2,0,-2,-4,-5,-1
1570181489567888,0,-1,0,0,-1,0,1,0
1570181489567888,-1,-1,-1,0,-1,-2,-5,-3
1570181489575002,1,0,-1,-1,-1,-2,-1,1
1570181489575002,-1,-1,1,0,-1,-3,0,0
1570181489590038,-3,1,1,1,-1,-4,-4,-9
1570181489590038,2,-3,-2,-3,-1,3,-1,12
1570181489590038,-1,0,0,-1,0,-1,0,-4
1570181489590038,2,-2,-2,-1,-1,-4,0,-3
1570181489611905,0,-1,-1,0,0,3,-2,-4
1570181489611905,-2,-1,-1,-1,1,14,13,-7
1570181489612767,-2,0,-2,-2,-4,-15,-4,-5
1570181489612767,0,-2,-1,-1,-1,-2,0,3
1570181489626729,-2,-2,-1,-3,0,2,-1,1
1570181489626729,-3,0,1,0,-1,0,-2,-3
1570181489634758,-3,0,0,1,-1,5,6,-4
1570181489634758,0,-1,-1,0,0,-1,-1,3
1570181489657915,0,-1,-1,-1,-1,-7,-1,0
1570181489657915,0,-1,-1,-1,2,2,-7,-1
1570181489658649,-3,-2,0,0,-2,6,0,-6
1570181489658649,-2,-1,-2,0,-1,-3,-3,0
1570181489672609,0,0,0,1,-1,0,-2,-6
1570181489672609,1,-1,-1,-1,-1,-7,-2,3
1570181489672609,0,0,-1,0,2,7,1,2
1570181489672609,0,-1,-1,0,0,4,4,-1
1570181489686573,-6,-3,1,0,-2,-1,-8,-18
1570181489686573,1,1,0,0,-2,0,2,-2
1570181489694553,-1,-1,-1,0,-1,-4,-1,0
1570181489694553,-1,-1,0,-1,-2,-1,0,0
1570181489709515,-4,-2,-1,-1,0,1,9,-9
1570181489709515,2,-1,0,0,0,-3,-13,9
1570181489710507,-1,-3,-1,-2,-3,-14,-5,-2
1570181489710507,0,-1,-1,0,1,-6,-1,-1
1570181489732520,2,0,-2,0,-2,1,2,4
1570181489732520,-1,-1,-1,-1,-1,1,1,-3
1570181489732520,2,0,0,-1,-2,4,2,4
1570181489732520,-3,0,0,0,3,1,-2,-5
1570181489755602,3,1,1,0,-3,-5,-2,8
1570181489755602,0,-1,-1,0,0,1,0,1
1570181489756388,-1,0,1,1,0,0,-2,0
1570181489756388,1,0,-1,-1,-2,0,0,2
1570181489769349,2,0,-1,-1,2,4,-2,-6
1570181489769349,-3,-1,-2,-1,-1,-5,-2,-7
1570181489770348,2,0,1,0,2,3,4,4
1570181489770348,-1,0,0,-1,-2,0,-2,-3
1570181489792322,2,0,0,-1,0,2,3,23
1570181489792322,-1,0,-1,-1,-3,-1,-8,-4
1570181489792322,0,0,0,-1,0,7,-2,-2
1570181489792322,-3,-2,-2,-2,-8,-22,3,-13
1570181489815447,2,2,-1,0,2,4,-9,9
1570181489815447,-5,-2,-2,-4,1,0,1,-6
1570181489816230,3,1,0,0,0,1,2,7
1570181489816230,-1,0,0,-1,0,6,3,-8
1570181489829334,0,0,-2,0,-2,-1,-3,-2
1570181489829334,-3,-1,0,-1,-1,-3,1,2
1570181489830189,1,1,1,1,1,-3,-7,3
1570181489830189,-1,-1,-2,-1,0,0,-7,-6
1570181489852135,-1,-2,0,-1,-2,-2,2,-2
1570181489852135,3,1,1,-1,2,2,2,7
1570181489853125,-1,-2,-1,0,-1,-1,2,-1
1570181489853125,2,0,1,-1,1,4,-1,2
1570181489875067,-1,-2,-3,-2,-1,2,0,6
1570181489875067,0,-1,0,0,0,-1,-2,-4
1570181489876065,-1,0,-1,0,0,-5,1,1
1570181489876065,0,-2,-2,-1,1,5,0,3
1570181489889065,-4,-3,0,-2,-3,1,15,-17
1570181489889065,3,-1,0,1,3,10,-3,6
1570181489890027,-3,-1,1,-2,-7,-19,-5,-10
1570181489890027,-2,1,-1,-1,-1,1,0,0
1570181489912005,1,-1,-1,0,0,-2,1,0
1570181489912005,0,0,-1,1,-2,-1,-1,-6
1570181489912966,1,-2,-4,-2,2,6,2,9
1570181489912966,2,0,0,0,-2,-1,-1,-4
1570181489934943,-3,-1,-1,0,-3,-7,-5,-5
1570181489934943,3,-2,-2,-2,1,6,3,11
1570181489935905,-2,0,0,1,0,-1,-4,-3
1570181489935905,-1,-1,1,0,0,-2,1,6
1570181489949866,2,0,0,-1,2,3,-1,17
1570181489949866,-3,-2,-1,-1,-1,-5,0,-5
1570181489949866,-2,-1,-2,-1,-1,2,2,-5
1570181489949866,-2,0,0,0,-1,4,2,0
1570181489971845,2,3,1,1,-2,-5,-10,4
1570181489971845,-1,-2,0,-2,-1,-4,0,0
1570181489972804,0,-1,-1,-1,-1,1,2,1
1570181489972804,0,0,0,0,1,1,-4,-2
1570181489994844,-3,-2,-3,-1,0,3,14,-10
1570181489994844,1,1,-1,-1,-1,-3,-4,4
1570181489995744,-2,-1,-1,-1,0,1,-2,-7
1570181489995744,2,-1,-2,-2,-1,-1,0,9
1570181490009707,-2,-2,-1,0,-2,-1,3,-8
1570181490009707,-1,0,-1,1,-3,-2,0,-2
1570181490010589,-4,-3,-1,0,-2,3,3,-5
1570181490010589,1,0,-3,-1,-1,-1,0,-1
1570181490031649,1,0,1,1,2,-1,-6,0
1570181490031649,-1,0,-2,0,1,-2,0,1
1570181490032931,-3,-3,-2,-3,-2,-1,-6,-14
1570181490032931,-1,-1,-1,0,0,-2,-3,-1
1570181490055688,0,-1,0,-1,-2,-6,-8,-1
1570181490055688,-2,0,-1,0,0,-7,1,1
1570181490055688,-1,-1,-1,-3,0,0,1,-1
1570181490055688,0,-1,0,2,-1,-3,1,-1
1570181490069549,1,-1,0,-2,0,2,-3,7
1570181490069549,-1,-1,0,0,-3,-1,-2,-3
1570181490070609,-4,0,-1,1,-2,1,14,-15
1570181490070609,1,-1,0,-1,1,0,-3,2
1570181490091489,0,-2,-1,-2,0,3,-1,2
1570181490091489,2,1,-1,-1,-1,0,2,7
1570181490092914,2,0,1,0,1,-1,-4,9
1570181490092914,-3,0,0,0,-2,-1,0,-2
1570181490115426,-1,-1,-1,0,-2,1,2,0
1570181490115426,-2,0,0,1,0,-1,-3,-8
1570181490115426,3,1,1,0,-1,1,-3,5
1570181490115426,-2,-2,-1,0,-1,-5,-1,-2
1570181490129586,-3,0,1,0,2,7,-2,-2
1570181490129586,-2,-1,-1,1,1,1,1,-1
1570181490130383,1,0,0,-2,0,-1,-1,4
1570181490130383,1,1,-1,0,-1,-2,-1,6
1570181490152361,-2,0,-1,0,-1,4,1,-2
1570181490152361,-3,-2,1,0,-3,-11,-4,-4
1570181490152361,1,1,-1,0,0,2,0,5
1570181490152361,-1,-1,-1,-2,0,1,-2,-5
1570181490175554,0,-2,-2,-1,-3,-11,-3,-1
1570181490175554,2,2,-1,2,1,-1,0,1
1570181490176260,1,0,0,-1,0,-3,-4,4
1570181490176260,-2,0,1,-1,-1,-2,2,-1
1570181490189227,-1,1,0,0,-2,1,-3,-4
1570181490189227,-1,0,-1,-2,-2,2,2,1
1570181490190226,2,0,-2,-1,0,-3,-3,15
1570181490190226,1,-2,-3,0,-1,5,3,5
1570181490212163,-6,-3,-1,-1,0,0,-2,-14
1570181490212163,7,1,1,-3,0,1,2,25
1570181490213161,-3,-2,0,-2,-2,1,1,-5
1570181490213161,-1,0,0,0,-1,1,-2,-4
1570181490236104,2,1,-1,0,-3,-3,0,9
1570181490236104,-3,-2,-2,0,0,-1,0,-10
1570181490236104,-2,0,-1,-2,2,0,0,-8
1570181490236104,3,0,1,-1,-1,-3,-7,8
1570181490249129,-2,-1,-2,-2,0,-3,1,-1
1570181490249129,0,-2,-1,-1,-1,1,0,-5
1570181490250062,1,-1,-1,0,0,3,0,-2
1570181490250062,-4,-1,-1,0,-2,-5,-2,-6
1570181490272008,2,1,-2,0,1,11,2,7
1570181490272008,-2,0,2,1,0,-1,-3,0
1570181490273003,-1,-1,-1,0,-1,0,-1,0
1570181490273003,-2,0,0,-1,-1,1,2,-5
1570181490295234,-1,-1,-1,-2,-2,-3,-3,-2
1570181490295234,-2,-1,-2,-1,0,0,0,-6
1570181490296232,-2,-3,0,2,-1,-2,-6,1
1570181490296232,2,-1,-2,0,0,1,5,12
1570181490309200,1,-1,1,0,1,-5,0,3
1570181490309200,1,0,0,-1,-2,1,-5,-3
1570181490310195,-1,1,-1,-1,-1,-4,-2,-5
1570181490310195,-2,-1,0,-1,1,27,4,-2
1570181490332250,-5,-2,-1,-1,-3,-24,-12,-12
1570181490332250,-1,0,0,-2,1,8,4,-4
1570181490333134,-1,-1,0,1,-2,-2,1,0
1570181490333134,1,0,-1,-1,0,-1,-2,0
1570181490355156,0,-3,-1,1,1,8,2,-5
1570181490355156,-3,-1,-1,-1,-2,-2,-1,-6
1570181490356173,2,0,0,-1,-1,-2,1,3
1570181490356173,-2,0,-1,-1,-1,-4,-3,-4
1570181490369152,1,-1,0,0,1,2,-1,1
1570181490369152,0,-2,0,0,-1,-5,-1,-1
1570181490377097,1,-2,0,-1,-1,2,0,6
1570181490377097,-2,-1,0,-2,-1,-6,3,-2
1570181490392053,1,1,-1,-1,-2,0,1,8
1570181490392053,-3,-1,-2,-2,-2,3,0,-12
1570181490393050,0,-1,-2,-2,0,-1,0,-1
1570181490393050,-2,-2,-1,-1,-1,-3,0,1
1570181490415451,0,-1,1,-1,-1,0,-2,4
1570181490415451,-3,-1,-2,-2,-3,-2,3,-6
1570181490415451,6,3,1,0,-1,-7,-18,11
1570181490415451,0,-1,0,1,1,1,0,1
1570181490428414,-5,-1,0,-2,1,3,-1,-16
1570181490428414,0,-1,1,0,0,-2,0,4
1570181490436734,-4,0,-1,-1,-1,-3,4,-10
1570181490436734,-4,-1,-1,0,-2,-1,-3,-4
1570181490460329,6,0,0,2,0,0,-1,11
1570181490460329,0,-1,1,1,2,6,-1,3
1570181490461326,-3,-1,-2,1,0,-3,2,-3
1570181490461326,-1,0,0,0,-2,-3,-1,-2
1570181490475288,-3,-3,-1,-4,-1,0,0,-6
1570181490475288,0,0,-1,0,0,0,-1,4
1570181490476285,0,-2,-1,0,-2,4,3,-1
1570181490476285,-1,-1,-1,-1,-1,-4,-1,0
1570181490489315,-1,0,-2,0,-2,2,-2,-7
1570181490489315,0,-1,-2,-1,1,0,-1,6
1570181490497309,-6,-2,0,0,-2,-1,-6,-19
1570181490497309,0,-2,0,1,1,-2,-1,0
1570181490512401,2,2,-1,1,0,0,2,5
1570181490512401,0,0,0,-3,-2,-6,-2,2
1570181490512401,-1,-1,-1,-3,-1,-2,2,-2
1570181490512401,0,-2,-1,-1,-1,-1,-2,-4
1570181490535300,1,-2,-1,-1,0,-1,1,5
1570181490535300,-4,-2,-1,-1,0,2,8,-19
1570181490536291,1,1,0,0,2,-7,-9,0
1570181490536291,-1,-1,0,0,-3,4,2,-2
1570181490548540,0,0,0,1,0,-1,0,0
1570181490548540,1,-1,-1,1,-2,-4,-2,2
1570181490557456,0,-1,-2,0,0,4,3,0
1570181490557456,0,0,-2,-1,1,4,0,4
1570181490571624,-1,-3,-4,-4,-5,-19,-3,-8
1570181490571624,1,0,0,-1,0,-4,-2,5
1570181490572420,-7,-1,1,1,0,1,1,-21
1570181490572420,4,2,0,0,0,-6,-6,-5
1570181490595358,-2,0,-1,1,0,8,2,4
1570181490595358,-1,-1,-2,-1,-2,0,-5,2
1570181490596351,0,-1,-3,-2,-1,0,3,1
1570181490596351,-2,0,0,-1,-3,-2,-2,-7
1570181490608739,-1,1,1,0,2,4,3,2
1570181490608739,1,0,1,2,0,-5,-3,1
1570181490617294,0,0,-1,0,1,7,2,4
1570181490617294,-1,0,-1,-1,-1,-2,-1,0
1570181490632255,-1,-1,0,-1,0,1,-1,4
1570181490632255,1,1,-1,-2,0,0,0,4
1570181490632255,1,-1,-2,0,-1,1,2,6
1570181490632255,-1,-1,-2,0,0,-3,0,1
1570181490655309,-5,-1,-1,-1,0,-1,15,-14
1570181490655309,-3,-1,-1,-2,-1,-1,-5,-10
1570181490656190,-1,-1,0,-1,-1,-1,0,1
1570181490656190,2,0,-1,0,1,-2,0,8
1570181490678175,0,-1,-1,0,-2,-1,-2,0
1570181490678175,0,-2,-2,-2,0,-1,0,4
1570181490678175,-1,0,-1,-2,-1,2,0,2
1570181490678175,-3,-1,0,-2,0,10,2,-2
1570181490692098,1,1,0,0,-3,-18,-7,6
1570181490692098,1,-1,-1,1,5,11,4,13
1570181490694091,0,-1,0,0,-1,-3,-3,3
1570181490694091,-3,0,1,0,1,-2,0,-3
1570181490715034,1,-1,-3,-1,1,5,-5,-1
1570181490715034,1,0,0,0,-2,-3,-1,12
1570181490716031,-1,0,-2,-2,-1,-3,2,3
1570181490716031,0,-1,2,-1,0,-1,0,1
1570181490738010,-5,-1,-2,0,-1,1,-6,-12
1570181490738010,-3,0,0,0,-4,-5,-1,-6
1570181490738010,0,-2,0,0,0,2,1,-1
1570181490738010,-1,-1,0,1,-2,-6,-2,-2
1570181490751934,-1,-1,-1,-2,-1,3,0,4
1570181490751934,-2,-1,-2,-2,0,1,-1,-5
1570181490752934,1,1,0,0,0,-3,-1,0
1570181490752934,-1,0,-1,-2,-2,-3,-2,-4
1570181490774874,0,0,1,2,0,2,1,1
1570181490774874,2,0,-2,1,-1,-1,0,-3
1570181490775870,-1,-1,-1,-3,-1,0,0,0
1570181490775870,-1,0,-1,0,0,-3,1,4
1570181490797812,-3,-1,0,-1,-1,2,-2,-8
1570181490797812,-3,-3,-2,0,-1,-3,12,-18
1570181490797812,0,-1,0,1,1,1,-8,1
1570181490797812,0,-1,0,-2,-1,-2,-2,-3
1570181490812198,-1,-1,-1,-1,-1,0,-1,-2
1570181490812198,-2,-1,0,1,-2,-1,-1,-2
1570181490812773,-2,-2,-1,0,-1,-3,0,-5
1570181490812773,2,-3,-1,-1,-1,1,2,2
1570181490834716,0,-2,0,-1,0,1,-2,4
1570181490834716,0,0,1,0,-1,-2,-6,3
1570181490835822,1,0,0,-2,1,0,1,0
1570181490835822,-1,0,-2,-2,1,-2,-3,2
1570181490857753,1,-1,-1,0,0,-1,0,5
1570181490857753,0,1,-1,1,-2,0,-4,2
1570181490858751,0,0,-1,0,-1,-1,-1,0
1570181490858751,-2,0,-1,-3,-3,0,1,-5
1570181490872712,0,0,1,-2,-1,-1,2,-1
1570181490872712,2,-1,-1,-2,0,-1,-2,7
1570181490872712,-1,-2,-1,0,-3,-4,0,2
1570181490872712,1,0,0,1,4,11,2,1
1570181490894920,2,1,-1,0,1,0,3,2
1570181490894920,-1,-1,1,-1,1,-1,-3,0
1570181490895651,0,1,-2,0,1,2,1,5
1570181490895651,-3,-3,-2,2,-4,-3,-6,-21
1570181490917591,0,0,-2,0,1,0,1,5
1570181490917591,-1,-1,-1,-3,1,2,1,-4
1570181490918772,0,-1,-1,-3,-2,-2,1,2
1570181490918772,-4,-1,-1,-2,0,-3,13,-17
1570181490932549,-3,0,-2,0,-2,-1,-4,-2
1570181490932549,0,-1,-1,1,-1,-3,-1,-1
1570181490932549,-2,-1,0,0,-2,0,0,0
1570181490932549,-1,-1,-2,-2,-2,-4,0,5
1570181490955487,0,-1,0,-1,-1,-1,0,0
1570181490955487,0,0,-2,-1,0,0,1,4
1570181490955487,-3,0,0,1,-1,0,-1,-8
1570181490955487,2,-1,0,0,1,0,-1,9
1570181490977428,-1,-1,1,0,0,-1,-2,-1
1570181490977428,1,0,0,-1,0,-2,-3,1
1570181490978506,1,0,-1,-2,0,1,3,3
1570181490978506,0,-1,-2,-1,-2,-1,-2,2
1570181490991393,4,0,-1,-1,0,-6,1,7
1570181490991393,-1,-1,0,-1,-2,-1,-1,-5
1570181490992389,-1,-1,1,-2,-2,-4,-1,0
1570181490992389,0,1,-2,0,-1,1,-3,7
1570181491015327,-4,-3,0,1,-2,0,-4,-6
1570181491015327,-5,-3,-2,-1,-1,0,-8,-21
1570181491015327,0,1,0,1,-1,0,1,0
1570181491015327,0,-1,-2,-1,-3,-3,-3,2
1570181491037269,0,-1,-1,2,1,4,0,0
1570181491037269,-1,-1,0,0,-2,-6,-3,-1
1570181491038427,-7,-3,-2,1,1,10,12,-24
1570181491038427,5,1,1,-1,0,-4,-4,10
1570181491052306,0,-1,-1,-2,-1,0,1,-2
1570181491052306,1,1,-1,-1,0,0,2,5
1570181491052306,0,-2,0,-1,0,-2,1,-1
1570181491052306,-3,-1,0,-2,-2,-7,-3,0
1570181491075176,-1,-1,1,0,2,10,1,1
1570181491075176,2,1,-1,0,-3,0,1,11
1570181491076166,-1,0,0,0,1,-2,-7,3
1570181491076166,-1,0,-1,-2,0,1,0,-3
1570181491098110,2,0,-1,-1,-2,-4,-4,3
1570181491098110,-3,-1,-1,-1,-1,0,1,0
1570181491098110,0,1,-2,-3,-2,-3,-5,3
1570181491098110,1,0,-2,-1,1,2,0,1
1570181491112078,-2,1,-2,-2,-3,-1,1,-2
1570181491112078,3,1,0,1,2,2,5,20
1570181491113068,0,-2,-1,0,0,-3,-7,-3
1570181491113068,0,-1,1,1,0,-3,-1,-1
1570181491135165,-1,-1,-2,0,0,0,0,2
1570181491135165,-2,0,0,-2,0,-1,3,-2
1570181491136008,-5,-2,1,-2,-1,1,12,-20
1570181491136008,3,-1,-2,0,0,0,-3,11
1570181491158128,-2,-1,-2,-2,-5,-18,-4,-2
1570181491158128,-3,-2,-1,1,3,4,0,-16
1570181491158128,5,0,-1,-1,0,0,2,6
1570181491158128,-2,2,1,0,-2,0,-1,-7
1570181491171918,2,-1,0,-2,-1,3,3,1
1570181491171918,-2,1,0,-1,-2,-2,-4,-5
1570181491173081,1,-1,-1,1,-1,-4,-7,4
1570181491173081,-1,-1,1,0,0,1,-1,-4
1570181491195039,1,0,0,-1,0,1,-3,1
1570181491195039,0,-1,-1,-3,-1,-1,1,1
1570181491196013,2,-1,-2,-1,0,1,-3,6
1570181491196013,-2,0,-2,-1,-2,-2,0,1
1570181491217788,0,-1,-1,-1,0,3,7,9
1570181491217788,1,1,-1,0,-2,-1,-3,-1
1570181491218785,1,0,-1,0,-1,-1,-2,7
1570181491218785,-1,-2,-1,-2,0,-1,0,-4
1570181491232750,-5,-1,-3,-2,-2,-2,-1,-12
1570181491232750,4,0,0,0,0,-2,-18,18
1570181491232750,1,-1,-1,-3,-1,-3,-2,11
1570181491232750,-3,-1,-2,0,-2,1,1,-5
1570181491255109,1,-1,-1,0,3,17,-2,-8
1570181491255109,-3,-2,-2,-2,-4,-14,5,-7
1570181491255688,0,-1,1,0,-1,1,1,-2
1570181491255688,4,1,0,-1,1,-6,-5,13
1570181491277746,0,0,-1,0,2,-2,0,3
1570181491277746,-3,-1,0,0,-1,4,3,-5
1570181491279625,-1,-1,-1,0,-1,-4,-2,-3
1570181491279625,-3,-1,-1,3,1,5,3,-6
1570181491291592,0,1,0,-1,1,1,3,14
1570181491291592,1,-1,-1,1,1,1,-1,-1
1570181491300568,-3,0,-2,-1,-2,-7,-4,1
1570181491300568,2,-1,-2,0,-3,3,0,0
1570181491322515,-1,-1,1,-2,-1,-3,-3,-6
1570181491322515,-1,1,1,0,-1,-4,1,-4
1570181491324504,-1,0,-2,-2,0,3,1,0
1570181491324504,-7,-2,-1,-1,-3,-4,11,-15
1570181491337522,3,1,-1,0,0,1,-6,1
1570181491337522,-1,0,0,-1,-1,0,0,-4
1570181491339711,-2,1,0,-2,1,2,-1,-5
1570181491339711,0,-1,-1,-1,2,0,3,4
1570181491351430,-2,-2,-1,0,-1,-4,1,-4
1570181491351430,-2,-1,-1,-1,0,2,1,1
1570181491360407,-1,-2,0,-1,-1,0,0,-1
1570181491360407,1,1,-1,0,0,-3,-3,5
1570181491375367,-4,-1,-2,-1,0,-4,-2,-9
1570181491375367,5,1,-2,0,0,-2,3,21
1570181491376364,-1,2,0,-1,2,7,0,-1
1570181491376364,-2,0,-3,-1,2,-5,-3,2
1570181491398390,1,0,-1,0,-3,-8,0,-5
1570181491398390,-2,-3,-3,-1,1,0,2,-7
1570181491399304,3,0,-2,-1,-4,-7,-5,5
1570181491399304,-1,1,0,-1,2,7,-4,1
1570181491411277,-1,0,-1,-2,-2,-3,-1,1
1570181491411277,-2,-1,-2,-1,2,4,-1,-6
1570181491420246,0,-1,1,0,-1,-2,-1,3
1570181491420246,2,-2,-2,0,-2,1,-4,1
1570181491434367,-2,1,-1,0,-3,-2,-1,-5
1570181491434367,-2,0,-1,0,-3,-2,-5,-6
1570181491441568,-1,-1,-2,-3,0,-1,0,-1
1570181491441568,2,-1,2,-2,-4,-6,-1,-2
1570181491457336,-1,-3,-1,-2,-1,0,1,1
1570181491457336,-2,-1,-1,-1,-1,2,1,-7
1570181491459144,-5,-4,-2,1,-1,-2,-3,-15
1570181491459144,-3,1,-2,1,-1,-8,-5,-6
1570181491471155,2,-1,0,1,-1,2,3,10
1570181491471155,-1,-2,0,0,0,-1,-2,-3
1570181491480086,-2,-1,-2,-2,0,-2,0,-3
1570181491480086,1,-1,-1,-2,0,10,0,4
1570181491495046,0,-1,-1,0,2,3,0,4
1570181491495046,0,0,-2,-1,-2,-2,0,-1
1570181491497051,0,0,0,0,-2,-1,1,0
1570181491497051,-2,-1,0,0,-1,0,2,1
1570181491518002,-2,0,-2,-2,0,2,0,-5
1570181491518002,7,1,3,1,-1,-4,-22,21
1570181491518983,-1,-1,1,-1,-1,2,-1,-4
1570181491518983,-2,-2,1,-2,-2,-2,-4,-5
1570181491531165,1,0,1,-1,-2,-3,-4,-2
1570181491531165,-3,-2,-4,-1,-2,1,5,-8
1570181491540214,-1,0,0,-2,-1,-1,3,12
1570181491540214,-1,0,1,0,0,-7,-5,-2
1570181491554997,-3,-3,0,0,-2,-4,-1,-5
1570181491554997,-3,-1,1,-1,0,3,5,-7
1570181491557880,6,-1,-2,-1,-3,-3,0,4
1570181491557880,-3,-3,0,-2,0,1,2,-7
1570181491577826,2,-1,1,0,0,-2,-2,8
1570181491577826,1,-1,-2,0,-3,-3,3,3
1570181491578823,-3,1,-1,0,-1,0,-4,-3
1570181491578823,-4,-2,0,-1,-1,-1,-2,-5
1570181491591792,0,-2,-1,-2,1,0,-1,-3
1570181491591792,-2,-1,-1,1,-1,0,-2,-1
1570181491599766,-1,0,-2,2,0,0,0,1
1570181491599766,1,0,-2,-1,0,2,1,0
1570181491614730,5,1,1,2,-1,7,-16,13
1570181491614730,1,-2,-2,-1,-3,-13,4,11
1570181491616721,-1,-1,-1,-1,0,5,0,-4
1570181491616721,1,1,-1,0,-2,0,-1,-2
1570181491637846,-5,-2,-3,-1,0,3,4,-5
1570181491637846,-2,0,0,-1,-3,-11,-2,-8
1570181491639660,-1,-2,-1,0,-1,-2,-3,0
1570181491639660,1,1,-2,-2,-2,-4,2,4
1570181491659657,-2,-2,-2,-2,1,2,3,-6
1570181491659657,-2,0,1,0,2,4,-1,-7
1570181491661603,-3,-2,1,-1,-1,-4,1,-3
1570181491661603,-1,0,-1,-1,-2,-2,0,-4
1570181491675564,-3,-1,-3,-2,-2,-5,1,-4
1570181491675564,-1,1,0,0,0,1,-3,-10
1570181491676561,4,1,-1,1,0,-3,-1,8
1570181491676561,0,-1,-2,1,0,1,-3,-1
1570181491697505,1,-1,2,0,-1,-3,-1,-2
1570181491697505,-1,0,-3,-2,1,2,1,0
1570181491699499,-1,-1,-1,-1,0,0,1,-2
1570181491699499,0,-1,0,-1,0,-1,0,2
1570181491720444,-4,1,0,0,1,-2,8,-11
1570181491720444,-3,-2,-2,-3,-6,1,4,-9
1570181491721440,-1,0,0,0,-2,-3,3,10
1570181491721440,-2,-1,0,-1,1,15,-1,-1
1570181491735403,2,0,0,-2,0,-10,-3,-4
1570181491735403,1,-3,-1,1,1,-1,-3,-1
1570181491736494,0,1,0,-1,1,6,1,-4
1570181491736494,2,1,0,0,-1,-2,6,10
1570181491757344,0,-1,-3,0,-2,3,0,1
1570181491757344,0,1,0,-1,1,3,1,3
1570181491759530,-1,0,0,-1,-1,-12,-4,-5
1570181491759530,-2,-2,-1,0,-1,-4,1,-4
1570181491780304,-1,0,0,-1,-1,1,-3,-2
1570181491780304,2,0,1,0,1,-3,-1,4
1570181491781574,-1,-1,-3,-1,1,5,3,-2
1570181491781574,-2,-1,-1,0,-1,-1,-2,-4
1570181491794248,0,-1,-2,-2,-1,-1,-2,2
1570181491794248,-1,-1,-1,0,0,5,0,-4
1570181491801230,-2,-1,-1,-1,-1,-2,-1,2
1570181491801230,-4,-2,-3,-3,-1,0,11,-16
1570181491817185,-3,-2,-1,0,-1,-3,-9,-13
1570181491817185,-1,0,-1,0,2,3,0,4
1570181491819180,0,0,2,-1,-2,-3,0,-2
1570181491819180,0,-2,0,0,1,-2,-1,2
1570181491840173,0,1,-1,-2,-1,0,2,-1
1570181491840173,-2,-1,-1,-1,2,0,0,0
1570181491842122,-4,-4,-3,-2,-1,-5,-7,-14
1570181491842122,1,0,0,0,-2,-1,-6,1
1570181491854090,1,0,-3,-2,-2,2,4,5
1570181491854090,0,0,1,0,-1,-1,-1,1
1570181491861069,-1,-1,-1,-1,0,1,-1,2
1570181491861069,1,0,-1,0,-1,-1,-5,2
1570181491878024,-1,1,-1,1,0,0,0,-1
1570181491878024,-2,-1,-1,-1,-1,-2,2,-1
1570181491880017,2,0,-1,1,-1,2,-1,1
1570181491880017,-2,-1,1,-1,1,-3,-3,2
1570181491899966,-1,-1,0,0,-1,6,2,2
1570181491899966,-5,-3,-2,-4,-7,-23,-4,-3
1570181491901960,-3,0,0,1,3,19,6,-19
1570181491901960,5,1,-2,0,0,-3,-12,15
1570181491914927,-1,-1,0,-1,-2,-1,-2,1
1570181491914927,1,-1,0,1,2,7,2,2
1570181491920912,-2,-2,-2,-1,-7,-11,-2,-8
1570181491920912,-1,-1,1,-1,-1,-5,2,-2
1570181491937866,-3,0,1,0,1,4,2,-3
1570181491937866,3,1,0,1,0,2,-2,5
1570181491938898,3,-2,-2,0,1,-4,-3,5
1570181491938898,0,-1,-1,0,1,4,1,-3
1570181491959809,-1,0,-1,-3,-4,-5,-2,4
1570181491959809,-1,-2,-1,-1,0,5,1,-4
1570181491961864,-2,1,0,0,1,-1,-1,5
1570181491961864,-1,0,0,1,0,-2,1,-8
1570181491974763,-3,-3,1,0,0,-3,0,-4
1570181491974763,1,0,-1,0,-1,0,0,2
1570181491988903,-1,0,0,-1,0,1,-1,0
1570181491988903,1,0,0,-3,0,0,0,3
1570181491997701,1,1,1,2,0,-2,3,10
1570181491997701,-2,0,0,1,0,3,-2,-6
1570181491998715,-2,0,0,-1,-2,-3,1,0
1570181491998715,3,0,-1,0,-1,-4,-14,18
1570181492020641,0,-1,-1,-1,-2,-5,-3,-3
1570181492020641,1,-2,0,-3,2,4,2,1
1570181492021639,1,-3,-1,-1,0,2,2,4
1570181492021639,-6,-2,-2,0,-2,1,3,-5
1570181492034607,0,0,-1,-1,-1,0,3,-4
1570181492034607,10,2,-3,0,-3,1,1,25
1570181492041678,-3,0,0,-2,0,-3,-4,-7
1570181492041678,0,-2,-1,-1,-1,-3,2,-2
1570181492057546,0,-2,-1,-1,-1,11,1,0
1570181492057546,-4,0,1,2,2,7,8,2
1570181492059539,1,-1,-2,-1,-1,0,0,9
1570181492059539,-2,0,-1,0,-1,-1,3,-2
1570181492080491,0,-1,0,-1,2,0,-3,3
1570181492080491,-3,-1,-1,0,-1,-3,-3,-8
1570181492081481,2,1,1,-1,-3,-1,-1,2
1570181492081481,-5,-1,0,-1,0,0,2,-10
1570181492094448,3,1,0,-2,0,-2,-13,8
1570181492094448,-2,-1,-2,-1,0,0,-2,-15
1570181492101426,5,0,0,-1,0,-3,4,10
1570181492101426,-5,0,-2,-1,-1,0,0,-16
1570181492117383,-1,-1,-2,-1,-3,-4,2,-5
1570181492117383,0,-1,0,-1,0,-3,-3,-2
1570181492119518,1,0,-1,-1,0,3,-3,3
1570181492119518,2,-3,-1,-1,-1,2,1,5
1570181492140327,-1,-2,0,2,-1,-3,0,0
1570181492140327,-2,-1,-1,0,-1,-2,-3,-7
1570181492141414,-1,0,-2,-1,-1,2,3,-1
1570181492141414,-1,-2,-1,-1,-2,1,-2,3
1570181492153329,-1,-1,0,-2,-1,-2,-2,-6
1570181492153329,1,-3,-1,-2,3,17,5,-2
1570181492162268,-2,-2,0,-2,-7,-14,-4,-5
1570181492162268,2,0,-1,-1,-1,-3,0,5
1570181492178224,1,1,-1,0,0,1,1,2
1570181492178224,-2,0,0,-1,-2,1,1,-3
1570181492179216,-1,-2,0,-1,-1,4,-3,-5
1570181492179216,1,1,0,2,1,0,0,1
1570181492200165,-3,0,0,-1,0,1,2,-4
1570181492200165,1,0,-2,-1,-4,-9,-2,5
1570181492202183,-3,0,-2,1,1,4,-1,-11
1570181492202183,1,0,0,-4,-2,-3,-3,2
1570181492214127,0,-1,-2,-1,0,-1,-1,-3
1570181492214127,-1,2,1,0,-1,-4,-4,-1
1570181492223099,1,-1,0,0,1,-2,2,3
1570181492223099,-3,-1,0,0,2,3,4,-5
1570181492238063,-2,0,-1,-1,-2,-2,1,1
1570181492238063,-1,-2,-1,-1,-1,-4,-2,0
1570181492239057,0,-1,-2,-1,-1,0,1,4
1570181492239057,-1,0,1,0,-1,-1,-4,-5
1570181492260064,1,0,-1,-1,-1,1,0,6
1570181492260064,-1,-1,0,-1,-1,-2,-3,-2
1570181492266475,-3,0,-1,0,0,-1,-2,-1
1570181492266475,0,-1,-2,1,-1,-1,-1,1
1570181492274239,-2,-1,0,0,0,-2,0,-2
1570181492274239,-2,0,-1,0,-3,-6,0,-4
1570181492282939,-2,-1,-1,-1,2,3,3,-4
1570181492282939,1,-1,-2,-1,-2,-1,4,5
1570181492297898,-1,-2,0,0,0,-1,-1,-4
1570181492297898,-2,-1,0,1,-1,-1,0,4
1570181492298898,-1,-1,0,-2,-1,-2,-1,6
1570181492298898,0,-2,-2,0,0,-1,0,-4
1570181492319881,0,0,0,1,0,-2,0,0
1570181492319881,-1,0,-1,-1,0,-1,-1,0
1570181492322053,-2,0,-1,-1,0,-1,-1,-6
1570181492322053,-2,0,1,-1,-1,1,-2,-5
1570181492342788,0,-1,-1,-1,0,-3,0,15
1570181492342788,-1,0,-2,-1,0,1,-1,-1
1570181492343777,1,-1,-1,0,-1,-1,-2,2
1570181492343777,0,1,0,-3,-1,-2,0,4
1570181492357741,0,-2,0,-1,-1,-3,-3,-2
1570181492357741,-2,0,-1,-1,-1,0,0,-5
1570181492358738,-2,0,1,1,1,10,3,6
1570181492358738,2,0,-1,-2,-2,-11,-3,5
1570181492379680,-2,-1,-1,-1,-2,3,5,-4
1570181492379680,2,0,0,-1,0,0,0,0
1570181492381810,0,0,-1,1,0,0,-2,-3
1570181492381810,-1,-2,0,-1,2,2,-2,0
1570181492393646,-6,0,-1,-1,-1,3,12,-22
1570181492393646,1,-1,-3,-1,-1,1,-3,8
1570181492402626,-2,-1,-1,0,-1,-6,-1,-2
1570181492402626,-4,-3,0,0,0,3,0,-4
1570181492417582,-2,-1,-2,-1,0,-2,-1,-9
1570181492417582,4,1,1,2,-1,2,2,22
1570181492419673,0,-1,-2,-1,-2,-2,0,-1
1570181492419673,-1,0,-1,0,0,3,1,-4
1570181492440519,0,0,0,0,0,-1,-7,-7
1570181492440519,-1,-1,-1,-2,-1,-2,0,-6
1570181492441517,-2,-1,-1,-1,0,-2,-3,2
1570181492441517,0,0,-1,-1,-1,1,1,2
1570181492453926,1,-2,0,-1,-3,-2,-3,6
1570181492453926,-1,0,-1,0,-1,-3,-2,-3
1570181492462459,-1,1,1,-1,-1,-2,1,-2
1570181492462459,-3,-2,-2,0,-1,-2,-3,-12
1570181492477425,0,1,-1,-1,-3,-2,-2,3
1570181492477425,-2,-2,0,-1,0,4,4,-5
1570181492479415,0,-2,-2,-1,1,0,0,3
1570181492479415,1,0,1,0,-2,-3,-2,1
1570181492500358,1,0,-1,0,2,12,-2,13
1570181492500358,-2,-3,0,-1,-5,-11,-3,-5
1570181492501419,0,1,0,-1,2,7,2,-3
1570181492501419,-1,-2,-1,0,1,1,2,1
1570181492513424,-1,1,0,0,0,0,5,-3
1570181492513424,2,0,0,0,-1,1,-1,7
1570181492523192,-1,-1,-1,0,-2,-2,-1,-1
1570181492523192,0,0,1,-1,-2,-3,-4,-3
1570181492536263,1,1,0,-3,-1,-2,-2,0
1570181492536263,-3,-1,-2,-3,1,1,-1,-5
1570181492545238,1,-1,-2,-1,-2,-4,-3,1
1570181492545238,-3,0,-1,-2,-2,1,3,2
1570181492560207,-2,-1,-2,-1,-2,-3,-3,1
1570181492560207,-3,-1,-1,0,-2,1,2,-6
1570181492561838,0,-2,0,-2,-1,-3,0,-1
1570181492561838,-3,2,-1,-1,1,1,0,-4
1570181492582139,2,0,0,1,-1,0,1,4
1570181492582139,0,-1,0,0,2,2,-10,3
1570181492584136,-4,-2,-2,-1,-4,-4,-2,-14
1570181492584136,-1,-1,-1,0,0,-2,1,-9
1570181492598098,3,-1,-1,-2,0,-4,-4,12
1570181492598098,-1,0,0,0,1,1,2,2
1570181492599096,1,-1,0,0,1,0,-1,-2
1570181492599096,1,1,1,0,0,0,-2,3
1570181492620038,-2,-2,0,-1,2,0,3,-4
1570181492620038,-2,0,0,-3,-2,0,-3,-9
1570181492622034,3,0,-2,-3,0,-1,1,14
1570181492622034,-1,-1,-2,-2,-3,-1,-1,0
1570181492642981,0,-1,0,1,1,8,0,0
1570181492642981,-2,-3,-2,-2,-4,-15,-3,-6
1570181492643974,-1,-1,0,0,-2,-1,0,0
1570181492643974,0,-1,-2,0,-2,1,1,7
1570181492657937,-2,0,-2,-1,-1,-2,-4,-5
1570181492657937,2,-2,-2,-1,-1,-1,2,2
1570181492659536,-1,0,-3,0,1,6,2,-3
1570181492659536,0,-1,-1,0,1,3,-2,-8
1570181492680149,-3,-1,0,-2,1,-1,15,-2
1570181492680149,-2,-1,-2,0,1,2,-3,4
1570181492682031,-3,-1,-1,-2,-1,-4,-2,-3
1570181492682031,-1,1,0,0,0,-2,1,6
1570181492702818,2,-1,-2,-1,-1,-3,-2,-3
1570181492702818,0,1,1,1,0,2,0,-2
1570181492705059,-3,0,-1,-2,-1,-2,0,-4
1570181492705059,1,-2,1,-1,3,4,0,5
1570181492716822,1,0,2,0,-8,-8,-2,-2
1570181492716822,-2,0,-1,-2,2,1,4,-6
1570181492723762,1,-1,-1,-1,-1,-4,-8,-1
1570181492723762,-1,0,-1,1,2,6,4,1
1570181492739722,-2,-2,-1,-1,-1,-2,-6,-1
1570181492739722,2,-2,0,-1,0,2,3,9
1570181492741713,-2,-2,0,0,0,-1,3,-2
1570181492741713,-3,-1,0,-2,1,5,0,-5
1570181492762662,5,0,-2,1,0,-18,-6,9
1570181492762662,-2,1,0,0,0,0,-2,-2
1570181492764652,1,-2,-1,0,0,-3,1,0
1570181492764652,0,0,0,-1,-3,-5,-3,-1
1570181492776625,-3,0,-1,-3,1,7,-3,-9
1570181492776625,-1,-2,-1,-2,0,2,14,-10
1570181492783604,4,1,0,-1,-1,0,-2,10
1570181492783604,-4,-2,-3,-1,-5,-12,-6,-11
1570181492800574,-3,0,0,0,2,8,3,-1
1570181492800574,-2,-1,0,0,-1,-1,-1,-7
1570181492802218,-1,-2,0,-1,1,5,1,0
1570181492802218,0,0,-1,0,0,-4,-3,1
1570181492822631,0,-1,-2,-1,1,-2,-7,-3
1570181492822631,1,0,-1,1,-1,-1,-4,4
1570181492824495,-1,0,1,0,-3,-2,-1,-3
1570181492824495,2,0,-2,-1,0,-1,-3,4
1570181492837457,0,0,0,0,0,0,0,0
1570181492837457,-2,-1,0,0,1,3,-2,2
1570181492843445,-1,1,0,2,-1,-3,-2,-4
1570181492843445,-2,-2,0,0,-2,-2,3,-4
1570181492860399,-1,-1,-1,-1,0,2,-1,-2
1570181492860399,2,-1,-2,-3,-2,-2,-4,2
1570181492861393,-4,-1,-2,-1,1,7,-3,-14
1570181492861393,0,-1,-1,-1,1,-9,-2,5
1570181492882341,2,-1,-2,-2,-4,-3,2,6
1570181492882341,-4,-1,-1,-1,0,2,8,-19
1570181492884331,-3,-2,0,0,-1,-4,-2,1
1570181492884331,1,1,1,1,2,5,2,3
1570181492897301,4,-2,1,1,0,0,-1,8
1570181492897301,-2,0,-2,0,-1,-4,-2,-4
1570181492904278,0,0,-1,-1,0,1,2,2
1570181492904278,-2,0,-2,-2,-3,0,-1,-4
1570181492920241,-5,0,-1,-2,-4,-8,-1,-11
1570181492920241,1,0,1,0,0,1,-2,10
1570181492921401,-2,-1,-2,-1,0,2,0,-4
1570181492921401,-1,-1,-1,0,-1,0,-3,8
1570181492942177,0,-1,0,0,-1,-2,-5,2
1570181492942177,0,1,-1,-1,-2,0,-2,5
1570181492944173,0,1,-2,0,-2,-4,-3,0
1570181492944173,-1,-2,1,-1,-1,-2,3,-5
1570181492957138,0,-1,-1,-2,1,4,-1,0
1570181492957138,3,0,-1,0,2,7,1,15
1570181492964120,-1,-1,-2,-3,-4,-17,-3,2
1570181492964120,-1,-1,1,-1,0,0,4,-3
1570181492979123,-3,0,-2,-2,0,0,-2,3
1570181492979123,0,0,3,0,0,-1,0,4
1570181492988054,0,0,0,-2,0,4,0,3
1570181492988054,-1,-1,-1,0,-2,0,-1,2
1570181493003219,1,1,0,1,0,3,1,2
1570181493003219,0,-1,-2,-2,-2,-3,-4,-6
1570181493004013,-1,-1,-1,-1,3,3,6,4
1570181493004013,-1,0,1,-2,-1,-4,-6,-4
1570181493017013,-2,-1,-2,-1,0,0,1,-4
1570181493017013,-2,-3,0,-2,-3,3,-3,-4
1570181493023959,0,-1,0,0,-2,-11,-2,3
1570181493023959,0,-1,-1,1,2,9,1,-4
1570181493039919,-4,-3,-2,-1,0,-2,-2,-1
1570181493039919,2,0,-1,1,-1,0,-1,0
1570181493041910,0,-1,0,-1,0,1,-4,-7
1570181493041910,2,0,0,-1,-1,-3,0,3
1570181493062853,-2,-1,-1,-2,-2,2,6,-4
1570181493062853,-2,0,-1,0,1,-3,-3,-3
1570181493063851,2,3,0,-1,0,5,4,6
1570181493063851,1,-1,-1,-2,1,-1,-3,1
1570181493075821,1,-1,-1,-1,-1,1,2,6
1570181493075821,0,-2,-1,1,-1,-4,-4,-4
1570181493084802,0,-2,-3,-1,-1,6,-1,1
1570181493084802,-2,-1,-1,0,-6,-13,0,1
1570181493100755,-3,1,2,1,1,-4,-1,-10
1570181493100755,1,0,0,-1,-2,0,-1,1
1570181493102250,0,-1,-2,0,-1,0,1,-3
1570181493102250,2,-2,-1,0,0,4,0,3
1570181493122694,-2,-1,-1,-1,0,-1,-2,-3
1570181493122694,-2,0,-2,-3,-3,-4,-2,-2
1570181493124689,1,-1,0,-2,-1,2,1,0
1570181493124689,-2,-1,-4,-1,0,1,-1,-3
1570181493136660,0,-1,0,1,0,-1,-1,0
1570181493136660,-3,-1,-2,-1,0,1,-2,-19
1570181493145633,-3,0,-1,-1,-1,-1,-2,-3
1570181493145633,-1,1,1,-1,-1,0,-2,-3
1570181493160592,3,1,-1,-1,-2,-5,0,5
1570181493160592,-6,-1,-1,-1,-2,0,8,-10
1570181493161590,3,2,0,1,2,0,-9,8
1570181493161590,-2,-2,0,-1,-1,1,2,-7
1570181493182534,-2,1,-1,-2,1,1,-3,-9
1570181493182534,-1,1,-1,-1,0,-3,2,1
1570181493184529,-3,0,-1,0,-1,3,2,-6
1570181493184529,-2,-2,-1,-2,-5,-11,-3,1
1570181493196501,1,1,-1,2,0,-2,-1,0
1570181493196501,0,-3,-1,0,0,1,-2,7
1570181493205475,-3,-1,-1,-2,0,-2,-1,-1
1570181493205475,4,1,1,-1,0,6,-1,11
1570181493220613,0,-2,3,0,-1,-1,0,0
1570181493220613,0,1,2,2,-1,-3,-2,1
1570181493221430,-3,-2,-1,1,0,0,2,-7
1570181493221430,-4,0,-2,0,-1,0,-4,-16
1570181493242416,0,-1,-3,0,0,0,-1,2
1570181493242416,4,1,-1,-1,2,2,1,7
1570181493244370,-2,-2,-1,-2,-3,-2,0,-3
1570181493244370,-3,-1,-1,0,-1,2,-3,-3
1570181493256602,-2,-1,-1,0,0,2,1,3
1570181493256602,-3,-2,-2,-2,-1,0,6,-18
1570181493265585,3,2,0,-2,1,-1,-4,7
1570181493265585,0,0,1,1,0,-3,0,1
1570181493287253,0,-2,-1,-3,0,0,1,-1
1570181493287253,-1,-1,-1,1,-1,-8,-2,1
1570181493289251,0,-1,0,0,0,-2,4,4
1570181493289251,1,1,0,0,0,2,4,2
1570181493302214,1,1,0,-1,0,4,-4,0
1570181493302214,0,-1,0,-2,-1,0,-6,4
1570181493304210,1,-1,1,0,0,-6,-1,-5
1570181493304210,1,-2,-1,-1,0,1,-2,0
1570181493316444,-2,-2,-1,-1,-2,-2,-2,-8
1570181493316444,1,1,-1,0,0,2,-2,3
1570181493325333,-3,0,1,1,-2,4,-1,-5
1570181493325333,-3,0,-2,-2,-2,-3,2,-4
1570181493340220,-1,-2,-2,-1,-1,6,1,-2
1570181493340220,-4,-2,-1,-1,-2,2,10,-12
1570181493342108,0,0,0,0,0,-2,-3,0
1570181493342108,-2,0,-2,0,0,-1,0,-7
1570181493363051,2,1,0,-1,-1,-1,-1,5
1570181493363051,-3,-2,1,0,-1,-1,-2,2
1570181493364053,1,-2,-2,-1,-1,2,4,4
1570181493364053,-2,0,1,0,-2,4,-1,-4
1570181493376020,1,-1,-1,-1,0,-1,6,6
1570181493376020,1,-1,0,0,-1,0,-3,3
1570181493385625,-1,-1,-2,-1,-2,0,-2,-1
1570181493385625,0,-1,0,-2,0,0,2,2
1570181493400072,-2,-2,1,-2,1,14,1,-2
1570181493400072,-1,-3,-2,-1,-2,-19,-10,-10
1570181493401993,0,0,-1,-1,0,-1,-1,2
1570181493401993,1,-1,-1,0,-4,-5,-1,2
1570181493422935,-1,-1,-1,1,5,5,2,0
1570181493422935,1,1,-1,-1,0,7,0,1
1570181493423926,1,0,-2,-1,-2,2,0,4
1570181493423926,-3,-3,-3,-2,-2,-3,7,-10
1570181493435903,-2,0,0,-2,-1,-7,-2,0
1570181493435903,6,0,1,-2,1,6,1,17
1570181493444836,-3,-1,-2,-1,-1,-6,-4,2
1570181493444836,1,1,-1,-1,1,6,-1,2
1570181493459877,-1,-1,0,2,-3,-9,-5,-1
1570181493459877,-2,0,-1,0,0,-1,0,0
1570181493461788,-3,-2,0,-2,0,4,4,-4
1570181493461788,-2,-3,-2,-1,1,0,-4,6
1570181493482853,-2,-1,-1,1,-2,-3,-2,-4
1570181493482853,-1,0,-1,0,-1,-4,-3,2
1570181493484523,0,-1,-1,0,1,3,1,2
1570181493484523,-3,-1,-1,-1,0,-2,-2,-2
1570181493496694,1,2,1,0,-1,7,-1,4
1570181493496694,-1,-1,3,0,-3,-13,-3,-2
1570181493504748,-1,0,-1,-2,-3,-4,-2,-1
1570181493504748,-2,-1,0,0,0,-2,1,-6
1570181493520631,2,-2,-2,-1,-1,6,0,15
1570181493520631,-1,0,0,-1,0,6,-2,-3
1570181493521626,0,-1,0,1,0,-3,-1,-1
1570181493521626,2,1,2,-1,-1,-5,-5,9
1570181493542654,-3,-1,-2,-1,-1,-1,3,-5
1570181493542654,-3,-1,-2,-1,2,3,-3,-2
1570181493544213,0,-1,1,1,0,-3,0,-1
1570181493544213,1,2,0,1,0,3,6,15
1570181493565433,-1,1,0,0,-2,-7,-2,-8
1570181493565433,1,-2,-3,-4,0,2,1,-2
1570181493566299,-1,-1,0,-1,-2,-1,2,0
1570181493566299,4,-2,-1,-2,2,7,1,-1
1570181493580436,-2,-1,0,-2,-2,-5,-1,-3
1570181493580436,-2,1,0,0,-1,0,-2,0
1570181493581336,-3,0,0,0,-2,-2,-2,-6
1570181493581336,2,-2,-1,0,-2,-1,-4,1
1570181493603251,-2,-2,0,-2,1,4,0,-2
1570181493603251,0,-2,-1,0,1,8,6,4
1570181493604074,-2,-1,0,-1,-1,-7,0,-7
1570181493604074,-1,1,-1,0,-1,0,0,-2
1570181493625681,-1,1,0,-1,-1,-5,-4,-3
1570181493625681,2,-1,0,0,-1,1,1,12
1570181493627624,-1,-2,-1,-1,0,2,0,-3
1570181493627624,-1,1,-2,-1,1,-2,-4,-1
1570181493640750,-4,-4,-3,-2,-2,-2,1,-15
1570181493640750,0,-1,0,2,0,-4,-3,-2
1570181493642039,0,-1,-1,-1,-2,-5,-4,-3
1570181493642039,0,0,-1,0,-2,1,0,2
1570181493662640,-2,-1,0,-2,1,0,-2,-1
1570181493662640,-2,-1,-1,-2,-1,-2,-2,-5
1570181493664633,3,-1,-1,-2,0,2,-1,5
1570181493664633,-3,0,-1,-1,1,-1,-4,-9
1570181493685656,0,-2,-3,1,0,-6,1,5
1570181493685656,1,2,0,1,-1,-2,-1,5
1570181493686835,-2,1,-1,0,-1,5,0,-7
1570181493686835,-6,-2,-2,-2,-4,-9,11,-15
1570181493699687,2,1,1,1,1,-4,-5,2
1570181493699687,-1,-3,-1,-2,0,0,-1,-2
1570181493705870,0,-1,-1,-1,0,-2,0,5
1570181493705870,2,-1,1,2,1,3,-5,4
1570181493722856,2,1,-1,1,-1,2,4,19
1570181493722856,-2,0,-2,-2,-3,-9,-3,-6
1570181493724607,0,0,0,-1,2,-1,2,-1
1570181493724607,1,0,1,-2,1,1,-3,0
1570181493745446,1,0,0,0,-1,-6,1,4
1570181493745446,2,0,0,0,-2,1,-2,4
1570181493746731,-1,-1,-1,-1,2,8,1,1
1570181493746731,-1,0,0,-1,0,-2,-1,1
1570181493759518,-2,0,-1,0,-1,0,-2,-7
1570181493759518,-4,-1,1,0,-1,1,2,-5
1570181493765896,0,0,0,0,-3,-3,-2,5
1570181493765896,0,-1,-1,0,-2,0,-3,-2
1570181493782648,-1,-2,-2,-3,-3,-3,-1,-5
1570181493782648,0,0,0,0,2,13,6,7
1570181493784622,-2,0,1,0,-2,-8,-3,-2
1570181493784622,0,-1,-1,0,1,8,-1,0
1570181493805355,0,-1,-2,1,-1,5,-1,16
1570181493805355,3,0,-2,-3,-2,-5,3,2
1570181493806352,-3,-3,-2,-2,1,2,4,2
1570181493806352,-2,-2,-2,-1,0,-3,0,1
1570181493819319,-5,0,1,0,-3,-2,0,-18
1570181493819319,0,1,-1,1,-2,-3,-4,-2
1570181493826495,-1,1,1,0,1,4,-1,-2
1570181493826495,1,-1,-1,-2,0,7,1,2
1570181493842571,-3,0,0,-1,-3,-14,-5,-1
1570181493842571,-1,-2,-1,0,-1,-1,-2,-7
1570181493844252,1,-1,-1,-2,-3,-3,-1,3
1570181493844252,-2,0,0,0,-1,-3,-3,-5
1570181493865287,0,1,1,-1,0,2,-1,0
1570181493865287,-1,-2,0,1,1,1,-1,0
1570181493867188,-3,0,0,-1,-2,-3,-2,-2
1570181493867188,-2,-1,0,-1,-2,-6,-2,-1
1570181493879156,-1,0,-1,-1,2,4,2,-3
1570181493879156,0,-1,-2,-2,-1,0,-1,2
1570181493886137,0,-1,-1,0,2,-1,1,-1
1570181493886137,4,2,0,0,0,-4,1,6
1570181493903093,0,-1,0,0,-3,-7,-4,-2
1570181493903093,-4,-2,-1,1,5,11,0,0
1570181493904090,-2,-1,0,-1,-7,-6,-3,-11
1570181493904090,-1,-1,0,-1,-1,-2,-2,-2
1570181493925033,-1,-2,-1,-2,0,2,-1,-1
1570181493925033,0,0,0,-2,-2,-2,0,1
1570181493927028,-1,-1,-2,1,7,5,0,1
1570181493927028,1,-2,-1,0,0,0,2,9
1570181493939000,2,0,0,-2,-11,-2,0,-4
1570181493939000,-5,1,1,1,3,-4,-7,-15
1570181493945983,-2,-1,-3,-3,-2,-1,1,-4
1570181493945983,7,0,-3,-1,-7,-5,2,21
1570181493962937,0,0,0,0,5,1,-3,-14
1570181493962937,1,-3,-4,-4,-6,-5,-3,-2
1570181493963930,-6,20,9,4,5,6,5,-19
1570181493963930,13,8,-1,0,8,3,-7,12
1570181493985870,-15,-27,-7,4,0,0,1,-18
1570181493985870,11,-1,11,0,-16,-7,-1,15
1570181493987018,0,6,3,1,-3,0,3,0
1570181493987018,-9,3,-13,-4,9,5,0,-13
1570181493999832,-4,-1,-1,-1,20,7,-2,-4
1570181493999832,-4,-32,-5,5,-13,-5,-1,11
1570181494005959,3,7,8,2,8,4,4,-1
1570181494005959,3,6,12,1,-38,-21,-6,-4
1570181494022773,14,37,3,-12,-21,-9,2,0
1570181494022773,-16,-21,-30,-14,9,-1,-8,-19
1570181494023769,10,-15,-3,1,4,2,0,16
1570181494023769,-10,-1,2,-2,28,10,-3,-18
1570181494045017,-25,21,17,7,-11,-4,-1,-29
1570181494045017,5,-15,-8,3,-4,-3,-1,4
1570181494046706,7,-16,-12,-4,-6,-2,-2,2
1570181494046706,16,-13,-9,2,6,4,-2,0
1570181494058676,26,17,10,-3,2,3,11,23
1570181494058676,-4,38,23,2,0,0,-4,16
1570181494067651,-3,8,6,6,19,6,-6,8
1570181494067651,-18,-19,-9,3,-7,-1,7,5
1570181494082676,3,-40,-38,-19,-26,-14,-16,11
1570181494082676,9,15,-1,1,12,8,12,3
1570181494083676,-3,11,-18,-3,36,23,7,5
1570181494083676,21,6,25,6,-39,-23,1,15
1570181494105621,-5,-7,-2,6,40,21,5,-7
1570181494105621,-1,-11,2,21,48,33,5,-6
1570181494106613,8,29,8,-6,-43,-34,-8,-13
1570181494106613,-29,-30,-14,-39,-82,-83,-27,-24
1570181494119580,0,-7,-15,-13,9,-12,0,9
1570181494119580,-1,-2,0,-3,34,7,-1,4
1570181494127837,0,22,16,12,64,40,8,13
1570181494127837,0,-20,-23,16,48,42,13,2
1570181494142650,-16,-13,6,0,-57,-29,-13,1
1570181494142650,11,30,14,-1,4,1,3,-4
1570181494144512,4,9,14,4,-4,-1,0,-6
1570181494144512,-29,-10,19,8,-13,0,-5,-18
1570181494165454,4,-20,-21,2,6,3,-1,-2
1570181494165454,10,30,-6,-7,-15,-1,11,5
1570181494166453,17,-42,-28,-19,-48,-22,1,6
1570181494166453,-15,24,16,10,51,17,-21,-19
1570181494178420,24,11,14,19,29,25,15,31
1570181494178420,-30,-9,-1,-12,-29,-19,-9,-17
1570181494187556,-14,-28,-15,-5,-23,-22,-8,-7
1570181494187556,4,2,10,9,34,33,19,10
1570181494202360,6,36,19,-3,-23,-8,2,5
1570181494202360,-3,-47,-35,-20,-45,-21,-9,-5
1570181494204351,-9,0,18,10,7,0,-2,-6
1570181494204351,3,8,-10,-7,20,9,-2,-5
1570181494225339,13,7,-7,1,0,2,2,11
1570181494225339,-8,5,1,-5,-6,-2,6,9
1570181494226357,-3,-18,2,3,10,4,5,23
1570181494226357,-13,7,-2,13,42,8,-14,-44
1570181494239259,-8,13,11,-11,-20,-11,-2,-3
1570181494239259,4,-21,-14,-14,-43,-21,-9,-16
1570181494248235,-9,7,2,2,6,5,3,7
1570181494248235,24,18,-6,-13,-11,5,16,29
1570181494262300,-19,-7,19,17,30,8,-3,-15
1570181494262300,-5,-2,-4,-5,5,2,1,4
1570181494269183,-6,-11,-5,8,18,2,-9,-14
1570181494269183,22,9,-3,1,-12,-6,6,17
1570181494285137,-17,-14,-9,-10,-13,-1,-5,-11
1570181494285137,15,22,12,1,-11,-2,1,11
1570181494287163,-2,-9,-3,-4,-14,-5,-1,-4
1570181494287163,-1,-4,-10,-3,32,15,7,5
1570181494299097,11,11,11,5,-14,-6,-2,3
1570181494299097,4,2,15,8,13,3,6,9
1570181494308073,-16,2,-7,-6,-3,-5,-4,-15
1570181494308073,-4,-15,7,2,-15,-10,1,15
1570181494322037,3,-3,-7,7,26,9,-3,-7
1570181494322037,13,9,10,10,28,12,5,7
1570181494329023,-23,-4,-15,-21,-57,-18,-8,-12
1570181494329023,12,-1,-4,-3,-10,4,6,15
1570181494344973,-1,-5,0,4,13,6,1,-5
1570181494344973,6,0,-2,-3,-1,-4,-4,0
1570181494346970,-10,1,-5,1,14,2,-2,-4
1570181494346970,-4,-1,3,-4,-13,-3,-5,-9
1570181494359000,15,0,-7,-8,-8,-2,7,15
1570181494359000,-40,-22,-6,3,14,0,-11,-33
1570181494367915,13,5,3,1,0,3,6,20
1570181494367915,-9,2,-15,-17,-17,-3,5,4
1570181494382174,-7,-7,4,5,4,0,-7,-20
1570181494382174,5,5,2,3,5,4,4,4
1570181494388857,15,33,23,5,4,-2,-2,6
1570181494388857,-10,-38,-10,9,-3,-2,-1,-5
1570181494404819,-5,-11,-10,-4,11,5,5,19
1570181494404819,1,0,-1,0,-17,-4,0,-7
1570181494406809,17,8,-1,1,1,1,1,4
1570181494406809,-5,15,-12,-11,-10,-4,0,-8
1570181494418779,-4,-13,5,-3,3,3,0,-10
1570181494418779,-2,25,15,11,7,-4,-3,-8
1570181494427753,10,-12,5,7,16,2,-3,-20
1570181494427753,3,4,2,2,-5,-1,-5,-8
1570181494441717,-6,-7,-22,-17,-21,2,11,31
1570181494441717,15,14,14,8,13,4,-6,-14
1570181494449251,-4,-11,-7,-3,-15,-5,-4,2
1570181494449251,1,9,11,2,-1,-4,4,8
1570181494464909,-10,-7,-7,-5,5,-3,-5,-3
1570181494464909,12,-9,-16,-6,-1,2,8,29
1570181494466651,-22,-4,11,2,4,3,0,-8
1570181494466651,5,19,-3,-4,-1,-2,-3,-9
1570181494487596,-15,-26,-4,5,0,-3,1,9
1570181494487596,-1,-2,2,-1,5,3,1,-2
1570181494489588,11,-4,-10,-6,-4,1,1,1
1570181494489588,12,11,3,0,-4,1,3,8
1570181494502553,7,-1,1,3,7,3,1,1
1570181494502553,-13,-4,3,6,4,-5,-11,-17
1570181494508538,-7,-8,-12,-12,-12,-3,-3,-7
1570181494508538,-1,1,5,2,13,0,0,6
1570181494525493,5,7,-8,-4,-20,-3,1,-4
1570181494525493,0,0,3,3,-7,-5,-1,-4
1570181494526489,6,5,7,3,-7,-6,-1,0
1570181494526489,-10,-16,-3,-3,-2,-1,1,-4
1570181494547585,0,12,8,5,18,1,-5,-12
1570181494547585,10,2,-4,-1,7,1,-1,14
1570181494549428,-4,-9,-12,-6,-17,-3,2,6
1570181494549428,-14,-3,14,5,-4,-4,-9,-14
1570181494562393,3,2,-4,-4,4,4,0,-6
1570181494562393,0,-1,-2,-2,2,1,4,11
1570181494568377,4,1,4,7,5,0,-3,-1
1570181494568377,-14,-10,-2,-3,-11,-6,-5,-11
1570181494585479,-4,9,5,3,11,-1,-2,-7
1570181494585479,9,2,5,-3,-14,0,3,10
1570181494587328,-18,-8,-5,1,17,7,2,-16
1570181494587328,-13,-4,-10,-9,-21,-8,-1,-6
1570181494607274,-5,8,23,12,2,-4,-15,-4
1570181494607274,-4,-4,-10,-4,9,-1,-2,-5
1570181494609269,1,-7,-4,-2,-9,0,-1,0
1570181494609269,5,-1,-2,0,11,3,9,8
1570181494621241,4,-6,-20,-12,-12,-1,0,0
1570181494621241,-10,0,8,7,-5,-2,-2,-1
1570181494630226,16,2,-9,-7,4,0,4,9
1570181494630226,16,7,12,9,2,1,1,13
1570181494653151,-7,0,5,0,-3,1,4,-8
1570181494653151,-7,-3,-15,-3,21,5,-1,0
1570181494654148,3,22,-18,-16,-37,-20,-13,0
1570181494654148,10,-33,30,20,4,3,8,27
1570181494668112,0,8,1,0,-2,-1,-4,9
1570181494668112,-19,-21,-6,-1,-7,-3,-3,-32
1570181494669112,21,15,1,-4,8,4,9,23
1570181494669112,-18,-3,-10,0,10,2,-11,-8
1570181494681076,-4,-2,8,4,-1,-4,-5,0
1570181494681076,0,0,-6,-10,-17,-6,-3,-17
1570181494690053,-17,-10,-3,-1,8,2,0,-6
1570181494690053,3,43,-17,-28,-13,-2,-3,-9
1570181494705399,26,-40,16,39,27,13,17,28
1570181494705399,-33,-10,-19,-15,-12,-7,-10,-24
1570181494707007,15,1,1,8,-4,-5,2,2
1570181494707007,-16,-12,6,5,21,1,-5,-14
1570181494727953,9,14,-44,-54,-38,-6,-2,-7
1570181494727953,9,3,30,31,14,6,6,7
1570181494728950,-15,-17,-3,1,2,2,-11,-26
1570181494728950,-3,-1,3,9,6,0,-1,-6
1570181494740984,14,10,-5,-6,6,1,1,1
1570181494740984,-26,-4,-2,-15,-9,-1,-4,-11
1570181494749892,29,24,30,35,21,7,9,30
1570181494749892,-9,-9,-12,-6,-9,2,2,-5
1570181494764853,13,-1,0,9,9,2,2,4
1570181494764853,20,5,9,1,-5,2,5,22
1570181494766848,-15,-3,3,-6,8,1,-2,-13
1570181494766848,27,36,6,-2,-4,-1,2,11
1570181494787795,-37,-49,-24,-5,-11,-5,-6,-15
1570181494787795,10,24,6,-3,8,3,1,10
1570181494789786,-2,-26,2,0,-9,2,8,19
1570181494789786,-3,-11,-9,-6,-6,-6,-10,-21
1570181494800814,9,24,10,0,12,6,8,29
1570181494800814,-24,-21,-8,7,-13,-17,-38,-68
1570181494810730,-25,-2,-6,-10,-6,2,10,19
1570181494810730,17,7,-8,-9,15,4,16,48
1570181494825691,1,14,15,3,-41,-22,-18,-46
1570181494825691,3,4,-4,-6,3,1,9,9
1570181494826687,21,9,3,6,6,-2,-26,-24
1570181494826687,-17,-28,-27,-13,-3,0,6,20
1570181494847994,8,16,11,6,16,1,-1,-3
1570181494847994,20,12,14,-1,0,9,24,71
1570181494849627,-51,-29,1,1,0,-6,-26,-75
1570181494849627,18,18,-17,-4,-9,-3,-3,-6
1570181494861593,-25,-20,23,5,7,2,14,45
1570181494861593,33,-2,-9,2,-6,-6,-27,-83
1570181494870570,-24,-9,-7,-12,-5,3,16,27
1570181494870570,-3,-1,-2,-8,-13,4,33,81
1570181494885530,5,9,2,11,3,-12,-59,-118
1570181494885530,15,12,3,1,10,3,20,70
1570181494887525,-24,-19,-11,-4,6,2,-3,-3
1570181494887525,22,7,17,11,9,-4,-12,-18
1570181494907479,-13,1,-10,-15,-20,0,29,78
1570181494907479,-4,-6,-2,3,8,2,-11,-47
1570181494909465,22,11,-4,-2,-12,-4,-7,-23
1570181494909465,-6,-5,5,-2,-11,-2,5,11
1570181494921438,-1,4,-2,2,4,-2,-7,-20
1570181494921438,-3,-5,0,7,15,7,2,1
1570181494930416,7,0,-9,-11,-19,-5,20,54
1570181494930416,-5,-7,10,2,3,-3,-20,-61
1570181494944376,-5,4,5,8,12,3,-2,-19
1570181494944376,3,-6,-15,-18,-11,-1,4,16
1570181494952352,-16,-1,0,5,24,7,5,14
1570181494952352,3,-1,5,3,-21,-5,-1,1
1570181494969306,-2,-5,-13,-8,12,4,3,-2
1570181494969306,7,6,5,2,-14,-4,2,-4
1570181494970380,12,3,-4,1,0,-4,3,15
1570181494970380,5,1,7,11,10,5,-5,-12
1570181494981279,-2,11,-8,-12,-3,0,13,26
1570181494981279,-31,-29,-9,-2,-2,-5,-6,-6
1570181494990254,15,3,0,-6,6,1,-1,-13
1570181494990254,12,45,-17,-4,-7,0,1,0
1570181495005504,-63,-79,19,6,1,-2,-10,-33
1570181495005504,15,9,-3,0,-1,3,14,35
1570181495007204,-5,12,9,2,-11,-9,-5,-6
1570181495007204,-4,1,14,24,30,12,-6,-27
1570181495027149,23,24,-12,-5,7,-4,1,7
1570181495027149,3,3,-2,-9,-24,-3,5,9
1570181495030143,-3,-7,6,8,17,3,-4,-19
1570181495030143,13,1,1,-1,-11,0,10,27
1570181495041118,4,8,-6,-4,-3,1,4,8
1570181495041118,-8,-7,3,1,1,-3,-7,-9
1570181495050164,-10,1,-7,-7,-7,-4,-8,-12
1570181495050164,8,-14,-3,0,7,0,4,14
1570181495065052,-13,5,4,2,0,2,-4,-16
1570181495065052,-2,0,-4,-2,1,-1,1,8
1570181495067046,15,8,3,0,-7,2,5,4
1570181495067046,-11,-8,-26,-11,-1,-5,-9,-16
1570181495087987,-5,-3,32,11,-5,-2,0,-2
1570181495087987,-1,5,7,8,13,2,3,8
1570181495088987,-5,0,8,6,3,-1,-4,3
1570181495088987,-6,-13,1,-1,6,-5,-5,-6
1570181495101086,17,17,-18,-11,-17,-1,5,7
1570181495101086,-5,6,9,4,-1,5,1,19
1570181495110430,8,-1,6,6,9,3,0,-19
1570181495110430,-24,-10,-7,-6,-8,-6,-15,-41
1570181495125587,7,3,-5,-1,9,5,11,21
1570181495125587,22,2,1,-1,-1,-4,-11,33
1570181495126885,-3,-5,-18,-4,-14,-1,1,-26
1570181495126885,-12,-8,4,-12,-6,3,3,25
1570181495147828,10,18,22,15,10,2,1,3
1570181495147828,-4,-1,0,0,4,2,6,-9
1570181495148832,-8,-6,-10,-6,19,2,-5,-2
1570181495148832,-3,-5,4,1,-23,-6,-6,-4
1570181495161791,14,8,8,1,-4,1,4,-4
1570181495161791,-31,-9,-6,1,10,3,-1,-24
1570181495170144,20,1,-8,-6,-3,2,7,20
1570181495170144,14,6,7,6,14,6,6,0
1570181495184733,-26,-7,-8,-2,1,-6,-12,-20
1570181495184733,-13,-7,-11,-13,-22,-5,0,-20
1570181495187113,3,0,-1,-3,0,2,0,4
1570181495187113,-17,-8,-5,-5,-11,-7,-6,-8
1570181495207672,20,5,-17,-4,3,4,4,11
1570181495207672,16,11,-4,4,19,4,6,15
1570181495209664,-14,3,36,4,-25,-13,-11,-4
1570181495209664,11,-4,-2,-4,-3,1,1,-1
1570181495221630,21,20,17,19,6,2,4,28
1570181495221630,-5,-13,-9,0,0,-8,-5,-8
1570181495230613,6,-16,-11,-9,-6,3,4,12
1570181495230613,-2,8,16,8,6,5,0,-14
1570181495244569,8,-7,-15,-10,-3,-3,1,9
1570181495244569,0,6,-3,-3,-10,-3,-4,-4
1570181495251686,27,10,-3,-3,-8,-7,-2,7
1570181495251686,-5,10,30,37,13,1,-1,-2
1570181495267541,-7,-7,-11,-3,-3,0,-5,-19
1570181495267541,12,3,2,5,9,3,2,5
1570181495269504,-17,8,-1,-7,1,3,0,0
1570181495269504,9,-23,-4,-6,-5,-4,1,8
1570181495281470,-4,7,1,-2,-3,-3,-3,-18
1570181495281470,36,1,-1,-1,3,0,4,1
1570181495290454,-37,-19,-17,-7,2,-2,-7,-14
1570181495290454,45,10,-12,-14,-14,-2,3,14
1570181495304953,-35,-10,-4,0,0,0,-3,-8
1570181495304953,-13,-1,8,2,9,0,-3,3
1570181495311392,-6,3,-2,5,-9,-2,-1,-1
1570181495311392,7,3,9,4,23,2,-2,13
1570181495327350,1,-7,-7,-16,-30,-3,7,31
1570181495327350,-8,11,-3,-13,-16,-6,-6,-28
1570181495329375,6,-7,19,17,17,15,38,88
1570181495329375,-13,-4,-14,-7,-1,-10,-32,-64
1570181495341315,2,-5,2,1,14,3,3,25
1570181495341315,-33,10,11,-6,-2,7,38,86
1570181495350294,23,15,-4,3,-17,-13,-53,-83
1570181495350294,-8,-22,-13,-12,-14,-5,6,34
1570181495364256,21,21,6,7,6,2,1,17
1570181495364256,-14,0,-8,-6,-2,3,3,0
1570181495371234,-4,-14,-7,-2,10,4,11,6
1570181495371234,-30,-6,-5,-6,-4,1,9,25
1570181495387189,17,1,-6,-1,-1,3,13,25
1570181495387189,6,-8,-4,3,-3,-12,-47,-75
1570181495389183,23,7,0,1,7,3,7,41
1570181495389183,4,3,2,4,1,4,14,38
1570181495401259,-37,-8,-15,-13,-3,-5,-3,-17
1570181495401259,5,-19,-5,1,0,2,3,11
1570181495410520,-1,10,12,10,7,0,3,3
1570181495410520,13,12,6,-7,-7,-3,-1,-13
1570181495424089,1,-2,0,-3,-2,-1,0,-7
1570181495424089,-5,-9,-11,3,21,8,3,5
1570181495431114,-6,-16,-21,-20,-36,-13,-15,-33
1570181495431114,0,5,3,0,2,4,11,16
1570181495448027,-17,-9,-3,0,-3,-3,-9,-20
1570181495448027,14,2,2,1,0,-3,-13,-30
1570181495449022,3,17,18,10,16,6,15,28
1570181495449022,-14,-9,-4,-1,-3,-4,-11,-32
1570181495469968,18,-4,-6,8,-1,-2,-10,-21
1570181495469968,22,29,24,8,2,10,31,78
1570181495471962,-25,-26,1,-2,2,-4,-15,-44
1570181495471962,-5,0,-5,0,-3,-2,-6,-12
1570181495484926,-2,-11,-7,-4,5,3,-2,-4
1570181495484926,-4,5,-4,0,-3,0,8,20
1570181495490972,7,11,0,-1,10,3,4,4
1570181495490972,-2,-3,-2,-1,-11,-6,-9,-21
1570181495507865,-12,-2,-6,-8,-7,-2,4,14
1570181495507865,-7,-10,-2,-2,-6,-5,-7,-20
1570181495508863,-11,-7,-13,-10,-4,8,31,67
1570181495508863,13,8,12,10,10,-5,-49,-81
1570181495529806,-1,1,2,2,3,0,2,10
1570181495529806,7,3,4,5,-7,-3,-4,-22
1570181495532094,-3,-5,-7,-2,2,-6,-1,8
1570181495532094,-1,5,0,-2,-4,3,21,50
1570181495544768,-13,-8,-1,-13,-12,-4,-7,-30
1570181495544768,4,-1,1,4,4,-4,-16,-29
1570181495550753,14,19,1,1,3,1,2,-10
1570181495550753,-15,-23,-8,4,0,-1,-3,0
1570181495567863,17,16,15,5,-4,0,-7,-13
1570181495567863,-12,-14,-5,-3,3,-5,8,15
1570181495568917,7,14,13,11,8,3,-6,-10
1570181495568917,5,3,-3,-4,-3,0,8,0
1570181495590646,1,-8,-6,1,5,0,2,12
1570181495590646,-39,-9,-8,-4,-2,-5,-12,-41
1570181495591643,8,1,-4,-7,-18,-5,-4,9
1570181495591643,-5,0,0,1,11,4,5,4
1570181495603743,3,-1,-1,0,-6,-1,1,-7
1570181495603743,10,5,0,-5,-9,4,6,16
1570181495612588,-2,0,2,10,18,0,-9,-7
1570181495612588,-9,-3,-9,-4,1,0,7,5
1570181495627551,4,3,4,5,9,0,-3,-11
1570181495627551,5,-3,0,1,-5,-1,0,-7
1570181495628677,-15,-7,-3,-8,-9,-3,-3,-41
1570181495628677,4,2,-2,-6,-7,-2,6,-23
1570181495650593,6,4,8,10,12,0,-16,-24
1570181495650593,1,-9,-7,-9,-8,-4,-6,-13
1570181495651482,2,4,7,7,7,3,6,-34
1570181495651482,-13,-3,-3,0,-1,0,-8,-86
1570181495664489,-2,-5,-8,-6,-11,-1,5,21
1570181495664489,-10,3,8,6,1,1,1,20
1570181495671426,5,-2,-3,-2,-8,-6,-6,46
1570181495671426,4,6,7,5,7,-1,4,68
1570181495687386,-8,-12,-17,-7,8,2,1,19
1570181495687386,5,4,12,8,-7,-1,1,32
1570181495689380,13,5,5,3,-2,-2,4,24
1570181495689380,-8,0,1,-4,-6,2,1,29
1570181495710357,8,-7,-10,-2,4,-3,3,26
1570181495710357,-15,-3,-1,-3,1,-4,-3,23
1570181495711320,6,7,13,8,-1,-3,-6,-1
1570181495711320,3,5,-2,-2,7,3,4,33
1570181495723452,5,-3,1,0,-17,-2,13,8
1570181495723452,-5,1,-22,-9,7,2,-3,43
1570181495732270,-6,-9,8,-4,-15,-7,-9,7
1570181495732270,-3,-6,0,-2,2,4,4,28
1570181495747320,-20,-1,0,3,7,2,-1,-29
1570181495747320,2,5,15,2,-4,0,-2,-5
1570181495749220,6,8,3,2,-3,-1,0,14
1570181495749220,-5,-5,-6,-2,-4,-2,2,8
1570181495770170,13,8,11,6,4,-2,-7,62
1570181495770170,-12,-22,-37,-28,-3,7,3,35
1570181495772160,12,15,30,25,23,6,2,58
1570181495772160,-6,-12,-15,-11,-1,3,4,13
1570181495784128,-20,5,17,14,0,-4,-10,-14
1570181495784128,20,-2,-15,-6,6,8,9,8
1570181495793104,-16,11,24,24,1,-1,0,-37
1570181495793104,-5,-26,-24,-18,-5,-3,0,-43
1570181495807549,-3,0,8,11,4,1,0,-30
1570181495807549,2,5,12,9,1,-2,0,-51
1570181495809060,-1,-9,-23,-20,-4,5,-1,-38
1570181495809060,16,21,10,12,1,0,-3,-8
1570181495830033,-10,-7,-2,-9,1,-5,-4,-28
1570181495830033,11,3,5,3,0,-4,2,-25
1570181495832079,-28,-19,-25,-22,-16,2,7,-27
1570181495832079,-3,0,-13,-22,-14,-9,-16,-1
1570181495843969,10,17,20,13,6,3,5,-3
1570181495843969,11,-4,-14,-23,-14,-7,-5,-24
1570181495852952,21,0,18,25,12,5,8,24
1570181495852952,-40,-11,-6,-9,-8,-5,-9,-21
1570181495867911,0,-2,-14,-11,-5,-1,1,2
1570181495867911,-3,11,12,7,-2,-3,-5,-9
1570181495869158,2,-5,-13,-14,-1,-1,-4,-7
1570181495869158,11,1,8,11,2,1,6,9
1570181495889847,5,-5,-13,-8,-5,1,1,8
1570181495889847,-12,-4,5,9,0,-3,-3,-8
1570181495891848,-7,-7,-9,-15,-4,-2,-6,-6
1570181495891848,44,20,11,19,11,7,18,26
1570181495903805,-21,-7,3,-1,1,0,0,4
1570181495903805,-9,-8,-3,0,-3,-3,-5,-20
1570181495912786,-6,7,-13,-9,-9,-3,4,28
1570181495912786,11,11,-4,-2,-2,-4,-24,-42
1570181495927745,6,2,17,-1,-13,-2,16,12
1570181495927745,2,-7,-4,4,4,1,-5,-7
1570181495929738,-8,-4,-4,-4,1,-1,1,0
1570181495929738,-27,-3,2,-4,0,2,19,54
1570181495949881,8,-3,-15,-1,0,-6,-28,-75
1570181495949881,-6,1,1,6,-1,-2,3,11
1570181495951679,4,-5,-6,-4,-1,0,5,22
1570181495951679,20,22,13,3,1,-1,-3,0
1570181495963677,-14,1,-6,-4,-3,-1,-2,10
1570181495963677,9,-16,8,10,1,2,10,17
1570181495972622,3,5,-6,-2,3,0,-12,-31
1570181495972622,6,1,1,3,-1,3,21,31
1570181495987584,-13,-8,-3,-1,0,-2,-22,3
1570181495987584,-7,-8,-2,0,-4,-7,-8,-20
1570181495989577,4,-1,-9,-4,-3,-1,0,7
1570181495989577,-22,11,13,8,2,-2,-9,-19
1570181496010577,19,-17,-2,0,-1,3,16,33
1570181496010577,-8,9,0,-3,0,-1,-2,4
1570181496011543,-14,-10,-9,-11,-7,-2,4,13
1570181496011543,16,0,8,10,13,1,-14,-44
1570181496023964,15,13,-1,-3,-13,-4,2,23
1570181496023964,-32,-4,-1,-3,-5,-4,-9,-2
1570181496038551,17,2,-6,-3,0,-2,-5,-8
1570181496038551,-17,-9,19,2,0,2,5,22
1570181496047758,16,7,-1,-3,2,-2,3,12
1570181496047758,-2,2,-5,4,3,1,-1,1
1570181496049417,-11,-6,0,-2,-1,-2,8,9
1570181496049417,-6,-11,-13,-3,-4,-2,-8,-7
1570181496070402,-7,-4,-7,-1,2,2,2,-14
1570181496070402,13,12,8,0,-4,3,14,32
1570181496071362,-6,4,1,1,4,-1,-10,-45
1570181496071362,5,0,-8,-2,-4,-3,0,-10
1570181496083331,0,-9,0,0,-2,-2,4,0
1570181496083331,2,2,-5,-5,-4,-4,-2,0
1570181496093304,9,3,2,5,2,-1,4,-9
1570181496093304,-7,-12,-3,-1,-3,-2,-3,-13
1570181496107264,11,14,-2,-1,1,2,5,7
1570181496107264,-3,-5,6,4,1,-1,-5,-17
1570181496109258,-2,-4,0,-1,0,2,-2,-4
1570181496109258,-2,1,-2,0,-4,-2,-2,-3
1570181496130322,-7,-2,-7,-1,-1,-1,0,-5
1570181496130322,9,1,0,0,-2,0,-2,1
1570181496131200,4,-3,-2,2,0,-2,-2,1
1570181496131200,-3,-1,-3,-1,-1,1,4,10
1570181496144209,-7,-2,-2,-1,1,-1,-6,-10
1570181496144209,3,-1,-1,0,-1,0,-4,-7
1570181496153142,3,0,2,2,0,1,1,8
1570181496153142,1,-3,-4,-2,-1,-1,3,4
1570181496168104,3,1,1,1,1,-1,-16,1
1570181496168104,5,3,2,1,-1,0,1,0
1570181496169097,-8,-2,0,-1,2,1,-2,-6
1570181496169097,-2,-3,-3,1,0,-1,-1,-1
1570181496190238,1,1,2,0,-1,-1,1,-3
1570181496190238,0,2,-1,-2,-1,1,3,10
1570181496192042,-1,-1,-1,0,0,-1,-5,-1
1570181496192042,5,-3,-4,-2,-4,-4,0,22
1570181496204003,-2,3,2,0,1,1,4,2
1570181496204003,1,-1,0,-1,0,-1,-2,-7
1570181496213228,7,6,1,1,0,2,4,12
1570181496213228,1,-6,-2,-1,-1,-1,-1,8
1570181496227032,-10,-7,1,-1,0,0,2,9
1570181496227032,11,11,4,4,2,0,2,6
1570181496234087,1,-13,-12,-9,-7,-7,-10,-16
1570181496234087,-9,0,0,1,1,0,1,3
1570181496249883,6,-2,-1,-2,-1,0,1,-1
1570181496249883,9,2,1,-1,0,-1,1,10
1570181496251876,3,5,3,3,1,2,0,13
1570181496251876,50,15,1,1,0,1,1,17
1570181496263843,-81,-12,7,6,4,4,4,12
1570181496263843,-42,-42,-28,-16,-10,-10,-13,-5
1570181496272821,-2,1,-1,-1,-2,-1,-1,25
1570181496272821,8,0,0,-3,-1,-1,-2,28
1570181496286785,24,10,1,2,0,0,2,29
1570181496286785,1,8,7,4,3,4,3,29
1570181496293767,-2,0,-1,0,0,1,5,23
1570181496293767,-22,-14,-7,-2,0,-2,-5,-7
1570181496309721,26,13,0,-1,-1,0,0,-3
1570181496309721,-19,-4,1,-1,1,0,-3,-29
1570181496311715,14,7,4,-1,1,1,0,-34
1570181496311715,-2,1,1,-2,-1,1,1,-31
1570181496323683,7,-7,-5,-3,-2,-3,-1,-23
1570181496323683,12,5,1,-3,-2,-2,2,-24
1570181496332661,-28,-6,4,6,2,1,-2,-30
1570181496332661,47,19,1,-1,-2,-1,0,-22
1570181496346790,-34,-30,-8,-5,-4,-5,-6,-33
1570181496346790,34,9,5,2,1,1,4,-15
1570181496353922,-34,-10,1,-1,0,-2,0,-27
1570181496353922,4,3,-5,-3,-3,-1,-4,-19
1570181496370606,3,2,0,-2,-2,0,2,-12
1570181496370606,23,13,7,5,1,2,7,-6
1570181496371556,-3,-5,-2,-3,-2,-2,-17,0
1570181496371556,-12,-7,-6,-3,-1,-1,-1,0
1570181496392503,25,12,3,2,0,0,3,2
1570181496392503,-51,-11,-1,-1,-1,1,-1,-6
1570181496394494,-7,-16,-7,-4,-2,-3,2,-3
1570181496394494,-17,6,8,5,1,-2,0,0
1570181496422491,52,23,2,-2,4,-1,-3,0
1570181496422491,-23,-11,-3,2,3,-2,0,10
1570181496424463,4,7,5,6,1,14,2,2
1570181496424463,-14,-10,-1,-2,-2,-3,-2,0
1570181496430401,-9,-3,-4,-4,-2,10,3,3
1570181496430401,19,0,-5,-3,-2,-13,-3,4
1570181496431398,-2,-1,-1,-2,1,-4,9,19
1570181496431398,-40,-6,6,4,1,2,-2,-3
1570181496452369,86,30,-1,-2,-6,-15,4,2
1570181496452369,-25,-14,-5,-4,-2,10,-4,-2
1570181496454335,-34,-12,1,1,2,8,2,-10
1570181496454335,43,15,-1,-5,-4,-4,0,8
1570181496467302,-63,-18,2,6,2,3,0,-19
1570181496467302,-10,-1,10,6,4,2,0,24
1570181496473287,42,37,8,7,-1,-11,4,17
1570181496473287,-39,-44,-24,-12,-4,7,-6,-22
1570181496490680,-34,-7,-2,1,1,-12,-8,2
1570181496490680,64,21,5,6,5,33,8,4
1570181496491237,9,4,6,3,-3,-20,0,6
1570181496491237,1,-17,-3,3,1,-10,-2,3
1570181496513176,55,16,2,-2,-2,4,6,19
1570181496513176,-68,-39,-11,-5,-5,-15,-20,-36
1570181496514175,50,19,-2,-1,4,13,6,4
1570181496514175,-5,9,9,5,-5,-2,1,-7
1570181496526142,-12,-11,-6,-2,-7,-3,-20,20
1570181496526142,47,31,4,-3,9,1,4,-26
1570181496536116,24,-13,-9,-10,-6,-9,-6,-22
1570181496536116,-32,7,13,25,7,6,-2,-15
1570181496549157,-26,-16,-11,-18,-5,-7,-8,-17
1570181496549157,7,4,-1,-5,-10,-7,15,33
1570181496550081,-17,-16,-10,-7,6,-2,-4,-4
1570181496550081,10,10,6,0,8,11,2,31
1570181496572022,18,17,11,11,14,28,9,14
1570181496572022,2,0,-4,0,-7,-8,-3,26
1570181496573017,-33,-10,-6,-6,-8,-13,-2,1
1570181496573017,21,10,0,-1,-6,-10,-7,36
1570181496595118,-15,-10,-1,1,0,11,3,-2
1570181496595118,-9,-7,-3,-4,-3,13,-5,-3
1570181496595955,0,0,1,4,4,-3,-5,2
1570181496595955,7,6,-1,-4,0,-3,-1,-12
1570181496617898,-11,-7,0,-1,-8,-28,-4,-4
1570181496617898,0,6,4,4,5,0,9,2
1570181496618906,1,3,0,-1,-3,5,13,-18
1570181496618906,2,-3,-4,-6,-5,-20,1,14
1570181496631862,-9,-6,-1,3,4,27,10,-9
1570181496631862,10,4,3,2,3,-9,0,-32
1570181496632858,-7,-4,-2,-4,-13,-23,-8,-83
1570181496632858,-6,-3,-1,2,27,25,-3,-47
1570181496655214,-7,-6,-5,-4,-10,-3,3,-28
1570181496655214,12,6,-1,-1,1,7,-6,23
1570181496655797,-21,-9,-5,-5,-6,4,-14,-15
1570181496655797,3,0,-6,-6,-7,-6,-7,46
1570181496669762,7,5,1,0,1,-1,7,59
1570181496669762,1,1,-3,-1,0,-4,1,109
1570181496669762,-3,-1,1,1,0,-12,-1,127
1570181496669762,-10,-6,-3,-4,-7,15,10,97
1570181496691699,1,-2,0,0,3,-3,3,49
1570181496691699,2,-4,2,1,-3,-11,-15,22
1570181496692855,-1,0,0,0,3,24,-5,-62
1570181496692855,3,0,-1,-1,-5,-27,-2,-88
1570181496715636,-1,-2,-1,0,4,30,-1,-77
1570181496715636,-1,-2,-1,-1,-2,8,7,-93
1570181496715636,6,4,2,2,4,2,-1,-41
1570181496715636,9,4,0,-1,-2,4,7,-27
1570181496729631,3,-1,-2,-1,-2,-19,-2,-29
1570181496729631,-13,-3,-2,-2,-2,-4,-5,-41
1570181496730597,13,3,1,-1,4,9,2,25
1570181496730597,-5,-1,3,1,-3,-9,9,-25
1570181496760516,-13,-1,0,0,-3,-13,-29,-13
1570181496760516,7,4,0,0,-1,1,1,4
1570181496761512,1,3,2,0,-1,-5,-3,0
1570181496761512,-1,0,0,-1,-3,4,-2,3
1570181496775476,-2,-1,-1,-1,-3,-6,1,-2
1570181496775476,5,2,-1,-2,2,-2,3,4
1570181496775476,-1,-1,0,1,-1,3,1,-1
1570181496775476,-3,-2,-1,-1,-3,-5,-6,-18
1570181496789447,-5,0,-1,0,1,8,1,2
1570181496789447,-3,-3,-3,-1,-2,-6,-2,0
1570181496790436,1,1,0,2,3,12,8,15
1570181496790436,-2,-2,-2,-2,0,4,-1,6
1570181496812377,4,-3,-3,-2,-1,10,4,31
1570181496812377,-2,-3,-2,-3,2,-2,12,5
1570181496812377,3,3,2,0,1,-1,-1,24
1570181496812377,-3,-2,-2,-1,1,12,-2,2
1570181496835319,1,1,0,0,-1,-6,2,8
1570181496835319,-5,-3,-1,-2,-2,0,-2,-4
1570181496836312,-4,-4,-2,0,-1,4,10,-29
1570181496836312,-3,-3,0,0,2,-7,-3,-3
1570181496849341,3,0,1,0,-2,-11,-1,-6
1570181496849341,1,-1,-1,-1,0,9,-2,-5
1570181496850647,-3,-3,-3,-2,-3,11,4,-2
1570181496850647,1,0,-2,0,3,14,6,0
1570181496874212,1,1,0,1,0,-5,-5,3
1570181496874212,-4,-1,-1,-1,-4,-10,-4,-10
1570181496874212,1,0,-1,-2,-3,-7,-6,4
1570181496874212,-1,0,0,-2,-2,-11,-1,2
1570181496895163,0,0,-2,0,-1,-1,3,8
1570181496895163,-1,1,2,0,1,3,-3,-3
1570181496896224,2,-1,-2,0,0,-5,-4,7
1570181496896224,1,0,-2,-1,-2,0,-2,-1
1570181496909121,-2,-2,-2,-2,-2,-7,5,0
1570181496909121,-1,-1,1,2,-2,-2,-7,-1
1570181496910393,1,0,1,0,1,-2,-1,11
1570181496910393,-2,-4,-4,-3,-8,-12,-3,-10
1570181496932062,-3,0,0,0,1,2,1,-7
1570181496932062,-1,-3,-2,0,-1,-2,-3,1
1570181496933056,0,1,0,2,-5,-10,-1,4
1570181496933056,-1,-2,0,0,5,8,-7,1
1570181496955037,3,-1,-1,-2,-2,-2,2,22
1570181496955037,-1,-1,-1,-2,-2,-6,-2,-2
1570181496955995,0,-1,1,0,4,2,-2,-3
1570181496955995,1,1,1,1,-1,-1,-8,2
1570181496969715,-5,-2,-2,0,-2,-2,0,-7
1570181496969715,3,2,0,-1,-1,-1,-2,-1
1570181496969961,0,0,0,-1,0,3,-1,0
1570181496969961,-3,-1,-2,-2,1,-1,6,4
1570181496991997,-1,-2,1,0,-1,-4,-3,2
1570181496991997,2,0,-2,0,-1,3,5,11
1570181496992939,-1,-1,-1,-1,0,-2,-4,-9
1570181496992939,1,0,-1,-2,-2,-3,3,12
1570181497006015,0,-1,-1,0,1,0,1,-5
1570181497006015,1,0,-2,0,0,0,-1,1
1570181497014989,-7,-1,-1,0,0,-2,0,-16
1570181497014989,-2,0,1,1,-2,-1,1,-3
1570181497029799,1,0,-1,-2,0,0,-3,1
1570181497029799,-4,-2,-1,0,0,1,1,-11
1570181497029799,1,-1,-2,-1,2,14,2,3
1570181497029799,0,0,-2,-1,-1,-2,3,-5
1570181497051737,0,-3,-1,1,-3,-4,-4,-3
1570181497051737,3,-2,0,0,0,-3,-1,6
1570181497059715,-2,-1,1,0,0,-1,0,-1
1570181497059715,-1,-1,-1,-2,0,1,0,2
1570181497074682,0,0,-2,-1,-1,0,-4,-4
1570181497074682,-1,-1,-2,-1,-1,-1,-1,2
1570181497075673,0,-2,0,-1,-2,-3,-1,3
1570181497075673,3,0,1,-2,0,1,1,11
1570181497089646,-3,0,1,0,0,-3,0,-17
1570181497089646,3,0,-3,-3,1,-1,4,20
1570181497090633,-1,-1,-3,0,-1,-6,-8,-12
1570181497090633,-4,-2,-1,-1,0,1,1,-4
1570181497111590,4,1,1,-1,2,4,1,2
1570181497111590,-2,-2,0,0,0,-1,-2,1
1570181497112575,-2,-2,0,-2,-1,-4,1,3
1570181497112575,0,1,1,0,3,19,-1,-2
1570181497135548,-2,-2,-1,-1,5,1,6,4
1570181497135548,2,0,-1,-1,-4,-3,-1,-4
1570181497136193,5,1,0,1,-1,-4,1,14
1570181497136193,-3,1,-1,0,-1,0,-2,-10
1570181497149476,0,-1,-1,-2,-1,3,1,2
1570181497149476,-1,-1,0,1,-1,0,0,-5
1570181497150700,-3,-1,0,-1,-1,1,1,-3
1570181497150700,-4,-2,-1,-1,-3,-5,-3,-9
1570181497172413,-1,1,0,-1,-4,0,-2,2
1570181497172413,0,-2,-3,-1,-2,-2,-3,-3
1570181497172717,-1,1,-1,0,-2,-2,-3,5
1570181497172717,0,-2,-1,0,0,-6,-2,-8
1570181497186381,-3,-2,-1,1,-1,-3,-1,0
1570181497186381,6,0,-1,0,0,0,1,6
1570181497194359,0,1,0,-1,1,2,4,15
1570181497194359,0,-2,-1,-1,-1,-2,0,2
1570181497209320,-1,-1,0,0,1,1,-1,-9
1570181497209320,-4,-1,1,-1,1,0,-2,0
1570181497210313,0,0,-1,0,-1,-2,-1,-6
1570181497210313,0,1,-1,1,-3,-5,1,4
1570181497232296,4,0,-1,-1,-3,-1,0,14
1570181497232296,-10,-1,-1,-2,0,1,-2,-25
1570181497232486,3,0,-4,0,-1,-6,-3,3
1570181497232486,0,0,0,1,2,11,6,3
1570181497246221,0,1,-1,0,-1,-5,-2,-6
1570181497246221,0,-1,-1,-2,0,-3,1,2
1570181497254197,2,0,-2,-1,-1,2,1,-1
1570181497254197,2,2,0,-1,-4,-7,-5,2
1570181497269157,-3,-1,-1,-1,0,0,-1,-1
1570181497269157,-4,-2,-1,1,1,6,2,1
1570181497270152,4,-2,-2,-3,-3,-3,1,11
1570181497270152,0,-1,0,1,0,-2,0,14
1570181497292097,-5,-1,-1,0,-1,0,0,-10
1570181497292097,7,-1,0,-1,-4,-8,-20,13
1570181497293091,-2,0,1,-1,1,3,2,-5
1570181497293091,4,-1,-2,0,-1,-4,-2,-2
1570181497315183,3,0,-3,-1,-1,1,2,9
1570181497315183,-6,-1,0,0,-1,0,-1,-8
1570181497316050,-2,-1,-3,-2,0,-2,-1,-3
1570181497316050,-3,-1,-1,-1,0,-3,-3,-1
1570181497329096,-3,-1,0,-2,0,-1,3,-5
1570181497329096,-4,1,-1,-1,1,-2,0,-12
1570181497329995,2,0,-1,-2,0,1,0,7
1570181497329995,-1,0,-2,-1,-1,-2,1,-5
1570181497351937,-4,1,-1,0,1,10,1,-4
1570181497351937,4,0,1,0,-1,-6,3,4
1570181497352986,-7,-2,0,1,0,0,-3,-10
1570181497352986,-1,-1,1,0,-2,-2,-3,-2
1570181497374918,-1,-2,-1,-2,-1,-2,-8,-28
1570181497374918,1,0,-3,0,-1,4,3,4
1570181497375871,-1,-2,1,-1,-1,0,0,-4
1570181497375871,0,-1,-2,-3,1,1,1,-1
1570181497389832,-5,-2,-1,0,-3,-4,7,-11
1570181497389832,-2,-1,-2,0,-2,0,2,2
1570181497390831,-1,1,1,1,0,-9,-4,-5
1570181497390831,-1,-2,-1,-2,1,9,4,-3
1570181497411817,2,0,1,-1,-1,-3,-2,5
1570181497411817,-2,0,1,-1,0,0,0,-4
1570181497412771,0,0,1,0,-2,1,1,2
1570181497412771,-1,0,-1,-1,-2,-4,-3,-2
1570181497434712,2,-1,0,-1,-2,-4,-4,5
1570181497434712,0,-1,0,1,0,3,1,-2
1570181497436398,0,-1,-2,-2,-1,1,-3,-10
1570181497436398,-3,0,0,-1,0,-3,-2,-3
1570181497449672,4,1,-1,1,-3,-2,0,11
1570181497449672,0,0,0,-1,-2,-3,-3,2
1570181497449672,-2,-3,-1,0,-2,2,1,0
1570181497449672,1,-1,-1,-2,0,-2,-1,-2
1570181497471618,1,0,0,-3,1,-1,-1,3
1570181497471618,-4,-1,0,-1,1,1,1,-9
1570181497472612,1,1,0,0,-1,-1,-1,0
1570181497472612,0,-1,0,-1,-1,-2,0,0
1570181497495554,1,-2,1,-1,0,-2,-3,-1
1570181497495554,2,-2,-1,-1,-1,0,2,8
1570181497496344,0,-2,1,-3,0,0,2,7
1570181497496344,1,-2,-1,-1,-1,-1,-3,-3
1570181497509513,-2,0,0,-1,0,0,0,3
1570181497509513,-4,-1,1,1,-1,0,-1,-5
1570181497510510,2,-1,0,-1,1,0,1,2
1570181497510510,-12,0,0,1,1,-2,-3,-17
1570181497531460,14,1,1,-1,0,1,4,31
1570181497531460,0,-2,-1,1,-2,-2,-3,-1
1570181497532661,-2,0,-2,0,-1,0,-4,-4
1570181497532661,3,0,-2,-1,-1,0,3,9
1570181497555430,-6,0,-1,0,0,0,-2,-7
1570181497555430,-1,1,-1,0,-1,-2,-1,1
1570181497556385,-1,-2,-3,-2,-2,8,10,-5
1570181497556385,3,-1,0,0,-5,-15,-13,-2
1570181497569839,-3,-1,2,2,-3,-9,-5,-7
1570181497569839,2,-1,-2,-2,0,5,1,1
1570181497570684,-3,-1,1,-1,0,-6,-4,-7
1570181497570684,0,0,-2,-3,0,7,4,2
1570181497592373,-1,0,-2,0,0,0,-1,1
1570181497592373,-4,-1,0,-2,-1,-4,-3,-6
1570181497592373,0,-2,-1,0,0,0,-2,2
1570181497592373,2,-2,0,0,1,3,2,-1
1570181497615570,-3,0,-2,-1,-1,-2,-4,-15
1570181497615570,1,0,1,-1,-1,0,4,10
1570181497616619,2,1,-1,0,-1,-1,-1,4
1570181497616619,-1,0,0,0,-1,-1,0,1
1570181497629723,1,-3,-3,-2,-1,1,1,-1
1570181497629723,-4,-2,-2,0,1,-1,0,-7
1570181497630538,1,1,1,2,0,-1,2,7
1570181497630538,1,-2,-2,0,-1,-3,-2,2
1570181497652481,-4,-3,-1,-3,-1,2,-1,-3
1570181497652481,-1,-1,-2,-2,-1,1,3,-1
1570181497652481,0,-1,-1,-1,-1,-2,-2,4
1570181497652481,-2,-1,-1,0,0,2,1,-4
1570181497675548,0,0,0,0,1,-1,-3,4
1570181497675548,2,-2,1,-1,-1,-1,-1,-3
1570181497675818,3,-2,-1,-1,-2,-1,-1,-2
1570181497675818,3,0,0,0,0,-1,-2,5
1570181497689662,-3,-2,-1,0,-1,0,1,-4
1570181497689662,0,0,0,-1,2,1,-3,0
1570181497690508,-3,-1,-3,-2,-1,-2,-5,-15
1570181497690508,-5,0,0,-2,0,2,6,2
1570181497711815,3,2,0,0,-1,0,-1,8
1570181497711815,-1,-2,-1,-1,-1,-1,0,-1
1570181497712854,-2,-1,-1,0,0,-1,-4,-4
1570181497712854,-1,-1,-1,0,-1,0,-3,-2
1570181497735476,-1,-2,-2,0,-1,0,1,2
1570181497735476,-4,0,-1,0,-1,0,-2,-7
1570181497735476,-3,-1,-2,0,0,-2,0,4
1570181497735476,1,1,-1,-2,-1,-1,0,1
1570181497749578,-4,-1,0,-1,-1,1,12,-12
1570181497749578,0,0,-1,1,-2,-3,-6,-2
1570181497750388,0,-2,-1,-3,0,0,1,4
1570181497750388,0,-1,0,0,0,-1,-1,-1
1570181497772712,-2,-2,0,-1,0,-1,-2,-7
1570181497772712,-2,-1,-2,0,-1,0,3,0
1570181497772712,4,1,1,1,0,1,2,8
1570181497772712,-4,1,1,0,-1,-2,-1,3
1570181497795509,6,0,2,-1,0,-2,-2,9
1570181497795509,2,1,-3,-1,-1,-1,-2,-1
1570181497795509,0,1,-1,-1,-1,0,-3,6
1570181497795509,0,1,-1,0,-1,0,-5,-3
1570181497809444,0,-2,-1,-1,-3,-1,-2,3
1570181497809444,-3,-1,0,0,-1,-1,0,-2
1570181497809444,-2,1,-1,-1,-1,1,1,-12
1570181497809444,1,-2,-4,0,0,2,6,-1
1570181497831894,2,2,0,0,1,-5,-18,5
1570181497831894,5,-2,-1,-2,0,-2,-2,8
1570181497832886,-6,-2,0,1,-1,0,1,-2
1570181497832886,2,-2,-1,-2,-1,0,1,-4
1570181497854701,-5,0,0,-1,-1,1,2,1
1570181497854701,-2,-1,-1,0,-1,0,1,-4
1570181497856359,0,0,-2,0,1,0,-2,-1
1570181497856359,0,-1,-2,0,-2,-2,-3,7
1570181497869622,-2,-1,-3,-1,2,13,6,-6
1570181497869622,-1,-1,1,-3,-2,-7,-3,0
1570181497870579,1,0,0,-2,0,-2,-3,-4
1570181497870579,1,-1,-1,-2,0,-2,0,0
1570181497891525,-1,-2,-2,1,0,0,1,-2
1570181497891525,0,0,-1,-1,1,1,-1,-1
1570181497892609,-1,-2,-1,0,0,-2,-1,-1
1570181497892609,0,0,0,-1,-1,0,1,2
1570181497915465,1,-1,0,0,-2,-7,-3,3
1570181497915465,0,2,-1,-1,-1,1,1,1
1570181497915982,0,-1,-3,-1,0,-4,-1,1
1570181497915982,-3,0,-1,-1,1,3,-2,-2
1570181497928424,-2,-1,0,0,-1,-1,3,-1
1570181497928424,-1,-1,-2,0,-2,0,0,-1
1570181497937400,-2,0,-2,0,-2,0,0,-1
1570181497937400,-4,-2,0,-1,-1,-1,11,-10
1570181497952361,-4,0,-1,-2,0,-2,1,-4
1570181497952361,-1,-2,0,0,0,0,0,-4
1570181497952869,2,-1,0,-2,-1,0,0,11
1570181497952869,1,1,0,0,-1,-3,-1,11
1570181497975302,0,1,0,0,-1,-1,0,1
1570181497975302,-2,-1,-1,0,-1,0,1,2
1570181497976295,-3,0,0,0,-1,1,2,-5
1570181497976295,0,0,-1,-1,1,-2,-4,-7
1570181497989183,-2,-1,-2,-1,-2,-4,-2,-2
1570181497989183,3,-2,0,-1,-1,0,-2,7
1570181497997242,0,2,0,-1,-1,-1,-2,-3
1570181497997242,-1,-2,0,0,0,0,-3,0
1570181498012202,-2,1,1,-1,-1,-1,0,1
1570181498012202,-2,-1,2,-2,-1,0,-2,-5
1570181498013198,-1,-2,-2,-1,-2,-2,-1,-2
1570181498013198,4,1,-1,0,0,0,0,2
1570181498035143,-1,-2,-2,-1,0,-1,0,-2
1570181498035143,-1,-1,-2,0,-2,1,-1,-1
1570181498036136,-1,-1,1,1,-3,0,-1,1
1570181498036136,-3,-1,-1,-1,-1,-3,-1,-1
1570181498049105,1,-1,-1,-2,1,1,0,0
1570181498049105,-5,0,1,1,0,-2,-1,-9
1570181498057405,2,-1,-1,-2,-1,0,-1,1
1570181498057405,-3,0,-1,1,1,0,-1,-4
1570181498072041,1,-1,0,-2,-2,-1,0,3
1570181498072041,-4,1,0,-1,0,-2,-1,-11
1570181498073036,5,2,1,3,1,-1,-8,19
1570181498073036,-1,-1,2,-2,-2,-2,-3,-5
1570181498095061,-2,-1,-2,-1,-1,0,0,-2
1570181498095061,-1,-1,0,-1,0,0,1,-9
1570181498096053,0,-2,-3,0,-1,-1,4,-3
1570181498096053,0,1,-1,-1,0,0,1,-2
1570181498109120,2,1,0,0,-1,0,-4,5
1570181498109120,-1,0,-2,-2,-1,1,0,2
1570181498116996,-1,0,0,-2,0,-1,-4,-8
1570181498116996,4,-3,-1,0,-2,0,-1,5
1570181498132059,-1,-1,-2,0,0,-1,3,-3
1570181498132059,-2,-1,-1,0,-1,-1,-3,3
1570181498133049,-3,-1,-1,0,-1,2,4,-6
1570181498133049,-2,-1,-2,-2,0,11,0,-2
1570181498154897,-3,-1,1,-1,-2,-10,-5,-3
1570181498154897,0,-1,-1,-2,-1,-2,1,3
1570181498156003,-3,-1,-1,-2,1,0,0,-5
1570181498156003,1,0,-1,-1,0,0,0,-1
1570181498168860,2,-2,-2,-1,1,7,5,4
1570181498168860,-1,2,3,1,0,-3,-4,-13
1570181498176896,-6,-2,-1,-2,-2,-3,0,-3
1570181498176896,-1,-2,-2,0,-1,-1,-1,1
1570181498191900,-4,-1,-2,-3,-1,0,4,-11
1570181498191900,4,1,1,1,-2,0,-6,21
1570181498192796,1,-2,1,0,0,-1,-1,-2
1570181498192796,0,0,-1,-1,0,-4,-1,-1
1570181498215734,-2,0,0,0,-1,-1,-1,-2
1570181498215734,-1,-3,-2,-1,0,1,3,-5
1570181498215734,0,-1,-2,0,-1,-1,0,-3
1570181498215734,0,-1,-2,-1,-2,-2,0,9
1570181498228699,0,-1,-1,-2,-3,1,-2,1
1570181498228699,-1,-1,-2,-1,0,0,1,1
1570181498236679,1,0,1,-2,-1,1,0,3
1570181498236679,-3,-1,0,-2,-1,-2,-1,-8
1570181498251838,1,0,0,0,0,0,-1,6
1570181498251838,0,0,0,-1,-1,0,-2,-5
1570181498259616,-2,0,-1,0,-1,-2,0,-5
1570181498259616,-3,0,0,0,-1,0,6,-20
1570181498275772,2,0,0,1,-3,-2,-12,4
1570181498275772,1,-1,0,-1,-1,-2,1,4
1570181498275772,-4,0,-4,-1,0,-1,0,-6
1570181498275772,1,0,3,1,-1,-3,-2,0
1570181498297514,0,0,-1,-1,0,-2,0,-1
1570181498297514,-5,-2,-2,0,0,-1,2,-3
1570181498298512,-1,-1,0,-2,-1,-2,-4,2
1570181498298512,-1,-2,-1,-1,-2,0,-1,2
1570181498311530,0,1,1,0,-1,0,0,-2
1570181498311530,2,-2,-1,-1,-1,0,-1,2
1570181498312477,-4,0,0,0,-1,1,-1,-12
1570181498312477,-1,-1,-1,-1,-2,-1,-4,4
1570181498335412,0,-2,-1,-1,0,0,1,-2
1570181498335412,0,0,-1,-1,-1,1,1,-1
1570181498335412,-1,-1,0,0,0,-1,1,-2
1570181498335412,2,0,0,1,0,-1,0,6
1570181498357576,-2,-1,0,1,-1,-1,0,1
1570181498357576,1,-1,-2,-1,-1,-1,-1,-2
1570181498358353,-1,0,-1,-1,-1,1,1,1
1570181498358353,3,0,-1,1,0,1,-1,10
1570181498372329,-3,1,1,-1,0,-1,-1,-9
1570181498372329,7,1,0,1,1,0,-7,33
1570181498372329,2,-1,-1,0,0,0,2,-2
1570181498372329,1,1,0,-1,0,0,0,1
1570181498395254,0,0,-1,1,0,-3,-3,1
1570181498395254,-4,-1,-1,0,0,5,3,-10
1570181498396251,1,-2,-1,-1,-1,-1,0,2
1570181498396251,-2,-2,0,-1,0,0,-3,3
1570181498417269,0,-3,-1,-3,0,0,4,2
1570181498417269,-1,0,1,-1,0,-3,-3,-5
1570181498418308,0,0,-1,0,-1,-1,1,3
1570181498418308,-3,-2,-1,-2,-2,0,1,-6
1570181498432158,-1,-2,-1,0,0,-1,-2,2
1570181498432158,-1,-1,-1,-1,-1,-2,1,-3
1570181498433151,1,-1,0,0,-2,0,-1,3
1570181498433151,-2,-1,-1,-2,-2,-3,-4,-8
1570181498455096,-1,-1,-1,-2,1,1,3,-2
1570181498455096,-8,-2,-1,1,-1,-4,-3,-21
1570181498456183,11,0,-2,0,-1,-6,2,16
1570181498456183,-4,0,0,0,0,0,-2,-5
1570181498478032,0,0,-1,-1,1,-3,-1,0
1570181498478032,-3,-1,-1,-2,1,2,2,-4
1570181498478032,-5,-2,0,-2,0,2,-2,-2
1570181498478032,-4,-2,-2,-3,0,-1,7,-11
1570181498491997,3,3,0,1,-3,2,-10,4
1570181498491997,1,-1,0,-2,-1,-1,0,5
1570181498492996,-4,0,0,0,-1,-1,1,-5
1570181498492996,2,-2,-2,0,1,0,1,7
1570181498514937,-1,0,-2,-1,-2,-1,3,-5
1570181498514937,3,-2,-1,-2,0,1,1,4
1570181498515931,-2,0,0,-2,-1,-1,-4,0
1570181498515931,-2,-1,1,-2,0,0,-2,1
1570181498537873,-2,-1,1,1,-1,-1,0,0
1570181498537873,1,0,-2,-2,-3,-1,-1,-1
1570181498538869,-2,-1,-1,-2,1,1,1,-2
1570181498538869,0,1,0,2,0,-1,-4,3
1570181498552182,-2,-1,-2,-1,-1,1,1,5
1570181498552182,0,-1,0,0,-3,-5,1,-3
1570181498552832,-6,-1,0,-1,1,5,-2,-12
1570181498552832,8,-1,-3,-3,-1,-1,0,13
1570181498574775,-1,-1,-1,-3,0,2,2,2
1570181498574775,0,0,0,1,0,-1,-3,-1
1570181498575774,-1,-1,0,0,1,7,0,1
1570181498575774,-5,-2,-2,-1,-3,-18,-5,-5
1570181498597935,-1,-2,0,0,-1,-2,2,-3
1570181498597935,0,-2,-1,0,0,1,1,3
1570181498598710,0,-1,-2,-1,-1,-1,-1,-4
1570181498598710,-1,1,0,0,-1,7,-1,0
1570181498611677,0,-1,-1,0,1,1,-1,-2
1570181498611677,-2,1,-1,-2,-3,-6,-4,-2
1570181498612707,-1,0,-1,-1,-1,-1,0,1
1570181498612707,-2,-2,1,1,0,2,-2,-6
1570181498635614,-3,0,-1,0,-1,1,-1,-5
1570181498635614,2,-1,0,1,1,2,1,-1
1570181498635614,1,-2,1,0,-3,-6,-1,2
1570181498635614,-3,-1,0,-2,0,7,0,-2
1570181498657552,-3,-1,0,0,2,-1,-2,-10
1570181498657552,2,-2,-2,0,0,2,5,9
1570181498658550,0,-1,-1,-1,-1,-3,-2,0
1570181498658550,1,0,0,0,-1,-2,1,1
1570181498671515,-2,-1,-1,-2,-1,-1,0,0
1570181498671515,7,2,0,-1,2,-1,-15,15
1570181498672622,0,0,0,-2,-1,-1,-1,-1
1570181498672622,-1,-4,-3,-1,0,1,-3,-11
1570181498695481,0,0,0,-1,-1,-1,1,2
1570181498695481,-6,0,-1,-1,-2,-2,2,-9
1570181498695481,-1,-1,0,-2,-1,-1,0,1
1570181498695481,-1,2,0,0,-1,-1,-3,2
1570181498717832,-1,-3,-1,0,0,0,-1,0
1570181498717832,-2,-2,-1,-2,-1,0,2,-3
1570181498718663,-1,-3,-1,1,-2,-1,0,-1
1570181498718663,-1,-1,-1,1,0,0,5,0
1570181498732352,0,-1,0,1,0,-1,1,3
1570181498732352,0,-1,1,-1,0,1,2,0
1570181498732352,-5,-1,-1,-1,0,0,-2,-5
1570181498732352,1,-2,-2,0,0,0,1,6
1570181498755296,3,-1,-2,-1,0,0,1,7
1570181498755296,1,-1,-1,0,-1,1,2,1
1570181498756291,-3,-1,-2,-2,-1,0,11,-9
1570181498756291,-6,-4,-2,-2,0,8,-1,-5
1570181498777235,2,1,0,0,-3,-12,-6,-6
1570181498777235,-3,-2,-1,0,0,-3,0,-2
1570181498778229,1,-2,0,-1,0,0,0,6
1570181498778229,1,-1,0,0,-2,-5,0,4
1570181498792191,0,1,-1,0,2,9,2,1
1570181498792191,-3,-2,-2,-3,-1,1,2,-6
1570181498792191,-1,-1,-2,-1,-2,-4,-3,-5
1570181498792191,1,0,-1,-1,-1,-2,-4,-2
1570181498815132,1,-1,-1,0,-3,0,1,3
1570181498815132,-2,0,-2,1,0,0,0,1
1570181498816129,1,1,-1,0,-1,4,-2,3
1570181498816129,1,0,1,1,1,-1,-1,2
1570181498838069,-2,-1,2,0,-1,-1,-1,-4
1570181498838069,1,0,0,-1,1,1,-1,-9
1570181498838069,2,-1,-1,1,-2,0,-4,4
1570181498838069,0,2,1,-1,-1,-2,0,-2
1570181498852040,-3,-1,-3,-3,-1,-1,-3,-5
1570181498852040,3,1,1,1,-1,0,1,6
1570181498853029,-2,-2,-2,0,-1,-3,-5,-11
1570181498853029,2,0,0,-1,-1,-1,1,4
1570181498874972,-12,-4,0,-1,-1,0,10,-21
1570181498874972,4,0,-2,0,-1,-2,-4,8
1570181498875968,0,2,1,1,2,-2,1,4
1570181498875968,0,0,-1,0,0,-1,-1,0
1570181498897965,-1,-2,0,1,-1,1,1,-1
1570181498897965,-2,0,-1,-1,-1,0,1,-5
1570181498897965,-1,0,1,1,0,-1,-1,0
1570181498897965,-1,0,-3,-3,-1,0,-1,-1
1570181498910879,0,0,1,0,-1,-1,-1,-1
1570181498910879,1,0,0,1,1,-1,0,5
1570181498919854,0,-2,0,0,0,2,-2,1
1570181498919854,2,-1,1,-1,-2,0,2,7
1570181498935298,1,-1,0,-1,-1,-1,-4,0
1570181498935298,-3,-1,0,-2,-3,0,1,0
1570181498935809,0,0,1,-1,0,-1,2,1
1570181498935809,-1,-1,-1,0,-2,-1,-2,0
1570181498957753,2,1,-1,-2,-1,0,-3,4
1570181498957753,-4,-1,-1,-2,0,3,-3,-18
1570181498958748,2,1,0,1,2,-3,0,3
1570181498958748,-1,0,0,0,0,-1,-2,-6
1570181498971712,5,1,-1,1,1,-1,-2,14
1570181498971712,-2,-2,0,-1,-1,1,0,-3
1570181498979696,-1,-2,-2,-2,-3,1,0,1
1570181498979696,-3,-1,-2,-2,0,-1,0,-1
1570181498995650,-3,-1,-2,0,1,2,6,-13
1570181498995650,0,0,1,0,1,-2,-8,10
1570181498995650,-2,-1,-1,0,-2,1,-1,0
1570181498995650,1,0,-1,0,-1,-2,2,0
1570181499017682,-1,0,0,-2,-3,0,0,1
1570181499017682,-2,0,0,0,-1,-2,2,-2
1570181499018589,0,-1,-2,0,-1,-2,-1,0
1570181499018589,0,-2,0,2,0,1,-4,-2
1570181499031851,1,-1,-2,-2,-1,-2,-4,5
1570181499031851,-2,-2,-1,0,-1,-2,0,-4
1570181499039542,-1,0,-1,-2,0,1,-1,0
1570181499039542,-3,-2,-1,0,0,0,1,-4
1570181499055495,0,0,-1,2,0,1,-2,3
1570181499055495,0,-1,-2,-3,-2,-1,1,-1
1570181499056489,0,0,-1,-2,-1,-1,1,5
1570181499056489,1,0,-1,-1,0,-1,-2,-8
1570181499077433,-1,-1,0,-2,-2,-2,-6,0
1570181499077433,2,1,1,0,0,0,2,12
1570181499079425,0,-2,0,-1,-1,1,0,1
1570181499079425,0,-2,-1,-2,0,-1,2,6
1570181499091395,2,1,2,1,-1,-4,-2,-3
1570181499091395,-2,-1,-1,0,1,-1,-1,-8
1570181499100370,1,-1,-1,-2,1,0,-2,2
1570181499100370,-3,0,0,0,-2,-1,1,3
1570181499115330,-4,0,-2,-2,2,-1,3,-4
1570181499115330,4,1,0,0,0,-3,-14,8
1570181499116355,2,-1,0,-1,-2,-5,-1,3
1570181499116355,-3,-3,-2,-1,3,15,-1,-14
1570181499137816,-1,-1,-3,-3,-5,-13,-2,-2
1570181499137816,-3,-2,0,0,-1,-2,2,-8
1570181499139265,0,0,-2,-1,0,1,0,-5
1570181499139265,3,1,-1,0,-1,-3,-2,3
1570181499151235,-2,-1,0,-2,-1,6,1,-3
1570181499151235,-3,-1,-3,-2,0,1,0,-9
1570181499160207,2,1,0,0,-3,-2,3,11
1570181499160207,-1,-3,-2,-1,-1,-2,1,4
1570181499175171,0,-1,0,1,-2,1,-2,1
1570181499175171,-1,-2,-1,-2,-2,-4,2,-4
1570181499177164,-4,-2,1,1,0,0,-3,-8
1570181499177164,0,2,1,0,0,-4,-1,3
1570181499198176,-1,-1,-2,0,0,1,1,4
1570181499198176,0,-2,-1,-1,-3,1,0,-1
1570181499199125,-2,0,-1,-1,1,0,-1,-7
1570181499199125,-2,-1,0,0,0,-3,-2,3
1570181499220148,-1,0,-1,1,-2,-1,-4,-4
1570181499220148,0,1,0,-1,-1,0,1,2
1570181499222119,-2,-1,-1,-1,0,0,3,-9
1570181499222119,4,-1,1,0,-1,-4,-14,7
1570181499235015,-2,-1,1,-1,-1,1,-2,2
1570181499235015,0,1,1,2,-2,-4,3,-5
1570181499237005,2,-1,-2,0,0,5,1,11
1570181499237005,-5,0,-2,-2,-1,1,5,-3
1570181499257950,0,-3,-3,0,0,-1,-2,-1
1570181499257950,-2,-2,0,1,-1,-2,-3,0
1570181499259080,-1,-1,-1,-1,-2,-5,-4,-4
1570181499259080,0,0,-1,0,-2,1,2,2
1570181499280369,0,-1,-1,-3,-2,2,-2,2
1570181499280369,-3,0,-1,-2,0,14,5,-2
1570181499281882,-2,-3,-1,-1,-1,-7,-2,0
1570181499281882,0,1,2,1,-1,-4,-3,-16
1570181499294999,-1,-1,1,-1,0,-4,0,-2
1570181499294999,0,-2,-2,0,1,1,-2,1
1570181499296991,-1,1,-1,-1,-1,4,0,0
1570181499296991,-1,-1,-2,-2,0,1,2,1
1570181499317790,-2,-1,-1,1,1,0,1,-3
1570181499317790,-1,-2,-2,-4,-3,-3,2,1
1570181499319120,2,0,-1,1,0,-1,-1,8
1570181499319120,2,0,-1,0,-1,-3,4,17
1570181499339728,5,0,0,1,1,0,-1,8
1570181499339728,-1,0,-3,0,-1,-4,0,-2
1570181499341724,-2,0,1,0,-1,-1,1,-3
1570181499341724,0,0,1,0,0,0,-2,-5
1570181499354692,-3,0,-1,1,1,0,3,-3
1570181499354692,0,0,1,1,-2,-5,-3,2
1570181499356684,0,-1,-1,0,0,-2,-1,0
1570181499356684,-2,0,1,0,-1,0,-3,-6
1570181499377796,0,-1,0,-1,-1,0,-4,-1
1570181499377796,-1,1,-1,0,-2,-9,-2,-2
1570181499379621,0,0,-1,-1,-1,6,-2,-2
1570181499379621,-1,-2,0,-1,-2,1,-1,-1
1570181499399568,0,0,-1,-1,0,-1,2,5
1570181499399568,-3,-1,-1,0,3,11,2,-5
1570181499401871,0,-1,0,-2,0,-7,6,-6
1570181499401871,0,0,-2,-2,-1,0,-2,-3
1570181499414734,1,0,0,0,-1,-1,1,12
1570181499414734,-1,-1,1,-2,0,0,-3,-3
1570181499421513,1,0,-1,1,-1,0,2,-1
1570181499421513,-3,0,-1,-1,-1,-1,-2,-5
1570181499437707,-1,0,-2,-1,0,1,-1,-3
1570181499437707,-5,-2,-1,-2,-1,-2,0,-2
1570181499439469,2,-1,-1,-2,-3,0,-1,5
1570181499439469,0,0,0,-2,-1,-3,-1,-2
1570181499460410,1,-1,0,1,-1,-1,-3,-3
1570181499460410,1,0,-2,0,-2,-3,-2,2
1570181499461403,0,-2,0,0,0,-1,-6,-6
1570181499461403,2,-2,-2,1,0,0,0,6
1570181499474370,-3,-1,-1,-1,-2,-1,-4,-7
1570181499474370,2,0,-1,1,-2,-4,-1,4
1570181499481350,0,1,1,1,-2,-1,-2,1
1570181499481350,-1,-2,-2,-1,-2,-1,1,-4
1570181499497393,0,-1,-1,0,-1,-2,0,0
1570181499497393,0,-3,-2,-2,-2,-2,-2,-3
1570181499499306,-1,0,0,-1,0,-2,-1,2
1570181499499306,-2,-2,0,-1,1,-5,0,-6
1570181499520249,2,0,0,0,1,2,-13,3
1570181499520249,0,0,1,-1,1,0,1,-5
1570181499521242,2,-2,-2,-3,-1,2,2,6
1570181499521242,-2,-1,0,2,1,0,-1,-6
1570181499534211,1,0,-1,0,1,14,10,5
1570181499534211,-1,-1,0,0,-1,-12,-3,-4
1570181499541189,-4,-1,0,0,-2,-1,-6,-7
1570181499541189,1,0,2,1,0,0,1,7
1570181499557319,-2,-2,-2,-1,-1,0,1,-6
1570181499557319,1,0,-2,-1,0,5,2,5
1570181499559142,-1,-1,-1,0,-1,-2,0,-4
1570181499559142,1,-1,-2,-2,-2,1,0,4
1570181499580426,-4,-2,0,-2,-2,-4,-2,-18
1570181499580426,2,-2,-1,-1,1,1,1,4
1570181499582081,0,1,2,0,-1,-5,-14,13
1570181499582081,-1,-3,-1,-1,-1,1,3,2
1570181499594051,-2,-1,-1,0,-1,-4,-2,0
1570181499594051,3,0,0,2,-1,-2,-2,7
1570181499601102,-2,0,-2,-1,-1,1,4,-3
1570181499601102,0,-1,0,0,-1,1,-1,-3
1570181499617983,1,0,0,0,0,-2,1,4
1570181499617983,-4,-2,0,-1,0,1,0,-4
1570181499618982,0,1,0,0,-2,-1,-3,-2
1570181499618982,-3,0,-1,1,-2,-1,-2,-1
1570181499647923,-1,-1,-1,-3,-3,-5,0,-6
1570181499647923,0,-2,-1,0,2,3,-1,1
1570181499648903,-2,-1,-1,-1,0,-1,2,-2
1570181499648903,-1,1,0,-1,-1,0,-4,-6
1570181499653893,-3,-1,-1,-2,-3,-5,-3,-12
1570181499653893,-1,2,1,0,-1,-3,1,-4
1570181499662866,0,0,-1,0,0,0,3,-2
1570181499662866,-1,-2,0,-1,0,-1,-1,3
1570181499678131,0,-2,-1,-1,1,0,4,6
1570181499678131,-1,1,-1,1,0,0,1,-6
1570181499679056,3,-1,2,-1,0,-3,-13,4
1570181499679056,-1,-1,-2,-2,0,0,-2,-2
1570181499699824,-1,0,-1,-1,-2,-1,-1,-4
1570181499699824,-1,-2,0,0,0,0,-1,0
1570181499701761,-1,0,-2,-1,-1,2,7,-3
1570181499701761,0,0,1,-2,0,0,2,6
1570181499713728,1,0,0,1,0,-1,-4,7
1570181499713728,0,-3,-1,-3,-1,-2,1,6
1570181499722707,-5,0,-1,-1,-1,0,1,-9
1570181499722707,0,0,0,0,-1,0,-3,-5
1570181499738160,0,-1,-1,-1,-1,-1,2,4
1570181499738160,-2,0,-1,-2,-1,-1,-3,0
1570181499738769,1,-1,-2,-1,0,0,1,-1
1570181499738769,-2,-1,0,0,0,-3,-2,-4
1570181499760607,-1,-1,-1,0,-2,4,1,1
1570181499760607,-1,-2,1,0,0,0,-3,-4
1570181499761605,-1,-3,0,0,-1,1,3,1
1570181499761605,1,0,-1,-1,0,0,1,2
1570181499773872,-1,0,-1,-1,0,-1,-1,-3
1570181499773872,1,2,-1,0,-1,-1,-2,5
1570181499782612,-4,-1,-1,0,0,5,5,-9
1570181499782612,5,2,0,0,-4,-15,-18,11
1570181499797517,0,-1,1,1,0,-6,-1,4
1570181499797517,0,-1,0,0,-2,0,-2,-13
1570181499799551,-1,-3,-2,-2,0,-3,2,-2
1570181499799551,3,-3,-2,-2,-2,6,8,11
1570181499820443,1,0,2,-1,1,-1,1,1
1570181499820443,-3,-1,0,0,0,-3,-4,-11
1570181499821440,0,2,2,2,1,2,2,0
1570181499821440,-4,-3,-3,-2,-1,1,3,-13
1570181499833453,-1,0,0,-2,0,0,0,0
1570181499833453,1,1,0,1,-1,0,-1,4
1570181499842404,-2,-2,-2,-2,-2,-2,-4,0
1570181499842404,-2,-1,0,1,-1,2,0,-5
1570181499857388,1,-3,-1,-2,-1,-1,-1,1
1570181499857388,-4,-2,-2,-2,0,0,1,1
1570181499859339,1,-1,-1,-3,0,-1,-1,0
1570181499859339,1,1,-1,-1,-2,-6,-1,1
1570181499880331,-2,-1,-3,0,0,4,0,-1
1570181499880331,1,0,-1,-2,-1,0,0,4
1570181499881365,-3,-2,-1,0,-1,-1,-3,-2
1570181499881365,-2,-2,-2,-4,1,2,7,-6
1570181499894246,-2,0,-2,0,-2,-3,-3,-6
1570181499894246,0,-2,-1,0,-1,-1,2,4
1570181499903223,1,0,-3,-1,-2,-1,-4,-5
1570181499903223,-2,0,1,-1,0,2,5,2
1570181499917230,1,1,0,1,-1,-1,-1,0
1570181499917230,-3,-1,-1,-2,-1,-2,-2,-3
1570181499926162,3,-3,-2,-2,-2,-1,1,1
1570181499926162,-2,1,1,2,1,1,-3,-6
1570181499948102,1,-1,-1,0,-1,1,0,-1
1570181499948102,2,-1,-2,0,-2,-2,1,6
1570181499949099,-2,0,0,-3,0,-1,1,-1
1570181499949099,-1,0,2,0,-1,0,-4,-2
1570181499954086,-2,-3,0,-1,0,-1,-1,1
1570181499954086,-1,0,1,-1,0,-1,0,-4
1570181499963060,0,-1,-1,-1,-1,0,0,0
1570181499963060,4,-1,-3,0,0,0,0,8
1570181499978027,-4,0,-1,-2,-2,-1,-1,-11
1570181499978027,-3,0,-1,0,-2,-1,2,-1
1570181499979028,5,1,1,1,1,-4,-13,14
1570181499979028,-2,0,-1,-1,-1,0,-2,-4
1570181499999967,2,2,2,0,0,0,4,16
1570181499999967,-1,-1,-2,-1,-1,0,-1,-4
1570181500001958,-4,-1,-1,-2,-2,-4,-1,-4
1570181500001958,0,-1,-2,-1,0,5,0,-1
1570181500013930,3,-1,0,-1,-1,-2,-4,3
1570181500013930,0,-1,0,-1,0,1,-1,4
1570181500022902,-2,0,-1,0,-1,1,2,0
1570181500022902,-2,-1,-1,1,-1,-2,-2,-3
1570181500038003,0,-2,-2,-3,1,0,3,-5
1570181500038003,-2,-1,2,0,0,-1,-1,-6
1570181500038862,6,0,0,0,-2,1,1,7
1570181500038862,-2,-2,-2,-1,0,1,4,1
1570181500059802,-1,1,-1,0,0,0,-3,-2
1570181500059802,0,2,-1,2,0,-1,-1,-1
1570181500061797,-5,1,0,-1,-1,1,-1,1
1570181500061797,0,-1,0,-1,-1,-3,-2,-8
1570181500073765,-1,-1,0,0,0,1,0,0
1570181500073765,1,-2,-2,-3,-1,-1,0,7
1570181500082742,2,0,0,0,0,0,-3,8
1570181500082742,-1,0,0,-2,1,-2,7,4
1570181500097702,-2,0,0,1,-2,-3,-2,-4
1570181500097702,2,0,-1,0,-2,0,-3,3
1570181500098700,-1,-1,-1,0,1,0,3,-4
1570181500098700,-2,-1,-2,0,-2,0,-1,-2
1570181500119647,-4,-3,-2,-1,-1,0,-3,-9
1570181500119647,-2,-1,0,-1,1,1,3,0
1570181500121637,-6,-3,-1,-2,0,1,1,-13
1570181500121637,-1,0,0,0,-1,-4,-2,2
1570181500133611,-3,0,2,1,-2,-1,-2,-2
1570181500133611,1,0,-3,-3,-1,-1,-2,-4
1570181500142581,-5,-3,-1,-2,-1,-3,0,-20
1570181500142581,0,1,2,1,1,0,-4,-1
1570181500157545,-1,-1,-1,0,-1,1,1,3
1570181500157545,-2,-1,0,0,-1,-1,-1,0
1570181500159541,1,1,-4,-1,0,0,0,0
1570181500159541,0,1,-2,-1,-1,-3,-3,-3
1570181500180910,-2,1,-2,0,-1,-4,-1,-7
1570181500180910,-2,-1,-1,1,0,2,1,-3
1570181500181478,0,-1,0,-1,-1,-1,2,1
1570181500181478,-3,-2,1,1,-1,1,0,-1
1570181500202427,1,-1,0,-1,0,0,-1,1
1570181500202427,0,-1,-2,0,1,-2,-2,2
1570181500204807,-1,0,-1,-1,-1,0,1,3
1570181500204807,1,-1,-2,-1,-2,0,-1,-1
1570181500217495,-2,-1,-1,0,-1,0,-1,0
1570181500217495,1,-3,0,0,-1,0,0,1
1570181500219452,0,-1,0,0,-2,0,-1,4
1570181500219452,-5,-3,-3,-2,0,-1,3,-36
1570181500240394,2,1,-1,0,0,-1,-6,1
1570181500240394,0,0,-4,-1,-1,-2,1,0
1570181500241319,-2,-2,1,-1,-3,-1,1,2
1570181500241319,-1,0,-1,-1,0,-1,-1,-2
1570181500263258,-1,0,-1,-1,-1,1,1,1
1570181500263258,-1,0,1,-2,-3,-3,-1,-3
1570181500264259,2,1,-1,0,1,2,1,4
1570181500264259,1,0,1,1,0,-1,-4,9
1570181500277223,-1,0,-1,-2,1,0,1,-2
1570181500277223,2,1,0,1,-1,-2,-2,3
1570181500279215,-2,0,0,0,-1,-3,-2,-1
1570181500279215,0,0,1,-2,-1,1,-3,9
1570181500300167,-3,-3,-1,-1,1,1,-1,-3
1570181500300167,-6,-3,-1,-2,-1,0,6,-15
1570181500302156,4,1,1,1,1,2,-6,10
1570181500302156,0,-1,-1,0,0,1,2,4
1570181500323098,-3,-1,-1,-1,0,0,3,-8
1570181500323098,-2,0,-1,-1,-1,-1,-8,1
1570181500324098,-4,-2,-2,-1,0,-1,3,-5
1570181500324098,-2,0,3,0,-1,-3,-5,0
1570181500337060,0,-1,-1,-1,-4,-3,0,0
1570181500337060,0,0,0,1,1,1,-1,0
1570181500344048,-1,0,0,-1,-2,1,-2,-3
1570181500344048,-1,-1,-2,-2,0,0,0,4
1570181500360004,-4,-2,-2,-1,0,-1,3,-5
1570181500360004,0,-1,0,0,1,-1,-1,-1
1570181500361995,0,0,1,-1,-1,-3,-1,6
1570181500361995,-1,-1,-1,-1,-2,-1,0,-4
1570181500382939,2,-1,-1,0,-2,-1,0,2
1570181500382939,1,-2,-3,-1,0,1,-2,2
1570181500384042,-2,-2,-1,-3,1,2,6,8
1570181500384042,0,-1,0,-1,0,-2,-2,3
1570181500397022,0,1,0,-2,-2,-2,-3,2
1570181500397022,1,0,-1,-1,-2,-1,-4,6
1570181500404017,-3,-3,-2,0,-2,-3,-1,-15
1570181500404017,1,-1,-2,-2,0,-1,1,6
1570181500419843,2,-1,0,0,0,0,-1,-2
1570181500419843,1,0,0,-1,-2,-1,5,7
1570181500421908,-6,-1,0,0,-1,-2,-5,-17
1570181500421908,1,0,-2,0,-1,1,0,1
1570181500442810,-1,-1,0,-1,1,-1,0,4
1570181500442810,-1,-2,0,-2,-1,-1,-1,0
1570181500443775,-3,0,-3,-1,0,-2,2,-4
1570181500443775,5,-2,0,-2,-1,1,0,9
1570181500456742,-1,-1,1,0,-1,-3,-5,-18
1570181500456742,-1,0,0,1,1,0,-1,3
1570181500463722,-1,-1,-1,-1,0,0,0,1
1570181500463722,-3,-1,-1,-1,0,0,3,-7
1570181500480678,5,2,0,0,-2,-3,-14,14
1570181500480678,-1,-3,-1,-1,-2,5,0,1
1570181500481680,3,1,2,0,1,0,-2,4
1570181500481680,-4,-1,-2,1,-1,-3,-1,-5
1570181500503046,-3,-2,-1,-2,-1,-1,3,0
1570181500503046,-1,1,-1,0,-1,-3,0,0
1570181500504614,3,1,-1,-1,0,-1,-1,8
1570181500504614,-2,0,-1,0,0,-1,-1,0
1570181500516772,-1,0,-1,-1,-2,-3,-1,-10
1570181500516772,0,0,0,-2,0,-2,2,0
1570181500524580,1,0,-2,-2,-2,1,5,11
1570181500524580,2,-1,1,0,-2,-1,-5,-2
1570181500540541,2,-2,-2,0,-1,1,1,6
1570181500540541,-3,-2,-1,-1,-2,1,11,-10
1570181500541519,-1,0,-1,0,0,0,-7,-9
1570181500541519,-1,0,1,-1,-1,-2,-2,-2
1570181500562464,1,0,-1,-3,-2,1,3,6
1570181500562464,-2,-1,1,0,-1,-1,-4,-8
1570181500564454,-2,-1,1,-1,-2,-3,-2,-2
1570181500564454,-2,1,0,-1,-3,-1,0,-2
1570181500577422,0,-1,-1,-2,1,1,1,1
1570181500577422,0,2,-1,1,0,-1,-5,-2
1570181500583407,-1,0,-3,0,0,-2,-1,-9
1570181500583407,2,1,-2,-1,-1,-1,1,6
1570181500600457,-1,0,0,-1,-2,0,-1,-2
1570181500600457,1,-2,-2,-1,0,-1,-4,3
1570181500601357,5,0,-1,0,-1,3,3,5
1570181500601357,-4,-2,-1,-1,-1,1,1,-4
1570181500622301,-2,1,-1,0,1,0,0,2
1570181500622301,-1,-1,-3,-1,-2,-1,-1,1
1570181500624297,-3,-1,-2,0,-2,-3,0,-4
1570181500624297,-3,-2,-2,-3,1,1,10,-13
1570181500637302,2,-1,-2,0,-1,0,-3,9
1570181500637302,-2,0,0,-3,0,-1,-4,0
1570181500644400,-2,-1,1,0,-2,-1,0,-1
1570181500644400,-2,-1,0,-1,-1,1,-1,-1
1570181500660200,0,-2,-1,0,-1,0,8,-2
1570181500660200,0,-1,0,-1,0,1,1,1
1570181500661276,-1,-1,0,-3,-1,0,1,1
1570181500661276,0,0,0,0,0,-5,-12,-4
1570181500683140,-1,-1,-2,0,-1,-1,1,-7
1570181500683140,-1,-1,-2,-1,0,-1,-4,1
1570181500684333,2,-1,-2,-3,-1,0,4,1
1570181500684333,2,0,0,1,0,2,1,2
1570181500696101,-3,-1,-1,-1,-1,0,0,-6
1570181500696101,0,0,-2,-1,-1,2,3,1
1570181500706074,-1,-1,-1,1,-1,-3,-2,1
1570181500706074,0,0,-2,0,-2,-2,-3,-2
1570181500720302,-4,0,0,0,-1,-1,6,-12
1570181500720302,3,0,-1,0,-1,-3,-8,9
1570181500722033,-1,-1,0,-1,1,0,-1,-3
1570181500722033,0,-2,-3,-2,-1,9,3,5
1570181500743056,-4,-1,-1,-2,-2,-15,1,-4
1570181500743056,-1,1,1,2,-1,-4,-2,-6
1570181500743977,2,0,1,0,0,1,-2,2
1570181500743977,0,-1,0,-1,-1,-3,-2,-3
1570181500756043,2,-1,-2,-1,-1,4,-2,6
1570181500756043,-4,0,-1,0,1,1,1,-5
1570181500764920,3,0,1,2,0,-1,1,23
1570181500764920,-2,0,1,0,-2,-1,-1,-7
1570181500779888,2,0,0,0,-1,2,-3,6
1570181500779888,0,-1,0,-1,0,-2,0,1
1570181500781871,-4,-2,-1,-1,0,2,-1,-13
1570181500781871,-1,0,-1,0,0,-2,0,4
1570181500802922,3,-2,1,0,0,0,-2,6
1570181500802922,-2,0,0,-2,-1,-1,-2,-7
1570181500803814,-1,0,-1,-2,-1,-1,-1,-3
1570181500803814,-2,0,-1,1,1,-2,-1,-3
1570181500816824,0,0,-1,0,-1,-2,-4,3
1570181500816824,-1,0,0,-1,0,1,2,-2
1570181500825949,3,2,-1,1,-2,-2,-16,4
1570181500825949,0,0,2,0,0,-2,0,2
1570181500839725,-2,-3,-2,-1,-2,-3,-2,-2
1570181500839725,0,-3,0,-1,-1,6,2,-2
1570181500841717,-3,-1,-2,-1,-1,2,7,-3
1570181500841717,-1,-2,-2,-1,-1,1,0,6
1570181500862656,0,-1,1,0,-1,0,-2,2
1570181500862656,0,-1,-1,0,-2,0,0,0
1570181500868824,-1,-1,-1,-1,-1,-2,-1,-5
1570181500868824,-3,-2,-1,-1,-1,0,0,-4
1570181500876663,-3,0,-1,-1,-1,0,-2,-1
1570181500876663,-1,-1,-2,-2,-1,-2,1,2
1570181500885596,-1,0,-1,-1,-1,0,2,-3
1570181500885596,2,-1,0,-1,0,-3,-2,2
1570181500900554,-1,-1,0,-1,1,3,-1,-1
1570181500900554,-3,1,-1,-1,-1,0,3,-9
1570181500901552,1,0,1,0,0,-4,-10,4
1570181500901552,-1,1,-1,0,-1,-3,-1,-4
1570181500922502,1,0,-2,0,-1,-1,1,-1
1570181500922502,1,-1,0,0,-2,-1,1,1
1570181500924491,-1,-2,-1,-2,-1,1,5,-1
1570181500924491,-3,0,-2,-1,-1,1,-1,-3
1570181500936462,5,1,-1,-1,-3,-2,3,18
1570181500936462,0,-1,-1,0,-1,3,-3,1
1570181500945434,-3,-2,-1,-1,-2,-3,-1,-8
1570181500945434,2,-1,-2,1,0,0,-2,3
1570181500960402,-4,-1,-1,-1,0,1,-3,-10
1570181500960402,0,-1,-1,-2,1,-2,0,1
1570181500961631,0,-2,-1,0,-1,-1,-1,0
1570181500961631,-2,-3,-3,-3,0,0,1,-5
1570181500982337,-1,0,0,0,0,1,-3,-3
1570181500982337,1,1,-1,-1,-1,-2,-1,-5
1570181500984330,-1,-1,-1,-1,0,1,-1,0
1570181500984330,-2,-2,-1,-2,-1,-1,2,1
1570181500996496,-2,-2,-1,0,1,1,3,-8
1570181500996496,6,1,0,2,0,-2,-9,13
1570181501005276,0,-1,-2,0,-1,-1,1,-10
1570181501005276,2,0,1,1,-1,0,-1,8
1570181501020239,0,0,-2,-3,0,1,4,0
1570181501020239,-5,-2,0,-1,-3,-1,1,-7
1570181501022231,-1,1,-1,0,0,0,2,-3
1570181501022231,0,0,0,-2,-1,0,-3,3
1570181501042178,-1,0,-1,0,1,0,-3,-8
1570181501042178,-2,-2,0,-2,-1,-3,-2,-7
1570181501044172,1,-1,-2,1,-2,-1,0,4
1570181501044172,1,0,-1,0,-1,0,1,-2
1570181501057139,0,0,0,-2,0,-1,-3,4
1570181501057139,-2,-1,-3,-3,-3,-7,2,2
1570181501065115,-3,-1,0,0,2,7,2,-3
1570181501065115,1,-2,-1,0,-1,0,2,-1
1570181501080219,-2,-2,-2,-2,-1,0,-3,0
1570181501080219,-2,-1,1,0,1,0,8,6
1570181501082159,-1,0,1,-1,-1,-3,0,-1
1570181501082159,3,0,-2,-1,-1,-1,-6,3
1570181501103155,2,0,1,0,0,0,-3,7
1570181501103155,-1,-1,-2,0,2,1,0,-5
1570181501104011,1,0,0,-2,0,-1,1,2
1570181501104011,-3,-1,1,-2,-2,-2,-1,-10
1570181501124958,-6,-3,-2,-1,0,1,3,-12
1570181501124958,2,-2,-1,0,-2,0,-4,-2
1570181501126958,0,-2,0,0,-2,0,0,0
1570181501126958,-2,0,-2,-1,-2,-2,0,-6
1570181501140203,11,3,1,3,0,-3,-16,21
1570181501140203,-1,0,1,0,-1,0,0,1
1570181501141910,-2,1,0,1,2,0,-2,1
1570181501141910,-2,0,-1,-1,1,0,3,-1
1570181501162856,-3,-1,0,-2,0,-1,5,-5
1570181501162856,-1,0,-2,-1,0,1,-1,0
1570181501163851,2,0,0,-1,-1,-3,-3,5
1570181501163851,-2,-1,-1,1,1,-1,0,-1
1570181501185117,2,0,-1,1,-1,-4,1,2
1570181501185117,0,-1,0,1,2,4,1,0
1570181501186864,-3,-1,-2,0,-1,-2,3,-8
1570181501186864,0,1,-1,0,0,1,-3,0
1570181501199911,-1,-1,0,-3,-3,-1,0,-3
1570181501199911,-3,-2,0,-2,-2,-2,1,-4
1570181501206737,-3,-1,-2,0,-1,0,-2,-1
1570181501206737,-1,0,1,1,1,0,-1,2
1570181501222695,-1,-1,-2,-2,0,0,3,11
1570181501222695,-3,-3,0,-1,0,-1,2,8
1570181501224689,-2,0,-1,-3,-2,0,-1,-3
1570181501224689,1,-2,-1,-1,-2,-1,4,3
1570181501244678,-2,-1,1,-1,0,-1,-4,-7
1570181501244678,-1,0,-1,1,0,0,-1,1
1570181501246631,-5,-1,-3,-2,-1,-2,-2,-10
1570181501246631,6,-1,-1,0,0,-3,-3,5
1570181501259602,-3,-1,-1,-2,-2,0,3,-4
1570181501259602,2,0,-1,0,-1,-1,-3,2
1570181501266580,0,-1,1,0,-1,1,-1,1
1570181501266580,-2,-1,0,-1,-1,-3,-5,-16
1570181501282538,1,0,0,1,-2,1,0,-1
1570181501282538,0,-2,-1,-2,-1,-1,6,-11
1570181501284528,2,-2,-1,-1,-1,-1,-7,7
1570181501284528,-2,2,-2,0,0,-1,-1,-3
1570181501304522,-1,-1,-1,-2,0,0,1,-4
1570181501304522,-3,0,-2,-1,0,1,0,-7
1570181501312717,0,0,0,-1,-2,-1,3,0
1570181501312717,-1,-1,0,0,-2,-1,0,11
1570181501319434,-1,-2,-1,-1,0,2,0,-13
1570181501319434,2,0,1,-2,-2,-3,-6,3
1570181501326616,2,-3,-2,1,1,0,0,-1
1570181501326616,1,-2,-2,0,-1,1,-2,4
1570181501342449,-2,0,-2,0,0,-1,1,0
1570181501342449,0,-3,-2,-1,-1,-1,-2,0
1570181501344373,-1,1,2,0,1,-2,0,-2
1570181501344373,-3,-1,0,-2,0,-1,-1,-7
1570181501365354,4,-1,-1,0,-1,2,6,33
1570181501365354,-2,0,0,0,0,-2,-1,-5
1570181501366313,8,2,2,0,0,-2,-13,17
1570181501366313,2,1,-2,-1,0,-2,0,2
1570181501379493,0,-1,-1,-3,-1,-4,-2,-8
1570181501379493,-1,1,0,-1,0,-1,-5,-1
1570181501387252,-2,-2,0,-1,-2,0,6,3
1570181501387252,-2,-1,1,0,1,2,-1,-2
1570181501402354,4,-1,-1,-1,-2,-1,-6,-7
1570181501402354,-1,-1,0,-1,-2,-1,0,-2
1570181501405205,-2,-2,-2,0,-1,-1,3,-7
1570181501405205,-1,0,-2,-1,-1,1,0,3
1570181501425251,-3,0,0,1,0,-1,-1,-2
1570181501425251,1,-1,-3,0,-2,-1,-2,5
1570181501427147,-1,-1,-1,-2,-2,1,0,-4
1570181501427147,-1,0,0,-1,-3,-6,-4,-1
1570181501439115,0,-1,-1,-2,0,8,3,8
1570181501439115,-5,-4,-3,-2,-2,0,-2,-14
1570181501454076,5,3,0,1,0,-2,-15,17
1570181501454076,-4,-1,0,-1,0,-2,-1,-8
1570181501463058,-5,-1,0,-1,-1,-3,-3,-5
1570181501463058,-1,-1,0,0,0,-1,-1,3
1570181501464048,-3,-1,0,-1,-1,-1,8,-4
1570181501464048,2,1,-1,-1,1,1,0,3
1570181501484993,-5,-1,-1,0,1,-4,-4,-9
1570181501484993,3,0,-1,-1,-2,1,-1,6
1570181501486988,0,-2,-3,-1,-2,0,2,-13
1570181501486988,0,0,0,-2,0,0,0,6
1570181501498962,1,-1,1,1,-1,-1,2,-1
1570181501498962,-1,0,-1,-2,1,-1,0,-3
1570181501506062,-5,-2,-3,-1,-2,-2,3,-11
1570181501506062,0,0,-1,1,-1,1,3,11
1570181501522894,0,-1,-2,-1,-1,-2,-2,-5
1570181501522894,-6,-3,-1,-3,-2,-2,9,-18
1570181501524891,-2,-2,-2,-2,-2,1,-1,-2
1570181501524891,0,-1,-1,-1,-2,0,2,-1
1570181501545140,-2,-1,-1,-1,-1,-1,0,0
1570181501545140,1,-2,0,0,0,2,2,4
1570181501546827,-4,0,-1,-2,-2,1,6,0
1570181501546827,-1,-2,-1,0,-1,-1,-1,-4
1570181501559998,1,-1,0,0,-1,-6,-2,-1
1570181501559998,3,1,-2,0,1,5,-4,5
1570181501565928,-1,0,0,0,-1,0,1,1
1570181501565928,-2,1,0,0,-1,-1,-4,0
1570181501582621,-1,-1,-1,-1,0,-1,-1,-2
1570181501582621,0,0,0,0,1,-1,-1,10
1570181501584480,0,0,1,1,-1,0,-2,-2
1570181501584480,-1,-3,0,-2,-1,0,1,-3
1570181501605460,-2,0,0,-1,-2,0,0,-1
1570181501605460,1,1,-2,0,0,-4,-2,10
1570181501606474,1,-1,-1,0,-2,-2,0,2
1570181501606474,-6,-2,-2,-1,0,-3,-4,-13
1570181501619418,3,-2,-1,-1,1,2,-2,4
1570181501619418,5,2,1,0,0,-3,-15,12
1570181501627330,-4,-3,-1,0,-1,-2,-5,-3
1570181501627330,3,0,-1,-2,-2,1,1,5
1570181501642720,-1,-1,-1,0,-1,0,-2,-2
1570181501642720,-4,-2,-2,0,0,0,3,-8
1570181501644504,1,-1,-3,-1,1,-1,0,-5
1570181501644504,-2,-1,-1,-1,-1,-3,-3,-3
1570181501665676,-4,-1,-1,1,0,-2,2,-1
1570181501665676,1,-1,1,-2,-2,-2,0,-1
1570181501667036,0,0,-1,-1,-1,0,1,-8
1570181501667036,2,-1,1,-1,-2,0,1,-1
1570181501679341,-2,-1,0,-3,-1,-1,0,-1
1570181501679341,-5,-1,0,-1,-3,-5,-4,-22
1570181501687715,-2,-2,0,-1,0,1,0,4
1570181501687715,-1,-1,-1,-2,0,0,-1,-3
1570181501702754,1,-2,-1,-1,-1,-2,-3,-1
1570181501702754,-6,-1,-1,-1,-1,8,13,-12
1570181501704603,1,-2,-3,-2,1,-2,-4,5
1570181501704603,-1,-1,-2,-1,1,1,1,0
1570181501724792,0,-1,-2,-2,-1,-1,2,2
1570181501724792,-1,-1,0,0,-2,-4,-2,0
1570181501726782,-1,0,0,0,-1,1,2,6
1570181501726782,-1,-2,-2,0,-1,0,1,3
1570181501739369,-2,-1,1,-1,-2,0,-3,-10
1570181501739369,0,0,0,0,0,-1,-2,5
1570181501747407,-1,1,1,0,0,0,0,-1
1570181501747407,-1,-1,0,-1,-1,-1,-2,-1
1570181501763079,-2,-1,-1,1,0,0,0,-3
1570181501763079,1,-1,-1,-1,0,-2,-2,2
1570181501764145,-3,-2,0,0,-1,-3,-2,-8
1570181501764145,2,-1,-3,-1,-1,-1,1,6
1570181501785330,-1,1,1,0,-1,-1,0,2
1570181501785330,0,-1,0,-1,-1,1,-2,0
1570181501786335,2,0,-2,-2,0,0,0,4
1570181501786335,5,0,0,-1,0,1,2,3
1570181501799468,-1,0,-1,1,0,-1,1,5
1570181501799468,-2,-1,-1,-1,-1,-2,-6,-16
1570181501807219,2,1,-2,-2,0,0,1,1
1570181501807219,0,-2,-3,0,-4,0,1,2
1570181501822275,3,0,0,1,0,1,-1,2
1570181501822275,0,0,0,0,-1,-2,2,6
1570181501824180,-3,0,-1,-1,-3,-1,0,-2
1570181501824180,0,1,0,2,2,-1,-2,-2
1570181501845120,-1,-4,-6,-7,-1,-2,-2,-4
1570181501845120,-2,-2,4,-3,-2,-1,-3,4
1570181501847117,-3,-3,-13,0,-5,-1,-2,-1
1570181501847117,1,4,6,-1,-1,-2,-3,-1
1570181501859300,-2,-5,0,3,-1,0,0,-1
1570181501859300,0,-1,2,1,1,0,-1,3
1570181501868095,6,14,-7,-5,0,-1,1,3
1570181501868095,2,7,13,10,5,4,3,3
1570181501882018,-7,-9,18,11,0,1,-1,-9
1570181501882018,13,9,8,6,0,-2,3,4
1570181501895981,-19,-28,-9,-5,-2,-1,-4,-9
1570181501895981,3,8,-20,-14,-8,-9,-4,1
1570181501904956,-13,-11,-13,-10,-2,-4,-5,-12
1570181501904956,7,12,-19,-12,-7,-2,-1,10
1570181501906951,-4,17,21,5,-2,-2,-2,-18
1570181501906951,10,-17,-13,-4,-4,-2,0,12
1570181501918918,9,4,0,0,0,3,3,20
1570181501918918,-17,-23,0,-4,-2,0,-1,-2
1570181501927896,3,5,-4,-6,-2,-1,-1,-5
1570181501927896,-1,9,3,-1,0,2,1,-26
1570181501942157,-1,16,8,8,3,-3,-5,-35
1570181501942157,-1,-10,6,-3,-6,-1,1,2
1570181501948932,5,3,-6,1,2,1,1,14
1570181501948932,5,10,0,5,4,2,0,14
1570181501964797,11,-5,-6,2,3,2,6,24
1570181501964797,-23,-10,-5,1,4,3,1,-2
1570181501966791,9,12,24,4,0,1,1,11
1570181501966791,29,4,-3,-3,-4,-3,-5,2
1570181501978758,-53,-29,-10,-2,2,0,-2,0
1570181501978758,10,9,-6,-3,-2,-4,-3,-3
1570181501987735,4,10,12,0,-1,-3,-1,5
1570181501987735,-17,-5,6,4,2,0,-3,-39
1570181502002469,7,6,-8,1,-2,2,0,-35
1570181502002469,1,-4,18,4,4,1,2,-17
1570181502008681,-5,-3,-6,-10,-8,-3,-4,-12
1570181502008681,1,11,-17,-2,8,2,0,14
1570181502024636,7,-25,-3,3,-1,1,3,18
1570181502024636,2,1,-14,-2,13,2,1,12
1570181502032670,4,-17,9,2,-18,-3,0,7
1570181502032670,-8,-17,-3,0,0,-3,0,13
1570181502038638,-1,10,-4,-7,-14,-4,-4,4
1570181502038638,-11,12,-2,4,12,5,-2,-2
1570181502047577,-2,4,2,3,16,8,1,7
1570181502047577,-12,-8,-9,-7,8,-1,-2,1
1570181502062534,13,6,6,-3,-28,-16,-6,1
1570181502062534,13,14,-6,-3,-6,1,3,4
1570181502068802,-6,-14,4,12,21,7,3,-2
1570181502068802,-12,-11,3,-4,-21,-7,-4,-15
1570181502085477,12,9,-5,-8,5,4,0,4
1570181502085477,0,4,11,1,-16,-10,-5,-6
1570181502086471,-4,-12,-14,-6,-12,-7,-1,0
1570181502086471,-6,9,-11,0,11,7,3,5
1570181502107416,0,-17,-3,-3,23,9,2,5
1570181502107416,8,10,-12,-5,-17,-8,-3,7
1570181502109409,0,34,19,8,5,-3,-2,0
1570181502109409,14,-30,8,-1,-16,-5,1,7
1570181502122380,-2,6,-5,3,29,17,3,6
1570181502122380,-6,-12,-12,7,31,13,-1,-3
1570181502128432,1,-20,-22,-16,-48,-18,1,10
1570181502128432,-15,42,36,4,0,-2,-3,0
1570181502145315,-2,-13,-8,-1,2,0,0,5
1570181502145315,4,-13,6,1,-31,-18,-6,-3
1570181502146309,3,6,-5,-2,14,10,4,6
1570181502146309,-5,-15,-3,-1,9,4,-1,-4
1570181502168048,7,16,1,3,19,10,1,4
1570181502168048,-1,9,1,-1,14,6,0,3
1570181502169248,1,-5,2,4,-5,-5,2,8
1570181502169248,1,7,8,4,18,11,-1,-8
1570181502182216,-6,8,-6,-13,-53,-24,-6,-5
1570181502182216,13,-10,0,-11,-10,-12,-4,5
1570181502189205,-23,2,3,8,14,5,1,2
1570181502189205,12,14,-1,8,17,8,4,1
1570181502205400,10,7,4,13,55,24,3,1
1570181502205400,-2,-3,-15,-11,-44,-16,0,4
1570181502207148,-11,-29,-20,-10,25,4,-1,-6
1570181502207148,-20,10,0,-20,-99,-44,-6,-3
1570181502227095,-1,0,17,3,-5,0,1,3
1570181502227095,28,11,0,5,12,11,8,19
1570181502229090,15,14,6,11,36,13,-2,-10
1570181502229090,-1,-20,-16,2,24,10,-1,-8
1570181502241060,7,32,17,10,44,15,7,24
1570181502241060,-13,-31,-8,8,29,13,6,-9
1570181502258014,-27,-10,-14,-33,-76,-49,-14,-5
1570181502258014,-4,-4,9,2,20,-1,-1,16
1570181502265315,4,3,2,1,-23,-13,-1,15
1570181502265315,-4,23,16,14,58,28,4,23
1570181502266987,13,-10,-3,2,10,8,-1,18
1570181502266987,-4,-13,-16,-10,-34,-13,2,26
1570181502287935,7,2,1,1,7,-2,-11,-35
1570181502287935,-15,-9,-2,-7,-21,-8,-4,-27
1570181502288933,-8,-2,7,13,23,10,2,-24
