timestamp,emg1,emg2,emg3,emg4,emg5,emg6,emg7,emg8
1570179533069283.0,6.4760950562030954,2.3883968240629696,1.280595130900636,1.3622818462559552,1.7880168753313828,1.4981963845098798,2.239250749745858,6.804509269517499
1570179533069283.0,4.15927463082271,1.979242099283931,1.344695356705231,1.3166381549010178,1.5698811843256648,0.7948471267114963,1.2875181934116313,3.73690562670228
1570179533070280.0,4.136808611852901,1.9950430856187331,1.32323387007715,1.3212348008834531,1.5820401441100584,0.7764658269534683,1.2789977339026126,3.478165797094747
1570179533070280.0,3.370965852646712,1.8718045327177537,1.3548101889761535,1.309333569188258,1.5162396992836424,0.5679551276939828,1.082705867885419,2.4580362194569063
1570179533071278.0,3.3793235118961165,1.8875336370901172,1.3349213040359078,1.3142396669269656,1.525559830166727,0.5825021551005257,1.153398386265321,2.4225097952380015
1570179533071278.0,2.950636764456039,1.8214263049739743,1.3495682846192614,1.3094077388981284,1.4913614619171658,0.4950313483344191,1.1468290089579702,1.974325021303297
1570179533074269.0,2.982812377934771,1.834701764250315,1.325395816219035,1.3115323603780809,1.5013829495230404,0.5251298485986994,1.2250366561454824,2.0730744649261728
1570179533074269.0,2.6937383473924337,1.785980285591516,1.3296259435623115,1.3049751378766228,1.4803115309475783,0.500709161201503,1.245021079134683,1.8827732856399622
1570179533082248.0,2.725199947380087,1.7915527930297086,1.306349625496871,1.3047480167378196,1.4905383352389152,0.5404096176076401,1.3098432801960358,2.019981085301668
1570179533082248.0,2.511477712575872,1.7486328231080228,1.3066639050471582,1.299410826968254,1.477388238743785,0.5462996819237869,1.3546435198110822,1.9992440358251709
1570179533090292.0,2.552497104892931,1.749665476074929,1.2854205550073396,1.298753584672644,1.4885175149161511,0.5866181828117278,1.4271528868521641,2.166406118582149
1570179533090292.0,2.395517491655726,1.7120159008563125,1.2855104556928914,1.2895763932149906,1.4789751767778825,0.5986985009666852,1.490925704234191,2.2100436138463517
1570179533096270.0,2.433651327597166,1.7096826666601739,1.269446667532665,1.280846943739168,1.4878279288707257,0.6274281672764958,1.5627197327255595,2.349667526287988
1570179533096270.0,2.301276622355294,1.675227424448282,1.2736537863960078,1.2675731637103742,1.4802088979567762,0.6370862887693404,1.6271417166197604,2.405991561292477
1570179533111172.0,2.3343508181795176,1.6702297519043263,1.259645642188727,1.2583325202190405,1.4903711731197504,0.6631956375436383,1.6972429054293277,2.529006115836908
1570179533111172.0,2.2245836640195877,1.6376644894219081,1.2564601629679177,1.2464311758460698,1.4861100229289161,0.6761089959992939,1.7609651937963475,2.588985322714862
1570179533120185.0,2.257075166851955,1.6336914844170543,1.2357277119204195,1.2387936290602246,1.492216074933953,0.6983975730281166,1.8225539844183254,2.693817611551886
1570179533120185.0,2.164680049987393,1.608933470874742,1.227561655845114,1.2297790949695535,1.4821140935798036,0.7106932333442814,1.8738775423225489,2.7573613446493708
1570179533135139.0,2.193202748449447,1.6097845694856971,1.2074202130017868,1.22513212096638,1.4830228884630163,0.7318903109932621,1.9197351754648415,2.850284693144994
1570179533135139.0,2.1094715004677544,1.5900844209454592,1.2018714931538845,1.2175183253321495,1.4701703244132607,0.7453639647294147,1.9574654344982663,2.908984867165551
1570179533142090.0,2.131649496656669,1.5915144939430852,1.1837780693725395,1.2104863397357486,1.467541776690324,0.7678864110564462,1.995765425195632,2.991295529934113
1570179533142090.0,2.0586050701687304,1.5758916667383434,1.1748596984307118,1.2001777438564676,1.4532453439822832,0.785992809437361,2.0284478734224383,3.056182408420534
1570179533156051.0,2.084702858654424,1.5817388385139428,1.1538476838040472,1.1926493222815036,1.448380284856504,0.8085181681470812,2.060817542619123,3.1434305807138454
1570179533156051.0,2.028168422974805,1.5716794038817112,1.1441608009368862,1.18399082497902,1.4322971868793675,0.8241671773195589,2.0916813376342818,3.221109180641888
1570179533196941.0,2.0586005206321873,1.5758106601652877,1.1268695647245501,1.1788609022432688,1.4244751548333756,0.8443090200315146,2.130443320290324,3.310121537262007
1570179533196941.0,2.014863143612074,1.560413212801061,1.1201190385357132,1.1729868621016049,1.408081995051602,0.8592480241840669,2.172012295085552,3.3921762574646164
1570179533198253.0,2.0508257652967963,1.5604107256007589,1.1037462250644898,1.1687123271518214,1.4026741820626527,0.877673212478962,2.205592306812108,3.4810752603855426
1570179533198253.0,2.0190431793741346,1.5487791448631536,1.095391823080819,1.1625038073738843,1.390648633818433,0.8901457789827518,2.2117014518766687,3.5604831655254268
1570179533199008.0,2.054829123710302,1.5537772198723474,1.0800734261541074,1.1588401650986202,1.389008612611837,0.9061595597481618,2.2104413951067796,3.6470265386779768
1570179533199008.0,2.029956704490371,1.5451192848207562,1.0752135224633423,1.1558457916746319,1.3817419059458975,0.9144630981901677,2.209536591663568,3.7360600350467155
1570179533201928.0,2.0689274931569734,1.5484785370084992,1.0639057563035106,1.1575100186514715,1.3837096329108556,0.9248363956438412,2.213485005952825,3.830014888132545
1570179533201928.0,2.0521640568443864,1.5370604891689787,1.0598072515222021,1.1579024154765405,1.3788408705143855,0.9300529481611443,2.2135294017964187,3.921744430445802
1570179533208909.0,2.0902843358779193,1.535634538519115,1.050717117834649,1.1592983183714314,1.3781589772084613,0.9387964938545942,2.218974446834311,4.016517110896318
1570179533208909.0,2.0772541067980645,1.520387575507113,1.051031274070228,1.1604051511263596,1.3667028874187725,0.940379464222518,2.225099247003198,4.114690890235154
1570179533216078.0,2.1168035194681933,1.5153872956581074,1.047375965473134,1.1632489211936043,1.3602168036942797,0.9457157631044472,2.2358216683511696,4.2177373269175895
1570179533216078.0,2.1099734728770914,1.4992049518333181,1.0519695859798612,1.165139451917099,1.3474960808177296,0.9477726441946072,2.245642627798365,4.326465003674389
1570179533224905.0,2.151024033707579,1.4941248352012775,1.0527848692491386,1.1675905991588411,1.3414518055295679,0.9551727864134621,2.2636146826170274,4.437582987879467
1570179533224905.0,2.151680839637179,1.4775199611094965,1.0594589326294344,1.1678832024895738,1.3289497633211178,0.958607191416424,2.285722987923011,4.546332619916996
1570179533238830.0,2.199856916252685,1.4716094223553216,1.06193737750685,1.1707874958695155,1.3236870806922398,0.9692601389866878,2.312370712602633,4.65990541644424
1570179533238830.0,2.213574899331049,1.4587816151802189,1.0720809448045419,1.174474794551817,1.313280017223341,0.9782234775246827,2.339672040395918,4.7699324867572495
1570179533248083.0,2.268116706596502,1.458961971132744,1.078496809142623,1.1796302147634425,1.307105661138688,0.9917344347718626,2.3688098470333987,4.854260658695515
1570179533248083.0,2.278396966302828,1.448971823294314,1.0864866308887389,1.182364679228994,1.2940324538064534,0.9981421474585427,2.3909913813276513,4.912226069860295
1570179533269801.0,2.3194788710588954,1.446604213102611,1.087135005614296,1.1848271153088321,1.2844606324265233,1.0037704333590596,2.4117093827398004,4.974836300717979
1570179533269801.0,2.3198280943084315,1.435644150673211,1.0923695444131032,1.1863452604510383,1.268143850709343,1.0004862504593672,2.431136910681374,5.0402211939402015
1570179533271742.0,2.350960969664449,1.4350006631420187,1.093800842201672,1.1878707081992543,1.258019947232741,0.9988378648912071,2.454986054280101,5.109163921144144
1570179533271742.0,2.3452195539828757,1.4271852751241931,1.097147743276194,1.184619496965074,1.2451452223761748,0.9884072016697226,2.4699827824743514,5.169397179205554
1570179533284778.0,2.373863108742303,1.4286934469532688,1.095795255120572,1.1807000738728812,1.2401004669177538,0.9816145860217463,2.470696479062917,5.2262748677151025
1570179533284778.0,2.369091037279447,1.4240556684484351,1.1015353718670844,1.1778441438159724,1.2345176208105784,0.9701397362982842,2.459671319091614,5.251951385775867
1570179533291688.0,2.391835326748474,1.427992865942369,1.1082756888869993,1.1777323805485924,1.2376639977879826,0.9616276391079712,2.449950952002252,5.25176854895843
1570179533291688.0,2.3779721586663713,1.4237181005692172,1.122526338062156,1.1770023300932504,1.237472861596767,0.9442797841044622,2.4374736701721225,5.232968990474951
1570179533307908.0,2.395994974763414,1.426768274462958,1.1312355237241454,1.1753438810298025,1.2415383165961082,0.9318359487029702,2.4294669879556308,5.225490367361144
1570179533307908.0,2.38688434781247,1.4204810257745057,1.1383130188880188,1.168450414007166,1.2438883117447666,0.916110057174973,2.4231569538487348,5.208664838175005
1570179533309640.0,2.408205437481098,1.4197098478474417,1.138557536208761,1.1576125978701397,1.2530002413496748,0.9050475865217223,2.420328030924203,5.196423520260063
1570179533309640.0,2.3983510301504243,1.4122151201575432,1.1393648365185094,1.1441266660609608,1.258160113073334,0.8862987540922405,2.410392673158273,5.169354818330729
1570179533330614.0,2.4152851718679167,1.411072114424509,1.1327075668876245,1.1322109081671292,1.26427848363937,0.8719618875533055,2.402368808887451,5.150247583609876
1570179533330614.0,2.4054363337282987,1.4007645883960655,1.1267796191068948,1.119644818878279,1.260784192687922,0.8547226067330456,2.396961347158214,5.12562345851991
1570179533331805.0,2.4264928109355517,1.3957689989114526,1.1162249899770822,1.1086491544815678,1.2562991622609,0.84477998343491,2.3972525169494303,5.115048157649804
1570179533331805.0,2.422578072724553,1.3842611446343378,1.1102005744360803,1.0994050091830267,1.2474102161563525,0.8333750896978617,2.3978109616077683,5.107807419060407
1570179533344586.0,2.4452794613889894,1.3799884443843742,1.1038981913393633,1.0937632967725535,1.2438893212323758,0.8290430901465888,2.404754009363932,5.1224363322919375
1570179533344586.0,2.4453237736738176,1.3709835945763567,1.104353172414635,1.0893510123534744,1.2374170755748204,0.8214129262034662,2.4146657896452224,5.13938096069639
1570179533351568.0,2.4732218551125773,1.369194318474793,1.1037709437344163,1.088036507435423,1.2343728807598808,0.8171846041173751,2.428326661205943,5.157180782666687
1570179533351568.0,2.4736517734544448,1.3598388112217707,1.1067244097263373,1.087150723613319,1.2289199795097097,0.8089074830449564,2.440172103828433,5.142181559000157
1570179533367523.0,2.4968055981400847,1.3556122624241302,1.1054891060517724,1.085759928297618,1.227810847438275,0.8054933493532107,2.4551313014971976,5.127359684443098
1570179533367523.0,2.500481176195677,1.3460647684444798,1.105168599315806,1.0845045576766938,1.2234389758691513,0.7989244904703471,2.4743058066281223,5.112796801414997
1570179533369481.0,2.530976742023992,1.3437931480183942,1.0973263125787034,1.0870442017932216,1.224693467981164,0.7951725901139242,2.5040621246919255,5.111109223907466
1570179533369481.0,2.538913553616721,1.3373036870687955,1.089335894148426,1.088115336794595,1.225819370686675,0.7870456464590461,2.5397824771283157,5.1115098670809305
1570179533397433.0,2.5644020186532983,1.3368974316260391,1.0783894168418862,1.085153245732329,1.2290195639166355,0.7811310932244042,2.5680763620266873,5.126570402910456
1570179533397433.0,2.556806365722916,1.3311015912280932,1.0715643400833732,1.078966583623129,1.2263467933847285,0.7707269151886719,2.572864853607343,5.12798914115124
1570179533399474.0,2.564547901734095,1.3309748517620454,1.0624986893173147,1.0733089486350347,1.2253267023703418,0.7619042914748549,2.5688927626488804,5.1278638625945225
1570179533399474.0,2.5498462024355115,1.3252610141809182,1.0558704187511958,1.0684753827904752,1.220705471680011,0.7491424686164028,2.5693405597282624,5.126276931601436
1570179533404430.0,2.557514017878838,1.3227548811005538,1.0465908152560284,1.0671853600231476,1.2200765768258663,0.7402855549949329,2.576900685068959,5.141679490098392
1570179533404430.0,2.5421136138631844,1.3122812951394054,1.040233846057534,1.0665094046723513,1.217507314928248,0.7313787861596226,2.5806249123656038,5.1595103223242305
1570179533411406.0,2.548743728075786,1.305265365201962,1.028446168768641,1.0644795906904534,1.2186988068021871,0.7270368793489401,2.581273642929249,5.192852941531753
1570179533411406.0,2.5380056930077166,1.2930937522358974,1.0170856397335066,1.0604613061035921,1.2182541047628461,0.7214219394347834,2.576063999241711,5.225603925961822
1570179533428323.0,2.551764518518883,1.2865602780951486,1.0037615464003764,1.0571918800162223,1.2183462980119044,0.7197525882415811,2.57188573894854,5.261440469767779
1570179533428323.0,2.546520809405602,1.2757636060181685,0.9949559052434054,1.0524248265910956,1.2122966816355825,0.7184625905473624,2.569754875483789,5.296482994377922
1570179533434307.0,2.5611361593874284,1.2688818818053444,0.984610597517646,1.048547480445436,1.2092945245851934,0.7199442274526167,2.5714946211514977,5.35015141734976
1570179533434307.0,2.557067150187021,1.2562768922816174,0.9784679496145806,1.04587461402512,1.2063307028683306,0.7220916351270916,2.5708179956802417,5.409065286999144
1570179533450264.0,2.5714799798053063,1.2480943835933702,0.9733248800241628,1.0432483711415208,1.2072689381145143,0.7286561193586891,2.5704253604426803,5.472454782993895
1570179533450264.0,2.5658082222924823,1.2360977394392114,0.9739017513592848,1.0406431544578194,1.203706519271785,0.7376647359050563,2.570944060744626,5.537490644501299
1570179533451261.0,2.5833911355078567,1.2311356407965661,0.9738724035173704,1.04118812400866,1.2004871400090482,0.7498793096331506,2.5796048400626197,5.616920703165338
1570179533451261.0,2.5881615705406134,1.225274792408738,0.9772221493599929,1.0427797155187464,1.195258026654853,0.7628479987667556,2.596106949717915,5.704536060071341
1570179533464227.0,2.618051697610317,1.2257165398761616,0.9793786288728702,1.0448344663715987,1.1954365412830374,0.7785358222592114,2.623677528990796,5.8129998947415515
1570179533464227.0,2.640526896699101,1.223381936547959,0.9808223648483768,1.046841582670266,1.196887007879918,0.7972228030201314,2.6583547624400974,5.936859230095607
1570179533473203.0,2.6931431073485244,1.2274216143508994,0.9777340303789538,1.0512445606336298,1.2035227638888706,0.8194803716523057,2.7000746860714577,6.074217361394144
1570179533473203.0,2.7271640606141982,1.2276912525023869,0.97806759418974,1.0560246036042114,1.208845233395738,0.8420255015978981,2.7424493237847942,6.172898086930092
1570179533488196.0,2.759501452495682,1.228853955748227,0.9794013339802855,1.059928397194372,1.215791757512072,0.8584955987857842,2.7730643160739734,6.209209925636484
1570179533488196.0,2.754324635537427,1.223985620948105,0.983700808730933,1.0644050697563434,1.2191229882145629,0.8653951327445577,2.777395711511591,6.202821185015958
1570179533489160.0,2.756495950691562,1.2234445489099433,0.987051549680916,1.0727297329123047,1.2225131815693075,0.8670567448008268,2.7717202295719487,6.200704269851723
1570179533489160.0,2.7341635565059357,1.2198442786021555,0.9940384805704878,1.0824257153015182,1.2223669463413331,0.8674930968346839,2.76542284177301,6.190500509346371
1570179533510401.0,2.7247464662034413,1.220049270052582,1.0009409953226476,1.0908326182060002,1.2250842370843595,0.8696832712466125,2.758931211703506,6.177824249695369
1570179533510401.0,2.693740149006325,1.2181673062885099,1.009810189193024,1.0956857909123083,1.2258412945376047,0.8728202348382172,2.745008393720953,6.154813452485155
1570179533512133.0,2.682783441718464,1.2213899975342921,1.0175896546824148,1.0997438518085363,1.2293291006663751,0.8779032220868116,2.7303050483187694,6.144358609479635
1570179533512133.0,2.65559347428463,1.22168036950816,1.0264588121169747,1.1051960182860472,1.2300707727208837,0.882160869808043,2.7170621424073835,6.118567831288863
1570179533524066.0,2.6412834967587977,1.2257563184348668,1.0322216530468067,1.1120124123947503,1.229929903863859,0.8853869854772235,2.711061964141253,6.0846842788514985
1570179533524066.0,2.6033675530846776,1.2260744328715052,1.0373617827476314,1.11720099720782,1.2254153598537572,0.8876750429268221,2.7069168227077336,6.036661609274923
1570179533539065.0,2.582970197968337,1.2278522014900932,1.0395157136769724,1.1207598558221732,1.2212448016988047,0.889902154868718,2.7089954253397135,5.993137178502174
1570179533539065.0,2.54430728914006,1.2268323305083937,1.043650788444621,1.1223155572689547,1.2121375060235964,0.8921868151901235,2.7084670310488863,5.940160039238194
1570179533548037.0,2.521753308353647,1.231533108334574,1.0467633615600929,1.1245157173628022,1.2034494582145712,0.8954659133611547,2.702127196414091,5.901014614247998
1570179533548037.0,2.481245294677403,1.2333752671083538,1.0493311455967853,1.127712090910081,1.192214598650795,0.8979141228426021,2.689801241025087,5.8613408426609555
1570179533549001.0,2.4599289025150592,1.2370050086642899,1.0488460466260379,1.1310666914535579,1.1836697616271776,0.9012837423812196,2.6760835510536998,5.8366509061183995
1570179533549001.0,2.423792798741209,1.2378822050629523,1.0497943358821398,1.132481185698126,1.1758347466896333,0.9058970128617082,2.65378779118491,5.804877865419818
1570179533569982.0,2.4058868326449994,1.2430484312924486,1.0518520954260628,1.1320416538262006,1.1730814278516768,0.910630726900254,2.631972284672898,5.784277145356432
1570179533569982.0,2.3706656239397303,1.2458635221589078,1.0588071309376377,1.1294565133840322,1.1685176320751656,0.9126897539205895,2.6112074705353545,5.766714698264263
1570179533571975.0,2.3531949505049314,1.252185451356362,1.0649345984495082,1.1264113733245167,1.1646307271580023,0.9137009558961788,2.5934659965558335,5.764397038906118
1570179533571975.0,2.3215228459873334,1.255592831924801,1.0688393594303425,1.1220744895662567,1.1579278899639447,0.9139003177519904,2.5727865598645536,5.73824955895223
1570179533583966.0,2.3078589086890293,1.2609803704094864,1.068745050794451,1.1186820195421008,1.152430365820119,0.9149830350639965,2.5571667783807968,5.700809857228694
1570179533583966.0,2.2802891769350104,1.2640122869428236,1.0699117560403804,1.117721030888895,1.1438003627100966,0.9183075436989754,2.542403321575804,5.647233134607489
1570179533592937.0,2.272625199524114,1.2691724687435961,1.07234489370341,1.1187014926682552,1.1364900261544635,0.9246541773259903,2.530072640104376,5.601816506793719
1570179533592937.0,2.2517561406316324,1.2684141282859707,1.079405325771443,1.1197717462571741,1.1273433642983026,0.9315204586213819,2.518916550840081,5.5499849687480145
1570179533607847.0,2.2464118559134434,1.2687481273785248,1.0873712600797654,1.121409399294529,1.1190076465026526,0.9384424147059212,2.5153074296830913,5.511264316352947
1570179533607847.0,2.226015063336506,1.2668805218276336,1.0966717218227962,1.122999541247081,1.1076914420149624,0.9449169292538502,2.515461078532566,5.466158389473496
1570179533608842.0,2.2207226960494926,1.267450345921902,1.1037371252775403,1.125436828617473,1.0982548326455752,0.9505306117829736,2.518451972698997,5.42342609382355
1570179533608842.0,2.200886991531738,1.2660118546088703,1.1107802701581653,1.1266788801881877,1.087378839888988,0.9536933936990336,2.51591076127458,5.368851388134707
1570179533629784.0,2.197642081184143,1.2681228947715848,1.1145756585357778,1.1241723596472064,1.0786546596663358,0.9568855587492224,2.51404140944824,5.3314545675963965
1570179533629784.0,2.1823575557168344,1.2661758791816133,1.1160977438143378,1.1185506191530779,1.069229965979,0.9616119006195615,2.515019477145668,5.298515738509144
1570179533631779.0,2.1821020816570758,1.2650878425651366,1.1122632655825084,1.113884988422159,1.0646770103571104,0.9657089400323784,2.520978571446842,5.279778916459088
1570179533631779.0,2.1674584012209945,1.2603300281023884,1.1064238769181676,1.1094491790246126,1.061755627728614,0.965413246429844,2.526644661920809,5.247682052368072
1570179533652750.0,2.166404940532521,1.2587347710479022,1.100081704615521,1.105290155204448,1.0600948107851664,0.9632010974838422,2.535234039208449,5.213998393994881
1570179533652750.0,2.150230460903671,1.2571663863584595,1.0971744358157185,1.1029051526840603,1.0534048613193934,0.9602712574397552,2.5406295573544844,5.159634942248539
1570179533654718.0,2.1478874793840848,1.2582688285513655,1.091640101568543,1.1038019875888234,1.047493963009273,0.9583621667909139,2.5468397103888885,5.10415048236238
1570179533654718.0,2.1327848845620423,1.2559165506326768,1.0845209734861643,1.1067922515678243,1.0416224851768217,0.9587617306591589,2.5570443580769204,5.041656704816201
1570179533667684.0,2.129744097101015,1.255928190283277,1.076083430304536,1.112602077393396,1.0386568134224052,0.9623760409497785,2.577094407653716,4.9959494283012456
1570179533667684.0,2.113014440426712,1.2530586443564828,1.0692488148248347,1.1203030493988295,1.0359000862207857,0.9665942666428071,2.605173573645586,4.955824342147931
1570179533669682.0,2.1114635979555545,1.2502061373635056,1.0613204448622,1.1284823641000306,1.0352501807539838,0.9720273916723812,2.6431456360619103,4.938918719995566
1570179533669682.0,2.1000066621583757,1.2429906662986474,1.0565508979744926,1.1349119870881428,1.0313408065692249,0.9781450014032065,2.6703455059110053,4.919736931205756
1570179533690621.0,2.1002716656015554,1.2392062215900774,1.0543123544377628,1.1412359677529835,1.0280182265194406,0.9836431388122011,2.6722599054270852,4.896255857569782
1570179533690621.0,2.087728011670282,1.236062552882236,1.0575924379294757,1.1495223020291736,1.023510626473632,0.9868499098091497,2.659316624744077,4.86408431367005
1570179533691912.0,2.0909557008655613,1.2370724232868813,1.0632471540682933,1.1602756718857803,1.0216914034853368,0.9883701783963124,2.649140852098625,4.852968047010339
1570179533691912.0,2.0850897142023994,1.2365471428440071,1.0694533602832803,1.170390590112053,1.0214099979216196,0.9884073345622082,2.634866233578999,4.842396844630758
1570179533704584.0,2.0914135951168342,1.2386508150281268,1.0720772285655398,1.178207036175523,1.0266183777648938,0.9887075275992707,2.6172231180294605,4.828075302131139
1570179533704584.0,2.0831381383506344,1.2390193787271344,1.0746716821378983,1.1856362677449546,1.033974004815181,0.9885300216551092,2.5940328772,4.79232814090279
1570179533712960.0,2.081135671557962,1.2421278630632806,1.0754647170634917,1.1950466603796657,1.0438478100898307,0.9886540754104041,2.569913705137072,4.761464798790646
1570179533712960.0,2.063285093057912,1.2431416935052273,1.0762262057448104,1.2047464559612513,1.053365846426637,0.9882835772023243,2.5409330801701437,4.733042411260303
1570179533728142.0,2.056374073748501,1.2448301905938057,1.0751054403270675,1.2131111764956322,1.0642261941768165,0.9881824803653724,2.5105376937992494,4.716391079582392
1570179533728142.0,2.038384083785176,1.2422473790794228,1.0725745973798904,1.2181914788649773,1.072412273296042,0.9885049508656065,2.4752038714957223,4.695563623535563
1570179533729521.0,2.033262937504794,1.2393099880228682,1.0688023703173546,1.21958365514964,1.0802720480564867,0.9911268888037493,2.440465997829226,4.6815625072403355
1570179533729521.0,2.020374706275218,1.234176512052389,1.0694371930842903,1.217682860626771,1.087549850383928,0.9943806659941871,2.4033714632622236,4.661537031944353
1570179533750516.0,2.020087722807434,1.2340648780782801,1.072694087994006,1.2167213728119037,1.0968637253350388,0.9989753162430064,2.368434022802785,4.64275520257341
1570179533750516.0,2.008952702583558,1.2357606977543463,1.0788748665063488,1.218621972208202,1.1037749123269451,1.0052752109795253,2.3347686900981715,4.62141616468153
1570179533752456.0,2.0109621897835157,1.242070157376952,1.084247937592204,1.2226357265163792,1.109791527078212,1.012218194487613,2.307837866226657,4.616306891188539
1570179533752456.0,2.0048890144729548,1.2471644939053186,1.0891758191705683,1.2271728373357886,1.1128423552483688,1.0169954600705238,2.2843072840489183,4.615178604978398
1570179533763465.0,2.0089368810494976,1.2538913092069564,1.0926726187355005,1.233637150883517,1.1172901295913327,1.0213148027694376,2.2691079375847445,4.619645521415916
1570179533763465.0,1.9998522610236142,1.2596166849585335,1.0959939736921591,1.2418434855183236,1.1212010314381275,1.0244372668164727,2.2584640974300916,4.621797733782157
1570179533772406.0,1.9978031720874079,1.267647634574897,1.094923430013628,1.2473676999917247,1.1245395147686235,1.0262220747150446,2.255535530592593,4.635238209322295
1570179533772406.0,1.982654686884012,1.2731472693269696,1.0913811197007424,1.2473634978917794,1.1251956917687016,1.0265840584899333,2.2587810913647735,4.651357411154016
1570179533787429.0,1.9750812823350092,1.279201309384294,1.0850989117188214,1.24727670035257,1.1257718691723675,1.02761451962069,2.2708160568639797,4.6733623763281384
1570179533787429.0,1.955852504745075,1.2830535339692135,1.0800285707947326,1.249442744715931,1.1223944711017688,1.0273839662891735,2.2836050753676407,4.694784994989027
1570179533789364.0,1.944693639972976,1.2882277355208793,1.075052799002688,1.2516331644416856,1.1177801064273736,1.025910625339734,2.293603382729911,4.725448140690062
1570179533789364.0,1.9226304388015387,1.2884334915829725,1.0703046049903397,1.2535252067363574,1.1126504125207064,1.0228154778850587,2.3024271325953576,4.758862436644014
1570179533811303.0,1.9127449736359101,1.2876090017423487,1.0623187019787843,1.25796211418129,1.1112837684579884,1.020329876728026,2.3145579613550344,4.798031624573751
1570179533811303.0,1.8983405367197512,1.2843831840682978,1.0541640166854427,1.2645590581589503,1.1125818484138204,1.0182377770732445,2.321649720702999,4.837267897555021
1570179533812298.0,1.8974116195123232,1.2830848294363655,1.046407383683978,1.2720205340039665,1.1190826058908319,1.017250310161919,2.3271941207986635,4.88207488990662
1570179533812298.0,1.8885027776202297,1.2800188887795676,1.0404604037706313,1.2786527287804623,1.1267939514400516,1.0138691354435794,2.330467008499477,4.930395936377154
1570179533824263.0,1.8879233159808388,1.2759174235839221,1.033348312568267,1.2846918444482605,1.1343377728424124,1.0104535663113459,2.329847264548793,4.991815539596829
1570179533824263.0,1.876891409488146,1.2644809710568452,1.0274778944688991,1.2885959380632859,1.1380336235011472,1.004740205823563,2.32252420291964,5.048079294199251
1570179533832243.0,1.8724467804928535,1.25232837640912,1.022476372601129,1.2906959495851038,1.1410659444767244,0.9962116953100257,2.3077195251317164,5.07477901008353
1570179533832243.0,1.8569552666484646,1.239989178361742,1.01954207013933,1.293744900185727,1.1425731977227016,0.9826548909423696,2.2819690886806496,5.059606215340215
1570179533847238.0,1.849251750254566,1.2328558003203933,1.0149885189671641,1.2985350259757922,1.1446637092743837,0.9663737725513893,2.256879402924427,5.032338202564643
1570179533847238.0,1.8338585312195164,1.2271732739641825,1.0095831417124719,1.301904184095479,1.1460465567962568,0.9470520171526776,2.235207205066048,5.007720439003536
1570179533849197.0,1.8281850804482438,1.2238424059877482,1.004456208634194,1.3022434392271371,1.1505630998609158,0.9276055652736585,2.218306894855728,4.991401714623056
1570179533849197.0,1.8153175100565617,1.2175271097319007,1.0029570447185632,1.2999257953992507,1.1556789064887751,0.9068135393485539,2.202022181412176,4.973826932457126
1570179533870349.0,1.8104387489497007,1.2108566278524657,1.002095225439835,1.2984008582991073,1.1602613747378774,0.8878325647660834,2.1866456626795165,4.965273606353844
1570179533870349.0,1.800771328915608,1.2005271974012137,1.002148028690034,1.2985829658453938,1.1607689304948952,0.8687534202248617,2.1695969213173862,4.960598101813651
1570179533872173.0,1.8029630117814732,1.1909027245815216,1.0007272556364037,1.2986425842793294,1.1601971371632236,0.8516424344730295,2.152235993607762,4.962433468607722
1570179533872173.0,1.7990634708254756,1.1786924389057625,0.9976520861488936,1.2950441639807313,1.1586006255395704,0.8345714539356164,2.1297566849928677,4.971246180708143
1570179533884177.0,1.8039720090264393,1.1671453417251028,0.9929744890286483,1.2893878706178292,1.1591822015594229,0.8195326164940848,2.1075292216075683,4.994187164288922
1570179533884177.0,1.80338668442714,1.1525575154732317,0.9911493735039846,1.2857397412757894,1.1585810920634068,0.8037457590681668,2.087017379569138,5.025055615832
1570179533892734.0,1.8084294564474335,1.1384609766821905,0.9917446621120185,1.2855460078942695,1.1571665016026567,0.788581875689864,2.069347145122397,5.060721403969399
1570179533892734.0,1.8061090254674332,1.1234178337213012,0.9940439277681582,1.2848475708995042,1.1530367120304044,0.7743689935948179,2.0547054405076364,5.096152222343675
1570179533908045.0,1.8128855026032422,1.1124470171603091,0.9966636244654266,1.2825896361268965,1.1494382414076854,0.763918295980691,2.0461906972726296,5.139671429480128
1570179533908045.0,1.8174788056037512,1.103358817091632,1.0026449737270866,1.2803448367874144,1.143908903796916,0.7561815212357126,2.041516520268426,5.188842645002551
1570179533909038.0,1.831172190081463,1.0992358695001796,1.0115732049670447,1.2779675883315924,1.136932459024617,0.7514962564041558,2.0430603551002102,5.242961119544981
1570179533909038.0,1.8400895096527978,1.0953265140485415,1.0224418280332697,1.2746353201896434,1.1262026603933009,0.7467913679424771,2.048966228767169,5.294397315632111
1570179533929982.0,1.853384330147329,1.0935401414223718,1.033314914501537,1.270776879097931,1.115437567854251,0.7426550291965599,2.0580841418771105,5.3445524930812285
1570179533929982.0,1.8590430828022846,1.0929313120725697,1.0447912987743406,1.2653824966022076,1.103201848652254,0.7404507515801747,2.069580254687572,5.395877429100842
1570179533931977.0,1.8718863854459111,1.0972110492824048,1.05712086205637,1.2605434229158936,1.0909898586321722,0.7418066138523964,2.0840265608976556,5.4515043605015885
1570179533931977.0,1.8834010118249491,1.1029256160840697,1.0721421502122874,1.2565094517497772,1.0785472815069386,0.7454442590867506,2.1029695201192946,5.510295091970806
1570179533952921.0,1.9037804125835907,1.1136945961596614,1.0884798316446904,1.253318512762701,1.0691288501605578,0.7504239352624476,2.127794271197162,5.57012424147144
1570179533952921.0,1.9233619513332403,1.1273264963181215,1.105720606705062,1.2528005045883075,1.0601094957807922,0.7567284471315519,2.1573018245515576,5.6146307405088685
1570179533953919.0,1.9510640517001376,1.143405091767966,1.1234078147316335,1.255649992298885,1.053694396968306,0.7641473440296576,2.180719917852331,5.641107077174069
1570179533953919.0,1.9741293100413748,1.1580579507635955,1.1402574113851667,1.2592781769988635,1.0475008069854181,0.7729303683543498,2.1860361494711347,5.648040301838768
1570179533967880.0,2.0015260590150223,1.1731275252459326,1.154469116590796,1.2654391590432394,1.042415910864239,0.7815995793236195,2.1851027783533974,5.651846980367746
1570179533967880.0,2.0234861681203764,1.1873826752140493,1.169548159296159,1.276113059476689,1.0354581301822159,0.7897615670559408,2.190888485194749,5.656174753165791
1570179533968878.0,2.0449179937817914,1.2032550595428986,1.1844232635240477,1.2902233111754973,1.0264894498668629,0.7979553134519786,2.1985268465640115,5.653543448427621
1570179533968878.0,2.0551840103040715,1.2141368802952421,1.1965712766699033,1.302865299050028,1.0138186322946758,0.8088408896417122,2.204221009191206,5.634064319009628
1570179533990821.0,2.069381631607589,1.2173714472536528,1.207045414540037,1.3094600098753553,1.002075854784918,0.82142264272772,2.2139542752946415,5.617239858355312
1570179533990821.0,2.0840651976918183,1.2107760107947023,1.2187320719204584,1.311147316576329,0.9913561407172287,0.8355536648357023,2.2319695648516666,5.607611269931622
1570179533991817.0,2.1085111153570786,1.2013531215613407,1.2293872017800413,1.3125388781811018,0.9841898962967534,0.8511921499790189,2.2568402363522453,5.604915194422738
1570179533991817.0,2.1298489415075554,1.1906718309721573,1.2375198815179482,1.3140795720251264,0.9793735447558859,0.8669463283547045,2.2878702144407335,5.60347294247685
1570179534012760.0,2.1523199516358082,1.181886478764836,1.243139275904251,1.316503955274423,0.979261528130757,0.8782201657034385,2.3204441825303057,5.602083270927491
1570179534012760.0,2.1664975662346784,1.1730704191407737,1.2479149149358069,1.3188505314610457,0.9821319014961132,0.8863905144917384,2.35433455355427,5.5980835373616715
1570179534014370.0,2.1841995682705884,1.1666677955006433,1.2520839049034125,1.3212002233538327,0.9878896688708372,0.8906949164559228,2.3878270815622953,5.599186608367182
1570179534014370.0,2.197439587354594,1.1616194001699074,1.2566594122922496,1.3237284328843428,0.9935401674159865,0.8922477727950451,2.41793054617439,5.6067884682902
1570179534026723.0,2.2129242466154757,1.161111644340668,1.2597862325925262,1.3249378088473305,1.000215679164549,0.8923357961847709,2.4471993960391663,5.62756308869774
1570179534026723.0,2.218689272696682,1.1617119121697497,1.263088400725194,1.3235525408324065,1.0063138052678304,0.8936947201928607,2.4741252905338764,5.65157260209791
1570179534035700.0,2.223977981491083,1.163341249064751,1.2668705413381265,1.3204939618671054,1.0131458964684128,0.8963191644113887,2.4916057922365624,5.681549011559599
1570179534035700.0,2.2198837041905786,1.1629262870713493,1.2723451892479563,1.3162088575382582,1.0192490320789331,0.899969242190287,2.5027323086305047,5.722670216167336
1570179534049664.0,2.216102285946248,1.1650466567108846,1.2770911818891615,1.3116650422143952,1.0258041068845114,0.9039599605625535,2.5120294247066033,5.774751137322197
1570179534049664.0,2.205284533138152,1.1701672175763465,1.278843142038808,1.3042178301543883,1.0322189961930297,0.9111197131431173,2.5259291255709746,5.819728542549733
1570179534051655.0,2.1996525771666535,1.1773157214887475,1.2758152576430635,1.2942928956223632,1.0413199482342141,0.9201895868150392,2.5455832888008123,5.862258950014104
1570179534051655.0,2.1898390150965503,1.1814698833626578,1.2711939794048632,1.2856207800543733,1.0517770345689328,0.9301173702622594,2.569534952934837,5.910650870899378
1570179534072600.0,2.1876712984381887,1.1860092090214696,1.2680847020344483,1.2804968227442373,1.0623281477481215,0.9401213371854623,2.599059490863111,5.9684029173430115
1570179534072600.0,2.1856502988314523,1.1885072381607678,1.2684590971274265,1.2767310766339337,1.068517925990091,0.9520276669670507,2.626508704800734,6.026829685385495
1570179534074596.0,2.188030972264295,1.1899774346204697,1.2696076158905618,1.2719788452667284,1.0730335372923054,0.9626951808160776,2.6402850772330657,6.071488258296846
1570179534074596.0,2.178671065615091,1.1907691172732549,1.271749977303966,1.2658440505600683,1.0781832159758422,0.9715212157741046,2.6494926641104155,6.080671344178862
1570179534087563.0,2.169477286143244,1.1912550693661847,1.271716175870833,1.259482606276737,1.0852191148406047,0.9797466412172153,2.6652839466439615,6.071742107295599
1570179534087563.0,2.155071565100812,1.1886308458917443,1.2709764488219053,1.2535257735605227,1.0919279700154825,0.9880225950766549,2.68773315654872,6.065576034535774
1570179534093547.0,2.146523088163608,1.1866141334881428,1.2696965573696382,1.2490024197921192,1.0994608347052899,0.9936984083219326,2.7124305408721554,6.074085290226694
1570179534093547.0,2.1359826898650596,1.1836138057065262,1.2680896485697395,1.244583567815106,1.1066598172978481,0.9986915410326299,2.7359938802902737,6.092952166539869
1570179534117480.0,2.1325149011875744,1.182475054456576,1.264873232033457,1.2411384636060292,1.1147856646332892,1.0001979456603916,2.759334313684413,6.120610837508772
1570179534117480.0,2.1277230829388314,1.1812217830882978,1.2612422054588321,1.2402110980115388,1.1228628512212462,0.9984047660154433,2.7876572849850465,6.144667931373231
1570179534119476.0,2.132381752001736,1.179104388931535,1.2550985902022957,1.240654160476771,1.1313050707899728,0.996630961915448,2.8080495323099144,6.157894010609779
1570179534119476.0,2.1333754651116754,1.1755126360009027,1.2460513826462687,1.2378800619366355,1.138479563940638,0.9962309602615714,2.801695375571267,6.154004548871664
1570179534132440.0,2.136021987202226,1.174480531608801,1.2338968187333095,1.23328656555615,1.146786341035328,0.9965328418046338,2.778176259713281,6.1542422910002115
1570179534132440.0,2.133227194437443,1.1749102802716775,1.222878157497537,1.2292728132723933,1.1546107103690826,0.997954321265783,2.756554719077333,6.160593812761609
1570179534134436.0,2.136127359001266,1.178780448882316,1.2125640657726735,1.2259036468499926,1.1622104720276656,0.9969504121929029,2.74085142293116,6.1684575527815495
1570179534134436.0,2.137746293156089,1.1841888536563945,1.202349786787534,1.222021160044649,1.1674427177013729,0.9933566347582439,2.7279364988786767,6.174205661348247
1570179534147401.0,2.1463794783906107,1.189828524640972,1.1902767190375203,1.216486926447831,1.1700307191347585,0.98872956941281,2.7149607961292253,6.183953013960413
1570179534147401.0,2.1485634048214983,1.1920542253864896,1.179170640007543,1.2090526903031757,1.1689922008385158,0.9854934159166869,2.7016557827352283,6.184848604266127
1570179534153384.0,2.1502008390059575,1.1956375104513826,1.170085738666818,1.2010220401988052,1.1657578728034543,0.9840032184030718,2.690122025688174,6.180706791464074
1570179534153384.0,2.143506454986658,1.201340548819732,1.1651741227820551,1.1919669050893,1.1571118691947357,0.9846743789245926,2.684244768374977,6.168027038623473
1570179534168347.0,2.138672348165533,1.2077858381619249,1.1617178628576652,1.182643287667599,1.1454793336138123,0.9868329900649685,2.688195157075278,6.149893853176437
1570179534168347.0,2.127841394687548,1.213891830245634,1.1598563543830336,1.1748378672303752,1.1337003629362405,0.9879146500202345,2.702021823230727,6.118949047499802
1570179534177321.0,2.1222093901341323,1.2234005591793962,1.1575071389413285,1.170001630837235,1.1246090678163572,0.9847615250053315,2.7226577673110155,6.090100664745698
1570179534177321.0,2.115840350466839,1.2347677595667461,1.1544938491453853,1.1670331304617718,1.1164408228528633,0.981128677834545,2.747262389145557,6.065515052238172
1570179534192335.0,2.1146601509643475,1.2476022496773596,1.1503948216399789,1.16735532930202,1.1101425443098158,0.9792935929588199,2.7767334031485307,6.0457904788047205
1570179534192335.0,2.110640367309445,1.2586039573068843,1.1458534840677495,1.1709687632617487,1.102181724381943,0.9786613444969104,2.8142257617493165,6.024807291871262
1570179534194335.0,2.1138388857833967,1.2676630977801429,1.1371854405427428,1.175274663861161,1.0935853867249716,0.9788016295306312,2.855442295409979,6.0162298518252255
1570179534194335.0,2.1148289685138244,1.2730797624962968,1.1255798037058946,1.178781718163885,1.0850700233712578,0.9822369047514176,2.8949667566817125,6.020209888263409
1570179534215221.0,2.120917555166175,1.2767156536464654,1.111286780715674,1.1834908036373988,1.0785041983908112,0.9890919171026059,2.935796576751216,6.044737498331171
1570179534215221.0,2.120623078001353,1.2782589441719427,1.0974259628563479,1.1900047354215846,1.0728187022719757,0.9976924815916708,2.973363050933754,6.065163982509415
1570179534217216.0,2.117425099353334,1.2789370116280285,1.084053335269975,1.196722599403432,1.069577299060864,1.0035575565017885,2.992360960494701,6.05914083852979
1570179534217216.0,2.1082218665456027,1.2781151017223717,1.073620199441385,1.2033039039118865,1.0682025735777414,1.0067382447517055,2.9949666930447214,6.034159217915751
1570179534229183.0,2.107331230588162,1.2791993886786945,1.0656351655522274,1.2135510215008989,1.0680477709950897,1.0087612503941272,2.995690216750524,6.0215495707599835
1570179534229183.0,2.1080848965677204,1.2817617588291217,1.0605579276938701,1.2275207713236116,1.063510296327611,1.0111218099110106,3.000229356766657,6.017205497577576
1570179534237729.0,2.1166348687168193,1.2844762660071842,1.0565829978011176,1.2399167969334495,1.056489445476231,1.013251199851081,3.010732169656709,6.026194018598635
1570179534237729.0,2.121435162723199,1.2842711039827777,1.0526839676405833,1.2474467224261003,1.049906866785189,1.0166732761885076,3.0291251874691394,6.038576394492316
1570179534253118.0,2.122486523986977,1.2838480447067686,1.0471304548756328,1.2515853258640754,1.0463712101932265,1.0206625262480924,3.0548942116085644,6.04358845828723
1570179534253118.0,2.107191506067849,1.2840018017791004,1.0427589556542574,1.251574860529602,1.044070277645672,1.0227775242818649,3.0832805296889028,6.036104811297223
1570179534254453.0,2.089016576787433,1.2876528684961566,1.0391510846513583,1.248601455442908,1.044461977779737,1.0218309462740005,3.1050940831060663,6.034750169930221
1570179534254453.0,2.068155128133246,1.292305776139921,1.0352821697673782,1.2443586796469173,1.0459072302873984,1.020275962482813,3.115938181034879,6.021807299583638
1570179534275143.0,2.054172848598365,1.2969038980534167,1.0297010033717837,1.2400839151152176,1.048476790421167,1.0166165228079698,3.119019429132244,5.985860495904236
1570179534275143.0,2.039010728050998,1.3007562321517139,1.0241007149979366,1.2376279618172568,1.0511173022615043,1.010409863961151,3.115479983142067,5.9286110404812264
1570179534277053.0,2.0304790971284845,1.3063464438005776,1.0184676141522035,1.2395541365175289,1.0534898537029924,1.0043040220418256,3.1106018321931885,5.877616362909709
1570179534277053.0,2.021548791278657,1.3119395490172474,1.015726981383949,1.2452003385625816,1.0513043857773554,1.0004988572980131,3.1059296119576394,5.838081290956725
1570179534289022.0,2.0199067898938052,1.3167063568001178,1.016658082738512,1.2523378803644103,1.046920828412912,0.9995237259532199,3.1001963339882157,5.8184084691267355
1570179534289022.0,2.0181443520107014,1.3186313345483067,1.021513945063707,1.2584485569337278,1.042735070595718,1.0015620638824065,3.0975281883705863,5.814066164815254
1570179534298064.0,2.0213936069829055,1.3214904163187586,1.0277254747098943,1.2619617846112112,1.0399055404208815,1.0041439366047062,3.0965270155739373,5.8138143601177745
1570179534298064.0,2.021543092765815,1.3267680915598075,1.0347939304835247,1.262657859320908,1.036241731595888,1.0037227073004316,3.0783482390765995,5.784385064376479
1570179534312995.0,2.0248760051285917,1.335840865746534,1.041068842134024,1.261471623559336,1.0325527790702196,0.9983067967027855,3.0417938888711564,5.744533144408644
1570179534312995.0,2.0257091836189676,1.3443829295098033,1.0458063217128786,1.258963244394199,1.0282853464503214,0.9922486506018205,3.000962583559815,5.710576850410844
1570179534313955.0,2.030861633158843,1.3490759375045902,1.0501149910253136,1.2556962428313276,1.0270346217425346,0.988049081639803,2.962861529027671,5.686559299201307
1570179534313955.0,2.034284159614791,1.3484479347080551,1.0567755745079894,1.2509963689460037,1.027575812301247,0.9838402204905349,2.926101362763818,5.664938815024732
1570179534334903.0,2.040430615128848,1.3446453765302577,1.0645469894805126,1.2460852748172657,1.0258970509715601,0.9764947896985996,2.8960194735062887,5.6527449490805175
1570179534334903.0,2.0358314501897716,1.335707084694803,1.073763493751646,1.2407513787891606,1.0185963393637392,0.968328742574261,2.8732077927486572,5.62714010288727
1570179534336893.0,2.028596964973999,1.3244971910097567,1.0860973981347912,1.2363559163598585,1.0093892827171314,0.9619752255328474,2.855609179019072,5.586981402643855
1570179534336893.0,2.020232183456373,1.3096229381711388,1.1023520657279802,1.2326578581931422,1.0006649104059062,0.9565793416110278,2.83847513751637,5.542365296887465
1570179534348866.0,2.01651354096644,1.292457118084409,1.11940671033361,1.227735811269626,0.994625008095009,0.9519154177751399,2.8255392251621396,5.507638136231721
1570179534348866.0,2.0090659676660025,1.2752580981352348,1.1345192479971415,1.22037962990021,0.9896002204677283,0.9491373527360291,2.8189171419570966,5.473248153629241
1570179534358158.0,2.0042023416602572,1.2617870886260727,1.1470581135588391,1.2107786693668947,0.9868099967605494,0.9459071936460988,2.821375510897929,5.447590084041071
1570179534358158.0,1.9988662515668085,1.24962394849635,1.1592986223613535,1.2008995481827196,0.9846917477089281,0.9406146708671326,2.8337141464432145,5.429519854058277
1570179534373013.0,2.001948196023373,1.2375138690601057,1.1720307736936133,1.193952467296571,0.9830456253693772,0.9350565989663429,2.8523633448098216,5.427531252407741
1570179534373013.0,2.006210988492691,1.2209622434427305,1.1858363445826505,1.1910292641579743,0.9807650230416651,0.9313593761859466,2.854177521190656,5.432538628950797
1570179534373871.0,2.01284897013835,1.2019202123889152,1.1986040236268678,1.1922091316180392,0.9777615746347327,0.9271357216017461,2.826107106641507,5.445297566267979
1570179534373871.0,2.01641383169161,1.1815626772474161,1.208557895865898,1.1926917912407422,0.9721491377364335,0.9208025880000316,2.7833321049325614,5.464018312492912
1570179534395766.0,2.0254855121333586,1.1636062954396755,1.2170217189398604,1.1890945477512325,0.9672381374654091,0.914141230547759,2.7429875864005546,5.496523773663425
1570179534395766.0,2.0340118557308244,1.1483340449386943,1.2266514612984727,1.184298316232552,0.9649717341610276,0.9093122757834328,2.7059853641428724,5.532713212128754
1570179534397733.0,2.04394085603771,1.1378248352795894,1.2354693628405544,1.1830237723699983,0.9664070641324919,0.9048674423779434,2.6726294673359914,5.576512069457807
1570179534397733.0,2.048943604933894,1.1303759080459908,1.2408208852796885,1.1850146153158752,0.9680614044775643,0.8991437176822207,2.637278466913385,5.618700201169034
1570179534408703.0,2.0522256346997345,1.1262870297443501,1.2427395169667632,1.188017549506148,0.9688538531077109,0.89094517700581,2.6023132579910375,5.6527737521812895
1570179534408703.0,2.051985000257268,1.1244577434197265,1.2436776743120193,1.189256650000126,0.9695094256605126,0.8827358421224598,2.571323821820225,5.678790370244224
1570179534417711.0,2.055279433886723,1.1251913745587616,1.2431373214422026,1.1874985415285007,0.9721668513147609,0.8770454114225992,2.5493693275261515,5.704785593968054
1570179534417711.0,2.0540254274895187,1.1271314785567437,1.2425353360288915,1.184542864852051,0.9766038147975156,0.8749740917469818,2.5362854339698444,5.712926779237774
1570179534432637.0,2.0552724935503504,1.132627826607017,1.2425293621784572,1.182695019381676,0.982086802012481,0.8727817304031162,2.5279602178963794,5.702542097863325
1570179534432637.0,2.0583197368446546,1.1393975307133337,1.2431311749835223,1.1803610787290488,0.9855247744664675,0.8661764639047407,2.5174357243961984,5.684293390435712
1570179534434632.0,2.0638887914421686,1.1442979222352048,1.2409396233718801,1.175923334193744,0.9870226427136459,0.8562093615491648,2.508928671335258,5.674567891368859
1570179534434632.0,2.05771375813334,1.1442667993342377,1.2339693644400904,1.1699459683445161,0.9863577688893465,0.848359084896978,2.50581069762073,5.660597728678363
1570179534455577.0,2.046362069620457,1.14260193067935,1.222671076333044,1.1650257644889994,0.9860696482695163,0.8437576219154478,2.50940162581618,5.653158620372386
1570179534455577.0,2.034785390806571,1.1396562282613767,1.2104537155440114,1.1615528301804476,0.9869322297216957,0.8415955680871858,2.519066258399934,5.65988273368464
1570179534456574.0,2.0319258753894127,1.136213729070569,1.1977283772268552,1.1603957009040267,0.989033414918221,0.8381401319026928,2.5347688270175626,5.6893266799808995
1570179534456574.0,2.031288928899714,1.1324160761452855,1.1861160753601936,1.1600357320827346,0.9904413239785488,0.8323216074863199,2.555787571956183,5.734175924018976
1570179534477521.0,2.035191724016328,1.129132010212332,1.1761559860336164,1.1586131599960143,0.9933809636219006,0.8246799747483594,2.5852875182459907,5.794903917692268
1570179534477521.0,2.0342758851625136,1.1275135869192856,1.1686800065785594,1.1580647749085102,0.9998088876702429,0.815889341216456,2.6106672310458654,5.856949504981277
1570179534479514.0,2.027608668070333,1.1292779744694355,1.1642259223403657,1.1609732781744317,1.0101094065435194,0.805572431170633,2.6155381160397475,5.9000759003877254
1570179534479514.0,2.0132775750223204,1.1289601695376947,1.1630416318150891,1.1660411445234704,1.020958653125459,0.7976703843828202,2.6092341837783177,5.905309367461973
1570179534492515.0,2.0029849852947708,1.1242283395278334,1.1614241911302934,1.1723884304702574,1.0313158226732864,0.7929722959447533,2.60872074532691,5.89387450495093
1570179534492515.0,1.9954937559906458,1.1175587957035713,1.1604006408525405,1.1800140669785624,1.0425187139287608,0.7909495249939631,2.611408767353083,5.87222048865997
1570179534494474.0,1.9944947258412888,1.113048868717416,1.161612699049564,1.1880087879169818,1.0555697200013445,0.7886690548488751,2.613760466433335,5.846942667267904
1570179534494474.0,1.9928727766310514,1.1104159063471761,1.1650508849968226,1.1925469893191174,1.0682578555682298,0.7876396053215917,2.6181056883688516,5.807793569237921
1570179534515417.0,1.992904108102206,1.1104698376847804,1.1682143631628767,1.1929127203719685,1.0788989125357888,0.7886828072537992,2.624339331400304,5.75788637591735
1570179534515417.0,1.9879243532317306,1.1127131396714967,1.1703380212623011,1.1911899714647634,1.0865292708807082,0.7925361786347881,2.629793086707326,5.692659653421494
1570179534516415.0,1.9812573300060246,1.118798578625222,1.171552341421427,1.18910483643355,1.092390083319362,0.796991869330573,2.637910485081266,5.626113349408303
1570179534516415.0,1.9709330975418609,1.128566034120673,1.174340544655468,1.1866878160132013,1.0966962881273992,0.8044197200401243,2.650570312492589,5.559341662002931
1570179534537507.0,1.9651759192643368,1.1406160347622687,1.1794773404639651,1.1846226673327096,1.1027938720474466,0.8127394327772474,2.6629624691666454,5.495691616974334
1570179534537507.0,1.9630446821827756,1.152479161870128,1.1877790804909092,1.1811925052466967,1.1130122925388082,0.8214993841624906,2.6624521663732765,5.423716026807685
1570179534539353.0,1.9657633045676424,1.163381587432164,1.197163296871768,1.1740681628234353,1.1257342634363738,0.8297780968229915,2.6492177249314794,5.354997345212225
1570179534539353.0,1.9638839041963414,1.1728783003326437,1.2048693948456488,1.1654048050189636,1.1373130254474049,0.8408457612337136,2.6351027614551428,5.2798336662388134
1570179534552317.0,1.9619926214871695,1.1812137942716094,1.2118880816622932,1.1586639709934103,1.1480274430415363,0.851125949681723,2.625253042808816,5.204852013303203
1570179534552317.0,1.960395922582168,1.1899498077721946,1.221981735992584,1.1532535835793367,1.1563149315260268,0.8599911847168775,2.6172990511521785,5.134555025543327
1570179534554433.0,1.9645200003160437,1.2026048925847286,1.234371484431848,1.1505970774993994,1.1631679791058036,0.8678645970705141,2.6137223904348326,5.082661862874551
1570179534554433.0,1.9705507905320165,1.217330528144527,1.2460442673814043,1.1510105078932824,1.1702802212291745,0.8788421565694061,2.6163040111539586,5.039998237581059
1570179534575256.0,1.978908596127048,1.229421964686026,1.251262470043042,1.1519948311378325,1.177693461815769,0.8889980216060949,2.6247634274560507,5.011380254349268
1570179534575256.0,1.97895632693305,1.2383395522011589,1.2503446415589463,1.1523144126866676,1.1828900528588357,0.8977173410219527,2.6348329299370405,4.977169104674916
1570179534576253.0,1.9703805292697294,1.2463649092005453,1.247293454098429,1.153141894024865,1.185857849516199,0.9043336510418133,2.6446883334741473,4.927768703098473
1570179534576253.0,1.955065575129083,1.2523147722556862,1.2449612815437412,1.155028309863341,1.187887552538205,0.91277834473944,2.6569700825772298,4.860254571584179
1570179534597197.0,1.941515363316986,1.2563315822862207,1.2431051838801048,1.1565443343815949,1.1900298460050969,0.9216647737839068,2.672108758769727,4.7919217759135275
1570179534597197.0,1.9235719239968687,1.2600994147114917,1.2415121116811123,1.1523295260020423,1.1898611998542994,0.9324145912143086,2.6888866883772935,4.715754105808695
1570179534599192.0,1.9032194007482786,1.2640966015472772,1.2384603438875414,1.141280347488109,1.1863430296406103,0.9417989738695054,2.7095523460754642,4.638081364052402
1570179534599192.0,1.8782188981242425,1.266034464384191,1.2352608664636666,1.1267850232637182,1.1799701463801968,0.950413814162158,2.7340808838502735,4.557143122268371
1570179534612158.0,1.8531025895892497,1.267014078372712,1.2325868483805047,1.1120798821948883,1.1743628229969378,0.9584889886679218,2.758740391417244,4.483686429998478
1570179534612158.0,1.8258584419781587,1.2678355767507878,1.2294330759087344,1.0967093645531765,1.1694528787190273,0.9703080727290213,2.782397059659584,4.408783998008982
1570179534619139.0,1.8033306734010033,1.2677240792037234,1.2226931920191182,1.0802039212752446,1.1657935454364083,0.982840223100055,2.8091948484483695,4.337297924316273
1570179534619139.0,1.7828139948965216,1.2692876679991485,1.2142456082929787,1.0638950083141179,1.1640593465107447,0.9969550096076143,2.841167612031193,4.263543237808474
1570179534635186.0,1.766720875226257,1.273181608813184,1.2055187027481917,1.049741746882636,1.1644800773449808,1.010486975598255,2.877566685003996,4.1987361538623285
1570179534635186.0,1.752033289338369,1.2761224370222057,1.197208209527307,1.038342098413611,1.1644911370447413,1.024001977884536,2.9154958393290733,4.140331811138867
1570179534637092.0,1.7425403694486863,1.2792625366983026,1.189465335688359,1.0297654730954897,1.1641063697084169,1.0339353928525388,2.954176860816963,4.095049378601091
1570179534637092.0,1.7379580932587175,1.2824121703312628,1.185025548487171,1.022644501970124,1.1646590346250703,1.042150561268014,2.9966515284350694,4.059144328833308
1570179534658036.0,1.7419972790139173,1.285803686290158,1.1847798376815322,1.0178092425930532,1.167474911870848,1.0481052695999709,3.0452794964251098,4.03960430083126
1570179534658036.0,1.7530750743244465,1.2902441799606865,1.1899329932345357,1.016746473879506,1.1705202731216653,1.0533205377824646,3.1003901633674507,4.034787233101882
1570179534659034.0,1.7692450842227025,1.2952076028849118,1.1987090192613832,1.0200065658576072,1.171421215495428,1.0553379281873254,3.1580689368104946,4.049278310627736
1570179534659034.0,1.7826288082514843,1.2975190763209952,1.2071011747883469,1.025266414585523,1.1675348869099238,1.0563021425267987,3.207512461457675,4.070153511633354
1570179534671997.0,1.795102516398457,1.2952202992968889,1.2098295997925237,1.02900787919028,1.160605012442708,1.0547685363885189,3.234358687168111,4.087156720924245
1570179534671997.0,1.8065924158431579,1.2896106193591699,1.208290405085136,1.0302670190411534,1.1516280439437916,1.0536938192560261,3.229259389307801,4.0893292468488065
1570179534678978.0,1.8133114738811402,1.2848663187099902,1.204886762043445,1.0312378931402852,1.1433621980386,1.0518826610765601,3.2047060240648753,4.08814181205653
1570179534678978.0,1.8117309119824831,1.2829658489570253,1.1993184200951401,1.031116135350392,1.1358049361412041,1.0498817769071014,3.1776966555797554,4.087307910517109
1570179534694936.0,1.806536386010439,1.282503925557357,1.1912930726026834,1.0292952773199928,1.1287574412884587,1.0467458241993706,3.1554813200752823,4.087221893244469
1570179534694936.0,1.8017602714303436,1.2811113957445064,1.1842608016936147,1.0271056057487353,1.1215775946229223,1.0464747026428654,3.139188678847747,4.088342101632708
1570179534696974.0,1.8015511325579925,1.2800478319852149,1.1801913708871403,1.0265878049921715,1.114236896143676,1.0438283763892415,3.122936361694823,4.100192538028855
1570179534696974.0,1.80440455687111,1.2772687824115192,1.1787712951617793,1.0264130432550458,1.103705262380671,1.037137499783756,3.0986431687697347,4.119480078936218
1570179534717905.0,1.8079584985368184,1.2688134270784195,1.175298175340864,1.0249439298565222,1.0902921678016984,1.0286338289833823,3.07024170795345,4.142480494645849
1570179534717905.0,1.8116685836780222,1.2566720009539238,1.1695656442125852,1.0235069225582787,1.0769347467618782,1.023486959597732,3.0370867718262846,4.166661779018463
1570179534719473.0,1.8169076088612417,1.2472027519518116,1.1625805976615184,1.0232228648175836,1.0663538061266513,1.0199531633756596,3.0041876130518603,4.196972787013171
1570179534719473.0,1.824474419798754,1.239639311098136,1.1562576609553494,1.0222489514213797,1.0563336384272362,1.0185026639781638,2.976896092809793,4.2300685927512065
1570179534731840.0,1.834485024376072,1.2302086322944659,1.1491374846714408,1.018895195066723,1.0469519726797574,1.0179068390187649,2.956725647638472,4.268142646607815
1570179534731840.0,1.845952409865854,1.2192798033376444,1.1416655756781038,1.0138221466456743,1.0396006142282384,1.0215670253017328,2.938076556125084,4.316230675065921
1570179534738819.0,1.857733580810295,1.2091136751204081,1.1333096020573714,1.009524383550398,1.0355665975913104,1.0264982828183173,2.918186332908364,4.377819279498822
1570179534738819.0,1.8670587791228284,1.2005047814648213,1.123626414553999,1.0065170983617502,1.0333493307541204,1.0325268697789385,2.900813408492935,4.448376579359572
1570179534754777.0,1.8727576016339733,1.1947903213907467,1.1116211922401409,1.0045416476320854,1.034481489626923,1.0375960932281432,2.8928744821474326,4.5256716426976435
1570179534754777.0,1.8771753077568054,1.191866641738735,1.0975536518895608,1.0019887129198422,1.0390626073617673,1.0452726730290822,2.886020827786686,4.601461256614034
1570179534756971.0,1.8829385716335207,1.1919619749114703,1.0820746345184928,1.0005661458968913,1.045977721867788,1.0552059582590754,2.872004114287469,4.669429677922895
1570179534756971.0,1.8903007209280995,1.1929790729131489,1.0690708162281313,1.0014099002817385,1.0527434672983955,1.0691993896698126,2.8536505107188996,4.72736770756676
1570179534794674.0,1.8928791080147538,1.1929423129902705,1.0587288209248755,1.0020137047789417,1.0575328930364234,1.0834328207800403,2.8352103975422014,4.771075873914076
1570179534794674.0,1.8873120338654015,1.1927093569910319,1.050028209232354,1.001199699851398,1.0591443236193967,1.098922778157196,2.8107474422291965,4.800838412982089
1570179534795669.0,1.8753128967452024,1.1933467293809106,1.0410247453606698,1.000003485929312,1.0596978234931511,1.1123657873284594,2.7851973425410192,4.820237302874561
1570179534795669.0,1.8622172903563379,1.195829736894585,1.0330281389276401,0.9983474944175169,1.0598104260626973,1.1245631135693013,2.761067693787576,4.8333363264196505
1570179534796984.0,1.848473884192326,1.2001558225077313,1.026608132491031,0.9964023221813855,1.061014937517207,1.134347566252052,2.736946886998136,4.84121423136193
1570179534796984.0,1.8326257481835726,1.203336097234639,1.0225440822305483,0.9941139470535852,1.06333299085683,1.1439438499305579,2.7125330332792283,4.838668046998366
1570179534800677.0,1.816235968018477,1.2043730131355668,1.020492841741785,0.9908949000998808,1.0653020921598852,1.1521424068824546,2.6927916517749986,4.833022942029087
1570179534800677.0,1.8030553549622046,1.205340210272698,1.0202008300429526,0.9849749018206984,1.0660936730666726,1.1629381964865946,2.675204271059064,4.833288270369556
1570179534814616.0,1.7942458256392235,1.2081365744211625,1.0201567416698814,0.9765273963628237,1.0671052662646214,1.1743866629949031,2.659140310803598,4.8468981462939755
1570179534814616.0,1.79170119588595,1.2117781491933808,1.0197895661166925,0.9668082330224519,1.0680123241276143,1.1878482796607266,2.6422833468074276,4.871649234012631
1570179534838589.0,1.7929000004623958,1.2141942656124642,1.018453556733405,0.9581263942209118,1.0692844522068672,1.1998998663006457,2.6227481175921357,4.8996467120056835
1570179534838589.0,1.7961696028134229,1.2155217165534211,1.0158128195760818,0.952003569519032,1.0695569966456837,1.211821590167027,2.598550483041236,4.928814959508017
1570179534839550.0,1.7991646316781493,1.2146617838755245,1.008892572064776,0.9496011617360851,1.0687404466398238,1.220788414580869,2.5765094697830215,4.968984213231286
1570179534839550.0,1.8057873484132827,1.2118391462974987,1.0005437123700205,0.9497015473093143,1.0692370428037064,1.2287487810474509,2.5594433061420165,5.020132537463515
1570179534840548.0,1.8147463729419708,1.2079485118033806,0.9917561609161849,0.9502354808478771,1.0738958773855931,1.2351960012245717,2.5480449835647665,5.075520597491078
1570179534840548.0,1.8268346579220895,1.2042106098566776,0.9808283391963527,0.950606415398017,1.0829415958237179,1.2425147109026444,2.5401582284309043,5.13209063669577
1570179534851587.0,1.836738380852853,1.2024556914401334,0.9687915364939708,0.9507384703416598,1.0951879207743573,1.2472785275371496,2.5282529267822516,5.175200621193924
1570179534851587.0,1.847647938976069,1.2037572926733697,0.9583245715940772,0.9514207730794842,1.1072754655037007,1.2503101877570009,2.4956084553444158,5.182799742758397
1570179534858502.0,1.860678282071649,1.2067628892833784,0.9492004713481521,0.9525559865281751,1.1191777453919776,1.2511982617689845,2.449233958869553,5.165188279299598
1570179534858502.0,1.8765471173346842,1.2107370419383423,0.9429716296278229,0.9515850817245779,1.1317522908343989,1.255213583659908,2.398783770973639,5.1286640162348
1570179534875491.0,1.8874421710203577,1.2154499782730686,0.9386472559119139,0.9488190030570754,1.1436881040934646,1.2618577735839478,2.346266683579634,5.070024978067565
1570179534875491.0,1.8953810948767034,1.2221268198626598,0.9344163581308004,0.9450807311939916,1.151471092806843,1.2711371027570095,2.293331360340398,5.006069214945508
1570179534876523.0,1.899969666329629,1.229199144741334,0.9308091411452243,0.9405665526766773,1.155731926731635,1.2775926535817441,2.246482488431127,4.954904038307692
1570179534876523.0,1.906282141974611,1.2351772872948954,0.9281966571385871,0.9349093061762,1.1589942706194827,1.2815056237733302,2.20569044883151,4.907130649710624
1570179534897395.0,1.9110755615560295,1.2408196731807046,0.9262775024749214,0.9288076665553635,1.1628260233006333,1.2824620224581398,2.170477515933607,4.858745396349044
1570179534897395.0,1.919024634910217,1.2463445702346077,0.9263122642798127,0.924261288477914,1.1671265076140185,1.2842641766424607,2.136208475982879,4.815516486431221
1570179534899425.0,1.9285124292054172,1.2503773848467206,0.9282066915018087,0.922301866486273,1.1714535274840308,1.2841407403347496,2.1037120588099185,4.780323949638114
1570179534899425.0,1.9443935545463362,1.2523567497839985,0.9321237846383742,0.9221782482173213,1.1743340483237763,1.2823859701387563,2.0725649943346283,4.743523749272499
1570179534912399.0,1.9596022253866487,1.251134308296131,0.9379700350883857,0.9234134303459244,1.1769672162738276,1.2775739732001872,2.0443546039259415,4.704157648842492
1570179534912399.0,1.973641146914839,1.24830508001978,0.9458107725212221,0.9238073188171085,1.1792559281625803,1.2748040086792567,2.0160455477688104,4.662025937210408
1570179534919336.0,1.9838384477225322,1.244394522111017,0.9545819683448593,0.9227862550203005,1.1805664240855833,1.2752421228194544,1.9862164548119539,4.623670807917028
1570179534919336.0,1.9963897640872217,1.2397626788673481,0.9622691994621978,0.9210653622530585,1.180495531788416,1.2798342712852357,1.9549983486305593,4.586180029713822
1570179534935331.0,2.0072266635973866,1.2339432676841435,0.9668862055558988,0.9188617154000914,1.1784258795949032,1.2849335030088673,1.926562110124073,4.542618451006278
1570179534935331.0,2.0229640965794666,1.226396539370989,0.9694691469001104,0.9160023456574878,1.1734987827724963,1.2906297328946368,1.9014951210392412,4.493646484773649
1570179534936292.0,2.0401390166663145,1.217008886079504,0.974085799710808,0.912593878683891,1.167918641713685,1.2914931603019635,1.8790731366742692,4.452458334735739
1570179534936292.0,2.0612949324130847,1.2083168434029299,0.9816242186698636,0.9085640980873669,1.161673110583235,1.290552086303272,1.8562121093912138,4.424942925796358
1570179534957235.0,2.0785762410857407,1.2006572520334045,0.9901018292249422,0.9030632627450246,1.1531370278092121,1.2910501188203694,1.8353489618698013,4.410469361306988
1570179534957235.0,2.095702046590145,1.1944186822402378,0.9974440372439402,0.8952590322761393,1.1411025318311323,1.2970722857365256,1.819256882240874,4.4055876339545526
1570179534959234.0,2.1084122136263006,1.1890037273600276,1.0028742870252634,0.8869378594356511,1.1283770465588585,1.3044251379377012,1.8088301914195848,4.4086348532647675
1570179534959234.0,2.1219913157564076,1.1848465354735551,1.0073952569982472,0.8792855379914559,1.1178327405671196,1.3118883271858237,1.8038995648809628,4.418502226038127
1570179534971200.0,2.1309229532348883,1.180167753276981,1.0131851017564768,0.8728342042223437,1.1107960241347632,1.317051838807731,1.8058415978491253,4.4351003605468495
1570179534971200.0,2.1421144656834206,1.174006889561521,1.0219755150473848,0.8666500299894826,1.1043142738182183,1.3240895970650468,1.8146657573667246,4.458862559043183
1570179534980178.0,2.1559177081938463,1.167555572317956,1.0326230218546626,0.8606247028579884,1.0962404469307603,1.3324768726562763,1.8301984052364308,4.491317043489295
1570179534980178.0,2.179546709837097,1.164547354235611,1.0399775115603227,0.8548153890523628,1.087425988705736,1.3434269109046553,1.8504535181298323,4.535134911561395
1570179534995137.0,2.203873984429557,1.164790160115194,1.0427027979712282,0.8480625087036402,1.0815413863008232,1.3546459522026952,1.8741070293452788,4.587092316839207
1570179534995137.0,2.2332813603394364,1.1687148190931047,1.043876080562979,0.8417358601342391,1.0779642890286325,1.3706161057150745,1.9035569881462027,4.6485320619421735
1570179535009099.0,2.2628672867673747,1.1741992655541762,1.0466388765856673,0.8384923582844289,1.0749509170768472,1.3893999953867535,1.9377499979940715,4.722360728003297
1570179535009099.0,2.297060000201034,1.1815652660533127,1.0516368801647067,0.8378461929488786,1.0729188120114046,1.4110138289201906,1.9740870404057569,4.79976675473329
1570179535018076.0,2.3301273954606074,1.1912032661000427,1.058997313861017,0.8388953250729578,1.072510485134395,1.4325050779840913,2.0101962059929885,4.864391161707127
1570179535018076.0,2.371784626410397,1.204644915708442,1.068307705670704,0.8415971833019705,1.0723967484281467,1.4557225094529418,2.0493567449402397,4.9260799922020055
1570179535019070.0,2.412736399973455,1.2196436680152287,1.0776769069915364,0.845153511437022,1.0729027647792582,1.4774474334239953,2.092439413370355,4.993496390768031
1570179535019070.0,2.455123729053006,1.2379839195001316,1.0851104543555747,0.8483275342451083,1.0728142060148707,1.4999735170852915,2.141198549235563,5.065975058593877
1570179535031117.0,2.494012173467808,1.2602622522147724,1.092129079293166,0.8509726307744536,1.0712613044688915,1.5193445372581798,2.194658600825488,5.141657789231413
1570179535031117.0,2.535538626903858,1.2876271116220703,1.0994006019149174,0.853943770856838,1.0677260309937258,1.536383513702275,2.2481794547320213,5.220009243040926
1570179535040516.0,2.573155508986936,1.3175912008781403,1.1071849320358387,0.8574947307036555,1.062241027630346,1.5514277663363663,2.2971874258144216,5.292475671023372
1570179535040516.0,2.6142637037276697,1.3484626499732204,1.115176404896547,0.860446426955578,1.05617801076375,1.5666176924532103,2.348900447776361,5.358913578406662
1570179535054977.0,2.6507841866006867,1.3768317079782406,1.123635838658254,0.8647187862507463,1.0521209733815517,1.5786669257831716,2.403745896922935,5.414379282316084
1570179535054977.0,2.6921802681289106,1.4052435683610047,1.1312034324636353,0.871580254357134,1.0491385939732691,1.5922514030223034,2.4586177150410964,5.465378772287933
1570179535056969.0,2.7338369546407897,1.4330344266841966,1.1375062165215142,0.8801569000063986,1.046391558096853,1.6070566355565212,2.510862980289472,5.519975889053048
1570179535056969.0,2.782487446093303,1.460231487986593,1.144342652414462,0.8914181536193357,1.0444752093099476,1.6234681524191055,2.5603253458592783,5.58230791565583
1570179535076989.0,2.8308225720117206,1.4846260552618313,1.151628656942033,0.9055701635627904,1.044788414216386,1.6374419715941066,2.6078606444349175,5.649430346040463
1570179535076989.0,2.8826836655613666,1.5102258069145755,1.156339883845966,0.9206055966746294,1.0472566466556439,1.6509781841589821,2.6582087548587197,5.727105430163103
1570179535084934.0,2.9259438772029216,1.5375968448466852,1.1613288453399908,0.9364837972182182,1.0522386189514397,1.662224243276507,2.7080946615680492,5.8122354564404395
1570179535084934.0,2.9658105957027425,1.566102198558311,1.1678824490733584,0.953261565624485,1.0587097948211082,1.6728687985845974,2.75179239105192,5.896418543281345
1570179535090951.0,2.998000555744773,1.5944930692214268,1.1752805111039013,0.9690020654053222,1.0648907642480427,1.6830293737376836,2.786523154052978,5.967024155118076
1570179535090951.0,3.0313156131136902,1.6258816361267612,1.1832253243896387,0.9836807443267921,1.0694201576734423,1.6958149507143336,2.8210574543145097,6.0196635368868
1570179535099925.0,3.0645390952292284,1.6576122337943842,1.1921761671816955,0.9973872508520107,1.0733791077133994,1.7046632541912339,2.841613727642303,6.052369491068264
1570179535099925.0,3.106479881333669,1.6900401909142129,1.2027864016003762,1.0091434587998815,1.076790434488927,1.7106271178324144,2.837087967377676,6.071713184990954
1570179535114816.0,3.146859371157323,1.7205350681785383,1.2160679160235874,1.0199518463391957,1.0769422754332882,1.7156389586534506,2.828566103369303,6.09039379285199
1570179535114816.0,3.1930943861815577,1.7493483771266574,1.2291930956237103,1.0308804346197726,1.0712252046070558,1.7236965612861201,2.8310689951777563,6.118998917152963
1570179535116809.0,3.236100238689203,1.7755925226695086,1.2400952008604782,1.041075065820208,1.0622062393147385,1.7314632538033403,2.841170053292759,6.138584218755574
1570179535116809.0,3.282466048953299,1.8028712384105046,1.2500790058934275,1.0496076730587205,1.0547111149354014,1.739868906852427,2.8592484057297622,6.13534915599417
1570179535137755.0,3.330003968266148,1.8312134772670994,1.2623403787414842,1.0546598179539068,1.050444559473975,1.7494108645256157,2.8829443272173103,6.128286909753365
1570179535137755.0,3.3845166465829295,1.8612644054801517,1.2748008668878363,1.052113881176897,1.0465246356906435,1.7642737876204913,2.9118619235941923,6.137025863195353
1570179535139749.0,3.4350721122474663,1.8911698987255385,1.2854573229119834,1.0433333099074462,1.0399182891730732,1.7819260663765908,2.9419751766579227,6.158628721453226
1570179535139749.0,3.490192875457886,1.9238951709700975,1.2965767364455503,1.0349947250369411,1.0310856266948811,1.8036420304892948,2.972967640841764,6.187871900888716
1570179535151718.0,3.5445365615724604,1.9577798099775447,1.311082114018463,1.0304285532860844,1.0231612041863725,1.8265278750343585,3.007202331501323,6.222941806790478
1570179535151718.0,3.603882920481655,1.9923330958537566,1.326901907793963,1.0299010233222028,1.0171913051758217,1.8509324483373204,3.046107342696438,6.261384025268788
1570179535160690.0,3.662321202907204,2.0272410392891373,1.342596255224018,1.0316431801223755,1.0144168034929917,1.8732231244097215,3.0876862631843682,6.28592385158175
1570179535160690.0,3.731086092726634,2.0672756663788863,1.3571316586470175,1.0326007645781818,1.0149131563037195,1.895591684002214,3.1319148439992603,6.294783098304247
1570179535175655.0,3.802192535278916,2.1108141528699704,1.372310963516662,1.0326493538483594,1.016767731341536,1.9165158398214786,3.179227900392803,6.305350494107844
1570179535175655.0,3.880601667406605,2.157171538421223,1.3884555590910128,1.0337476952353635,1.0198898786660562,1.9386249673222915,3.23236319472269,6.327413379212876
1570179535176763.0,3.9559179680026015,2.2035199093100593,1.4059247657511662,1.0380078254088283,1.0253148214457541,1.9608645832951281,3.277730272075903,6.347999064562913
1570179535176763.0,4.035816397069827,2.2523325697791226,1.423965883680843,1.045531509590779,1.0320376447178772,1.9846790111980503,3.306597575594994,6.355689383557413
1570179535197979.0,4.117592330578244,2.3020322906011392,1.4409329299208147,1.0553551783380017,1.0400311325217095,2.007774824726787,3.3323510389680435,6.365432304823337
1570179535197979.0,4.2097581947892255,2.3551366700760377,1.4549934309095007,1.0674802074028593,1.0492907018399737,2.03370361402963,3.3659074703605407,6.394154688446534
1570179535198976.0,4.304066458945326,2.4114091034310663,1.4681287778387746,1.0809170237402246,1.0587540220961822,2.06073172262479,3.4005280677497995,6.438767920484934
1570179535198976.0,4.4085462115805,2.4709436313688253,1.4807071053581367,1.0946851501132904,1.0684552499477622,2.0907185955639185,3.4327364823439606,6.4949451286553455
1570179535211024.0,4.514797472474317,2.530708004983963,1.4922111942267353,1.1078177797079607,1.0763027698273153,2.1223021168126976,3.467282830799277,6.563249265179853
1570179535211024.0,4.62765021748062,2.5937341066234327,1.5027243778281876,1.1193828739106995,1.0815506986065595,2.1566358275298634,3.5056869273420666,6.649022489289488
1570179535220918.0,4.740034406307325,2.659254376162952,1.5154386744063155,1.129428082234167,1.0851541658477413,2.187491538908767,3.5316000322168493,6.738584082055573
1570179535220918.0,4.856202317811571,2.726058906585642,1.5270065674766993,1.1370178786437783,1.0862742239269414,2.2146522142343117,3.527090608109588,6.808054203840235
1570179535234880.0,4.96060688763901,2.793382351553079,1.5339827376308595,1.1422138235927852,1.0850689683857373,2.23968540161295,3.497526372921145,6.849740295432932
1570179535234880.0,5.061508841716923,2.866063482627019,1.540312632856225,1.1480466170402348,1.0848573616598454,2.2685323609169465,3.4640927964021495,6.865513243513914
1570179535237129.0,5.162837946471484,2.9416775245140223,1.5519177846613421,1.1575019345079494,1.0874596765015725,2.2994260470370294,3.436254100418778,6.856189357975622
1570179535237129.0,5.279208496940894,3.0210995309680335,1.5681487138339898,1.1705548152751928,1.0930694928072477,2.3331352838334984,3.415531026841601,6.833840415873984
1570179535257858.0,5.40217368594122,3.1036300283333573,1.5869407202825054,1.1851966401770344,1.102589581730624,2.365416514426452,3.3995013603431103,6.815772194571641
1570179535257858.0,5.534542691694452,3.1893302273047834,1.6048715857676936,1.199503054967687,1.1170682601821167,2.398467499540629,3.386254178543909,6.808502888838363
1570179535258818.0,5.667436396008912,3.274607907746581,1.6214062865276209,1.2125785936960474,1.1360337680547707,2.4340320092425602,3.3795536035042826,6.8133656111403536
1570179535258818.0,5.809943382006845,3.3632601544582,1.6396864262200865,1.2255216451485131,1.15936229660039,2.4736804647867587,3.37935197357838,6.830130447713825
1570179535272094.0,5.955076443532098,3.4556324765118105,1.6625142707926424,1.240324822353948,1.1843044887922414,2.5132379359924943,3.3835819924709316,6.8613328828718645
1570179535272094.0,6.105906304071814,3.5507354017963015,1.688553231462902,1.2569468292965522,1.2084894990440695,2.5553399360580595,3.396299716821532,6.905082563874711
1570179535279760.0,6.251366561621536,3.6425204268001212,1.7147101549952766,1.270503458939543,1.233105311344633,2.5979979285004338,3.417250437830719,6.9532943105022165
1570179535279760.0,6.401440287159936,3.7334096759534714,1.7363390660979274,1.2782764232684443,1.2590132645376746,2.6400240725865944,3.439669372063498,7.005659671926488
1570179535294720.0,6.556050049511152,3.8282721130805184,1.7553090460329799,1.2842805053925506,1.2829681967030437,2.6765616549400963,3.458807661037567,7.072270526824001
1570179535294720.0,6.718992121048752,3.9308407286992937,1.7743120088717397,1.2914406013042148,1.3060903329233655,2.7127323906073384,3.4739997680173724,7.155072985724744
1570179535297042.0,6.873440980336646,4.036781560806854,1.7945299597411506,1.2977857195539833,1.329879902028436,2.7530960602944954,3.480527883798936,7.208776838411476
1570179535297042.0,7.018374689144632,4.143853427299624,1.81537710612632,1.300402369882879,1.3535446190891316,2.799741327156049,3.4725896768539912,7.179288966272307
1570179535317662.0,7.152395013543206,4.251336371963051,1.8362981513565717,1.2992860317741222,1.3769586028636094,2.846258232248322,3.4548904774775355,7.093868437124963
1570179535317662.0,7.295003335850147,4.3631591591670436,1.8564600435715324,1.2963668354645603,1.4002418123816267,2.8935377942202853,3.432942032181953,7.002304087142475
1570179535319654.0,7.441780977626696,4.477577154638619,1.8796550063540185,1.2946007962946189,1.4210376520428636,2.942578549245315,3.410483462374997,6.922878243638257
1570179535319654.0,7.58809664669715,4.592603271996956,1.9065586247074198,1.2960080469323214,1.4372039566881354,2.9948864747124944,3.3951856734230508,6.85217058638882
1570179535331719.0,7.732982947288937,4.706173945492887,1.9344839329374004,1.3006393735477544,1.4486031644906545,3.0479687847264088,3.388420169000329,6.7892434861440965
1570179535331719.0,7.900353329729389,4.8248653291219545,1.9637512646416388,1.3095394704081875,1.4601881356225421,3.1045343510444705,3.38519913217081,6.73265526218091
1570179535340598.0,8.086527463776285,4.949463412229033,1.9975199760208244,1.3236945349914413,1.4751733324725012,3.162912465111578,3.3826556404866954,6.676854041375535
1570179535340598.0,8.290910268809267,5.08006679001976,2.034554146347726,1.3420568233959855,1.4942891851001734,3.223031368947534,3.3805897547237493,6.6175825296149435
1570179535354560.0,8.504693519221812,5.213988581202528,2.0709634562111514,1.3615973873235176,1.516808552952545,3.2772212832662433,3.3782098375770864,6.572964663583297
1570179535354560.0,8.72675744031318,5.346250273746382,2.1014884973896,1.3784824589889844,1.5416237877987733,3.32228145183085,3.3732745992708772,6.539292819065599
1570179535361572.0,8.942822625426675,5.474779530523379,2.1292648310517217,1.392915562818849,1.565485239257922,3.3594171996842053,3.3678155856821843,6.4911214333383604
1570179535361572.0,9.143931543134956,5.604622871775605,2.1607385940403128,1.4079403959330925,1.5885645867579443,3.393355277673431,3.3626504083189537,6.419915195584392
1570179535377503.0,9.307942039437906,5.730869695420614,2.196271743944847,1.4235449712612658,1.6134463433167379,3.4208811918584647,3.3579407703085797,6.343564501660195
1570179535377503.0,9.430769244235854,5.8450795879257065,2.2335518492196087,1.4388318975651777,1.637654989687713,3.4338719305947003,3.3534811743049096,6.256700044459298
1570179535379578.0,9.530616056236461,5.948830783106704,2.2728890929897876,1.4548453486828459,1.6568861579071776,3.429233986611987,3.349382329182551,6.156396091423937
1570179535379578.0,9.649754312748884,6.058152847872137,2.310939790868925,1.470631903794786,1.6745619825157727,3.4176326842700395,3.348374813500589,6.055645136346624
1570179535400475.0,9.78926024717262,6.163770107093862,2.3436851963496967,1.4843280600833948,1.6932268678487097,3.3997547277326623,3.352837874839836,5.971018394316375
1570179535400475.0,9.935955714827958,6.238552021315035,2.367793943653099,1.497999137592488,1.713907322148212,3.378949025026163,3.357844824425048,5.899867106194689
1570179535401486.0,10.086854397854278,6.280315082327335,2.380405343463511,1.5116585702532677,1.7351099434671833,3.3608675057673345,3.3584217983226905,5.8351306653121835
1570179535401486.0,10.262795301249046,6.31305087571703,2.3811053707799874,1.5234091106068512,1.7567592624052288,3.350312051488461,3.35808335733999,5.771773579556245
1570179535415443.0,10.464315056349296,6.353525328064267,2.3760880887855094,1.5333074350672025,1.7817369152012608,3.3503009529833654,3.361053587849948,5.718855055966792
1570179535415443.0,10.684740341440571,6.40441860940742,2.374560545501687,1.541386764019,1.8108082516035482,3.357836256451057,3.3682452424595843,5.676008725404393
1570179535416913.0,10.910737006055637,6.464198918425235,2.3809096986246834,1.5496435596177975,1.8426478531677282,3.3655018845967413,3.380948969071206,5.6476266011561735
1570179535416913.0,11.134156361900109,6.536204187087368,2.393757418690743,1.5620683200361971,1.877694542740845,3.3758783252580766,3.3981578479938905,5.631882915909555
1570179535437340.0,11.345488359205707,6.613113760508828,2.4092079785619442,1.5796921329924627,1.9157733924424223,3.391109335550391,3.4181397164327634,5.624623519456808
1570179535437340.0,11.563403178343464,6.690385799464467,2.4234631716683204,1.600589313444152,1.9584086961129152,3.413807286281479,3.439767635359017,5.62562224695146
1570179535439335.0,11.80280333988224,6.776027618641407,2.438674207661226,1.6238455268609957,2.007014758982922,3.4447788500768652,3.466283917115184,5.639408486403008
1570179535439335.0,12.028101870280008,6.856315233130945,2.4568377185614563,1.6495526641828586,2.0613133654249878,3.4871447302710674,3.4939387631790404,5.652232950737454
1570179535460281.0,12.178102852219254,6.8977873904254245,2.472219432927624,1.6778095045401498,2.118959280178572,3.5395532485739176,3.5158937324262385,5.6558585344181225
1570179535460281.0,12.229238582712263,6.885921587511131,2.48291142366459,1.7087382444886965,2.179615729987528,3.6000759990791504,3.537741749978112,5.658875027826978
1570179535461278.0,12.212855191735986,6.840288025579757,2.493745977705772,1.7415035455383354,2.2432944570351623,3.664860674393227,3.562929875707072,5.668773947250482
1570179535461278.0,12.183906957872551,6.792740137762561,2.5047870527349074,1.7743265580069996,2.311303398284295,3.733586001248698,3.590412210424487,5.6700694969197025
1570179535475242.0,12.154816187236127,6.754998516317646,2.517809146623374,1.8073870435383643,2.382088238885058,3.806963342397256,3.6237362307185443,5.653954111247785
1570179535475242.0,12.135156386224152,6.730918547175366,2.5369837787027336,1.8438294140099236,2.451204074287153,3.8874072328200966,3.6564984273904235,5.6377133550791365
1570179535476238.0,12.150264075329453,6.722822183386666,2.5615248563839024,1.8840205579817706,2.5109636369779778,3.971328348689423,3.679978278607395,5.637950269104766
1570179535476238.0,12.200032157216931,6.724400597187165,2.591797948328125,1.9254453592820386,2.5610191980719286,4.054518856476074,3.6993015602984016,5.646817467407228
1570179535498176.0,12.25243459536591,6.730340300118637,2.6282533325512856,1.9677116158559504,2.609559217488571,4.13686291631453,3.7233693926171036,5.661046642443293
1570179535498176.0,12.267865750314057,6.739250881234329,2.6689888833755453,2.0087635597539246,2.652630256734389,4.2020429391111564,3.7466992095495493,5.681908189799077
1570179535499174.0,12.234184874983194,6.741187514118176,2.7082490587684536,2.0438763078080417,2.685399922515249,4.223541779034725,3.7496955523953988,5.706549570802554
1570179535499174.0,12.163621373569722,6.7200319689144425,2.735336804381284,2.064938869759621,2.7141886309501038,4.213525842038506,3.722039822165172,5.728169636475747
1570179535520118.0,12.089136929177018,6.683090302762964,2.7430933584363553,2.067880166589828,2.737106753985601,4.2006768174270634,3.6795463579159406,5.746222108237795
1570179535520118.0,12.005478546564213,6.647622302136057,2.7355685333912816,2.0578000855045957,2.7465818859497535,4.196091923506453,3.6382638510879883,5.7599481284303415
1570179535522114.0,11.895493473867326,6.619722443006335,2.71979119454001,2.0374509205983355,2.742932937179555,4.194466715555651,3.601982309801212,5.772718981582805
1570179535522114.0,11.772957332237109,6.5976566925877735,2.702528375964992,2.010641008836435,2.736616511896399,4.190130455688576,3.568176989077262,5.792078353465156
1570179535534080.0,11.64737194195374,6.574181273304739,2.686858408799135,1.985004804468357,2.7361669112186093,4.185024145771741,3.5393098605802917,5.818967327299717
1570179535534080.0,11.509912521809584,6.5405304762186,2.6729529833622907,1.9625615131757441,2.7435586124760025,4.17048011102565,3.517139189026936,5.852053689628403
1570179535541466.0,11.370795892189975,6.4979671084303146,2.6574869006565,1.9418781184677623,2.7602979909228136,4.14104318592015,3.5020201201279724,5.891020755762058
1570179535541466.0,11.243739741831863,6.450919092603722,2.6397710143218354,1.9214884300791792,2.785996903011601,4.1109333841144515,3.4915387052194444,5.929594689542341
1570179535558054.0,11.144880636275975,6.410740826227122,2.6228382245407964,1.902986178576281,2.818856313406634,4.090831263997994,3.48560368554856,5.973056151945061
1570179535558054.0,11.069949384891645,6.379875281037537,2.608226176825825,1.8880140686564395,2.8548885202701024,4.0829402445640905,3.481710301399077,6.02545579603155
1570179535559014.0,11.023877184190898,6.355689199744614,2.5923952063458637,1.8750835698974502,2.889473556322514,4.084892920325284,3.480658739700881,6.0806531471010725
1570179535559014.0,10.993166327628279,6.33688421531503,2.5755825297843553,1.8639075933845832,2.9161212986499963,4.085624212258878,3.4788980773610043,6.127021434360488
1570179535580021.0,10.964087617434348,6.32192054151805,2.5610175823811177,1.853951450030746,2.9302441583798493,4.079534805335573,3.4654904643328677,6.1434795151452635
1570179535580021.0,10.927955773552947,6.311687089157247,2.5508556040366206,1.8433880755561196,2.933527331062602,4.06328989299111,3.440416145170158,6.123408162960524
1570179535581956.0,10.883055160511509,6.306910555937292,2.5412880172625387,1.834592490104469,2.932572998499169,4.0330179398645605,3.4159176212770013,6.089623025491219
1570179535581956.0,10.824368517037794,6.306343069184155,2.529991092947784,1.8304118989961093,2.929209537758319,3.993881116791408,3.3933531450207344,6.062279703071361
1570179535594917.0,10.778152849902371,6.313487312417093,2.5168729867260895,1.8303348779027002,2.920240843148758,3.9526221947666556,3.3723100166986977,6.052559131898868
1570179535594917.0,10.7629511742894,6.3380074799243555,2.506564044307516,1.8314431988026096,2.9029508501263717,3.9069802668008067,3.3556988451131295,6.056757979327916
1570179535600937.0,10.772147816030836,6.386987467094385,2.5004868527581166,1.8333880231637876,2.877120097260092,3.8548341207989316,3.3485707789018835,6.066448821006583
1570179535600937.0,10.747983624656055,6.427599876015622,2.496219942670329,1.8368513396048185,2.8437075334587187,3.795457357457504,3.3456862650928225,6.085042847927002
1570179535617903.0,10.661842527722012,6.422904142043674,2.486504103502683,1.8388554425827701,2.8085890030540375,3.733785679508463,3.3401465142391844,6.117183681891499
1570179535617903.0,10.53744248118978,6.379579349762764,2.469477977581942,1.83513299067929,2.773004544744171,3.669741346944878,3.3316422242666306,6.162796656872634
1570179535618902.0,10.419257333717805,6.329319443498165,2.44930700193435,1.825089532870928,2.7339433680280374,3.5997129157987695,3.32558901244164,6.21946089323839
1570179535618902.0,10.306348769133658,6.277582112218609,2.427106520812579,1.8090619043573781,2.68711238645505,3.5205811162971514,3.3256703028906567,6.2821925387808495
1570179535639834.0,10.188236610888895,6.21055679162898,2.3995252153838518,1.789983704518323,2.634726937855258,3.4368644158162223,3.3350176456172207,6.344676651819364
1570179535639834.0,10.055086917074345,6.123843351720446,2.3686695162048297,1.7703279569748909,2.580636054692641,3.3516495961274035,3.3511457804101976,6.397972299406728
1570179535646356.0,9.924322424770244,6.030684214886474,2.3357429103363745,1.7501637279441022,2.527396584211491,3.2693786349316647,3.371729211472226,6.4485661109819175
1570179535646356.0,9.800245632683163,5.9384914128017146,2.305801727284781,1.731293760316731,2.474623069311728,3.1898225923148917,3.379621220179413,6.489160157246053
1570179535654757.0,9.693387288428509,5.850953858587938,2.2807851759362867,1.714956680958653,2.423109862368743,3.1129931059786897,3.358942573471691,6.497331460516398
1570179535654757.0,9.593208997793848,5.765779642880164,2.2596156127682705,1.7007061771034886,2.3719109642620397,3.0388182427899375,3.3218353512961105,6.485673189105644
1570179535661743.0,9.488030545906826,5.681660287108147,2.2374593818844253,1.687403554610984,2.3221953697847466,2.9716538582467416,3.2860501708446326,6.47770530265484
1570179535661743.0,9.362223878727047,5.600021371572524,2.2119235710280107,1.67203734283131,2.274747246083217,2.9091405752654387,3.2532651936726804,6.464571203639342
1570179535677699.0,9.228460367886957,5.525217502971524,2.183221551745152,1.6551600000606848,2.2301467514089133,2.849064449178925,3.226624308528856,6.441988155855164
1570179535677699.0,9.08434074290361,5.451857639582597,2.153342760792838,1.638839472182714,2.1873930870977722,2.7890718479707375,3.201610641544367,6.425458170078666
1570179535679693.0,8.939593481254265,5.379300386921847,2.1210544546538066,1.6239450372581545,2.148087572128337,2.730329400166013,3.174441773739088,6.423172560376615
1570179535679693.0,8.795345337925133,5.308517395402909,2.091018154376314,1.6102675899444516,2.1104211460911553,2.674185440993241,3.143520385262518,6.4186251405216845
1570179535700638.0,8.662247675441277,5.240436043811125,2.0646238942395803,1.5951931545923574,2.0727418277372203,2.6238030812066073,3.107652359047051,6.396016645696109
1570179535700638.0,8.527593612420976,5.168738369460866,2.0384414844412913,1.5763255287290021,2.0321034730333563,2.5747217919330363,3.0702533099961045,6.3568056522800305
1570179535701675.0,8.396971020510456,5.0938520507834575,2.00977021202213,1.5567981326130396,1.9903046600774779,2.525613502921455,3.0383111574854955,6.3072613458246884
1570179535701675.0,8.26540444904664,5.01529654602993,1.9818467089836225,1.5382616619220302,1.9487311340882514,2.4763219044138416,3.0109027810371995,6.249375940397476
1570179535714600.0,8.13068576515383,4.931755724029658,1.9520895006217622,1.5181338894830634,1.9096419450465938,2.428690707332925,2.9885947852224586,6.194523246195154
1570179535714600.0,7.985858290542114,4.842517439569544,1.9203043226338243,1.4943644015895656,1.8739581302400443,2.379136375572852,2.967732994573989,6.151171237496934
1570179535721579.0,7.844263197996379,4.7528995498325575,1.8875999683193727,1.4684544125675394,1.840898347222037,2.327837947675396,2.9476915623530857,6.1222267114823845
1570179535721579.0,7.699189079727029,4.664179324373981,1.8577777908017226,1.4436735635754774,1.807031915276157,2.276739113116973,2.92727646406718,6.103084229503007
1570179535737540.0,7.560104692601842,4.578742893085205,1.8311966924627952,1.4210382685874097,1.77381323926158,2.2291150215668436,2.907781569531277,6.097518294681399
1570179535737540.0,7.421862944607699,4.494126255734659,1.8066405310480116,1.398070865159559,1.7416020116507152,2.1838726364329197,2.891489601581713,6.108392275445465
1570179535739565.0,7.292788953115249,4.411758906424661,1.781243786462447,1.3755531684728306,1.7123861982418676,2.143550742979751,2.8789081623609176,6.1288473276380655
1570179535739565.0,7.1684256707348295,4.3314283280177674,1.7547427866634469,1.3561721289146016,1.6869008259482074,2.1074290073935673,2.867987022555401,6.150976183522758
1570179535760475.0,7.053154999294047,4.255450649997559,1.7265914029291702,1.340502966227135,1.6650780694895677,2.0779693192865905,2.8603328818197027,6.179954150723749
1570179535760475.0,6.938358385738401,4.183194631576748,1.6999716333104198,1.3279733802586973,1.6450304299675818,2.055257643446135,2.8570864108993304,6.224572543364894
1570179535761475.0,6.832839615121999,4.116664818344765,1.6747130172451288,1.3176591159096864,1.6266633695071477,2.039174343677448,2.8624891589642916,6.28570271586687
1570179535761475.0,6.729167151637315,4.054008449839124,1.652076497565338,1.3055442074019699,1.6074145213600113,2.0274270226261297,2.8777470936600875,6.3602654147551805
1570179535782419.0,6.635441170256868,3.996782586772848,1.631276528153177,1.291138636495961,1.587689853518561,2.0223189481301165,2.9041204501178055,6.448029845771281
1570179535782419.0,6.546120267349815,3.9422052634906617,1.6141719178628067,1.277993881386668,1.5675492035496439,2.021589288538143,2.927733830693229,6.52994100290254
1570179535784411.0,6.464930963290111,3.8898619924869378,1.6023132346719096,1.2686678253435717,1.547617495584856,2.0184978416562447,2.930616330852108,6.570243795117813
1570179535784411.0,6.3832097402459445,3.8367911665798844,1.596532182217355,1.2631773006799702,1.5273177975658994,2.009820236876187,2.919879251810353,6.567927985202607
1570179535797377.0,6.30601752627233,3.7835694002026337,1.5909907465774686,1.2609378276343883,1.5094355973127302,2.0014319639111027,2.9135363456466163,6.5558411544607775
1570179535797377.0,6.219244006858559,3.7293305308918896,1.5836233165328353,1.2620375460330857,1.4949407044640928,1.99616120379169,2.9139414122778424,6.547625420864897
1570179535799374.0,6.130680099172808,3.677350050181679,1.5750987096229796,1.2662369643623763,1.4834299580554005,1.9968102858895647,2.91939460907958,6.547012296458132
1570179535799374.0,6.042033023174737,3.626630606560155,1.5688848740632102,1.2722311669571391,1.4734235301968657,2.003180218027962,2.9276313789651645,6.560708744144875
1570179535820315.0,5.966483311100521,3.5779518913816237,1.5656669360263313,1.28139416546944,1.4671531962930682,2.0179850859184767,2.936304144139944,6.591295909193266
1570179535820315.0,5.894714585934816,3.5289878193024125,1.5616450943922295,1.292610215232107,1.4633822416957492,2.038245441594626,2.9434912587407323,6.62334944252707
1570179535821313.0,5.826579886975312,3.478556270859668,1.5504827875663767,1.299223439453329,1.4599409971928503,2.056995162516816,2.949617643318838,6.636383846174711
1570179535821313.0,5.75277368654543,3.424040034447472,1.5370560751713354,1.2999939803119567,1.4564456044428034,2.074180559265057,2.953675597465717,6.629160677479945
1570179535834506.0,5.681540233321334,3.3697037753247057,1.5251779917236064,1.2979683657203247,1.4563701752971265,2.0982172281467575,2.9608342935548486,6.621136044522138
1570179535834506.0,5.607361172182442,3.315473167482632,1.5143248920175052,1.2918321077511554,1.459728135218707,2.1295415920827354,2.97530921812815,6.631159794917024
1570179535841258.0,5.539647944160378,3.2633956173225966,1.50195071822839,1.2821939019009612,1.4667012637182557,2.1587141409599067,2.997435149750879,6.660726075478263
1570179535841258.0,5.475298143133411,3.2124605858066113,1.4881930457422359,1.2717825456748744,1.4728056002507304,2.174591186238312,3.0263914059433423,6.694565661039252
1570179535857248.0,5.420189634990974,3.1649402264729085,1.4720505499826346,1.2624767377907893,1.4727570648111008,2.1808964448878316,3.0580330812061773,6.70915733125318
1570179535857248.0,5.361409863002879,3.1196604937730736,1.4559144780718758,1.2547202319667217,1.4663265968857513,2.181437564582829,3.0762254010465946,6.688770051200793
1570179535859215.0,5.304946832351538,3.0773221469992724,1.4407765319917663,1.2491661135443564,1.4568896956519342,2.1735704890813055,3.0727421246765068,6.649793215517885
1570179535859215.0,5.2422082401779635,3.0360453208341505,1.4274871403746083,1.2453105141224905,1.444482222974944,2.158908595652041,3.0592863480274444,6.6047237600905495
1570179535880157.0,5.18027687614481,2.997596289801483,1.414999106984427,1.24207253528182,1.4314450123809725,2.1454876386708466,3.0509913857102693,6.564374160562175
1570179535880157.0,5.1164343062976725,2.960839092218672,1.405299033071863,1.2398723095280713,1.4188675255016558,2.1293756109384856,3.0489961997189967,6.530898123330315
1570179535882186.0,5.0564661303938445,2.925048067015245,1.3956481742537017,1.2405364825354581,1.4080827799675726,2.1075161044748687,3.050324551944431,6.49410181763778
1570179535882186.0,4.991331439770372,2.88426727247176,1.3836019728609346,1.243193380469447,1.39912639012232,2.081995528902909,3.0534755624615406,6.460510504210306
1570179535894117.0,4.929567304251399,2.8403424476702854,1.3669792204369609,1.2447595963964295,1.392350413950071,2.0538599363127377,3.0571213910515285,6.447730220940517
1570179535894117.0,4.866692485391523,2.795493599729668,1.3478896650796428,1.2437606947311302,1.3869256722232446,2.0229757955374055,3.0592704631177328,6.458413879173943
1570179535902245.0,4.813687968712125,2.7534819342114316,1.3284469570465676,1.2416513447306952,1.3845861843279168,1.9936006441973615,3.063142962276049,6.4874123511996915
1570179535902245.0,4.764382384887734,2.7137305511748067,1.3117594839507944,1.2397387430495936,1.3826899697014263,1.9656504880462131,3.0704541432311694,6.521245176841539
1570179535918054.0,4.719678665677441,2.677459384808771,1.2981878791607913,1.2376771330659282,1.3793396961471287,1.9396051218635153,3.082922434671476,6.5540509398990165
1570179535918054.0,4.6724085159024,2.643478144192477,1.2892040182293785,1.2339429734546867,1.37513672311168,1.9132650606571748,3.102306758860021,6.589868511537451
1570179535919245.0,4.632943732590601,2.6138338106092505,1.2819162642968336,1.2288114345648846,1.3709717262711094,1.8880728632829646,3.1318968422302564,6.6328587931690635
1570179535919245.0,4.593577321195424,2.5856357422624887,1.2747196388995137,1.2241169904473779,1.3633213432622726,1.8642829204390736,3.1684793821174035,6.675067019978553
1570179535940075.0,4.559042388025431,2.5585994020072094,1.2681943862803748,1.221020273170547,1.3529856769085278,1.8431610650021555,3.2053162311359067,6.708079191099631
1570179535940075.0,4.521726859097145,2.531539829509979,1.2633003534732308,1.2177175719071545,1.3405430817587953,1.8239548091605928,3.2314293582382203,6.728965023002588
1570179535941993.0,4.486856029348752,2.5055166985222406,1.2573653609365492,1.2137520414336622,1.3258174081865537,1.807791338349082,3.2354715941566727,6.73670950565371
1570179535941993.0,4.44761576590117,2.479915636660026,1.2525788532015656,1.2090437765358344,1.3101511460362505,1.7940893214846643,3.2253057418934112,6.743727072888089
1570179535962434.0,4.415898202705794,2.458922490924729,1.2493756075830482,1.203239900850696,1.2969470195108654,1.7832850826474087,3.2184662210453405,6.7614699094685475
1570179535962434.0,4.387941883855309,2.439783054036316,1.2472020122299812,1.1972491310153093,1.2846644390071595,1.7725817331800484,3.217951128566161,6.7868907408084835
1570179535962933.0,4.364259809609905,2.4224304229831386,1.2435504556670052,1.190331213527153,1.273678848107832,1.7610767964154423,3.224038708501642,6.819243808279414
1570179535962933.0,4.3356483476390135,2.4057628150897106,1.239666172821591,1.1824348392550976,1.2635589233506153,1.7490546847334885,3.23561642084577,6.848277163534126
1570179535976974.0,4.31230437937842,2.389841985802628,1.2345841890249005,1.1760485899292337,1.2514697352019366,1.739976315962406,3.254658763750939,6.869017550310172
1570179535976974.0,4.288112176560758,2.3723546317511843,1.226127833368143,1.1709404650943727,1.235746859646094,1.7320641712800027,3.28005474778579,6.889977821231931
1570179535977893.0,4.267931511940613,2.3558415678626115,1.213312349849612,1.1661291046814573,1.2207854094933637,1.7228802653430295,3.303096504871625,6.92338428930616
1570179535977893.0,4.245452507327163,2.341396167434238,1.1994375528338066,1.1611785416964333,1.2082247880012993,1.7103531724445127,3.3178149236575836,6.968670070188391
1570179535999834.0,4.228370306534964,2.3314492547564902,1.1854636494215756,1.1568745086490884,1.1969916823433648,1.6975923465964364,3.329491367030569,7.020409766484005
1570179535999834.0,4.210120758474459,2.322737728088131,1.1724837635440752,1.1546987451207378,1.1842460316237327,1.6864341197682953,3.346544678182188,7.071840439600472
1570179535999834.0,4.194211411981013,2.3134729777510734,1.1610351570887925,1.1535265415097777,1.1711609773794858,1.6776679623743258,3.3640381548542675,7.103761903866943
1570179535999834.0,4.167383782311406,2.2991173730491874,1.1522463520657007,1.1514288551364364,1.1560732872549182,1.667980361836646,3.3629421810704403,7.099834153559533
1570179536029755.0,4.134860357309176,2.282788104649963,1.142982626387139,1.1501256403244589,1.138829110728805,1.6545235395849018,3.348183033032191,7.0845341915746385
1570179536029755.0,4.096771341299891,2.2675741028690917,1.134705981951555,1.1501844446815472,1.1212645666441352,1.6349292862069622,3.3324119764461164,7.082784261613544
1570179536030752.0,4.064213048711824,2.2558764644815805,1.129567079622381,1.1507779241887723,1.1062474192141514,1.6127609504588043,3.3148947212961213,7.093755370019739
1570179536030752.0,4.03375907882909,2.24557350133431,1.1289697792810507,1.1515117475661232,1.0933784813223955,1.590714834083644,3.2942493398658557,7.109773325225185
1570179536036870.0,4.011320598904418,2.2360083789991902,1.1300954176801632,1.1533957577634575,1.0822374013879967,1.569854060147392,3.271040847923111,7.131083978844194
1570179536036870.0,3.984552477235218,2.2235747037162024,1.1308897995875575,1.1568730840556862,1.0727754122398507,1.5514600489881138,3.2394159881724782,7.155885294142929
1570179536037908.0,3.958778694388928,2.209541637906032,1.1298307489331356,1.1611356271378312,1.0673762166733776,1.5381936643168737,3.201298803484757,7.185873694665345
1570179536037908.0,3.9313584364264935,2.193999715665776,1.1267815315215557,1.1661068101329726,1.066029730944146,1.5279329773945634,3.158649923006571,7.216038340544111
1570179536059677.0,3.9076385446748776,2.1803511411421654,1.1218881364054958,1.1709819477475463,1.0671780915254017,1.5210540667596324,3.117915371713897,7.237051227151346
1570179536059677.0,3.880960532471233,2.168365874644383,1.1190380006746232,1.175203981262899,1.0674438989321553,1.518366581892024,3.0819296925594823,7.24134180782966
1570179536060672.0,3.8583614431306854,2.158154202309692,1.119117108950883,1.1798095074221595,1.0662552955451292,1.5187933206216053,3.0481989696285794,7.235796785684489
1570179536060672.0,3.8359543920452497,2.146867102706876,1.1213515331896882,1.1849398908659043,1.0630633425594282,1.5204243711349759,3.0166841712257924,7.224060529764159
1570179536081650.0,3.822787452289764,2.1367299108659297,1.1246979573916185,1.190641430100076,1.060184443264551,1.525649736552969,2.9933328639721974,7.209915895474143
1570179536081650.0,3.812913985702796,2.1294600437849676,1.131435659828201,1.1980310479905019,1.0581557802380968,1.5344939568211238,2.9768440493120836,7.2055116549411515
1570179536082615.0,3.810304348738958,2.1265703743576974,1.1395816497681934,1.207139164474786,1.0558188506672341,1.545475005757603,2.957872631483217,7.19405867472764
1570179536082615.0,3.796152126787948,2.1214827939297427,1.144259530939829,1.2151501727336305,1.0515438318211259,1.5560708879945233,2.9285569248724466,7.135823119449474
1570179536097598.0,3.771549750179036,2.11362032982538,1.1423032278542657,1.2196366048605707,1.0476572793298702,1.5662951158410532,2.898524777098399,7.0523499776286664
1570179536097598.0,3.7395331017006663,2.1020622544616407,1.136720175943155,1.219173754569327,1.04377008223774,1.5768492663041596,2.8730229870587514,6.978580435601293
1570179536097861.0,3.7127856254255964,2.0870884233164206,1.1298531215719418,1.2169735066873595,1.0377403825215203,1.5880395784374965,2.849968838116465,6.911865511739765
1570179536097861.0,3.6862464082973427,2.0690478728196866,1.124862742595304,1.21496085892944,1.0294748847887272,1.599652112143957,2.826927507905102,6.835678521125334
1570179536119516.0,3.661222290191506,2.051610765360126,1.122309211610978,1.2112584098185664,1.0226715192714173,1.6128613091584447,2.805300912829614,6.756284852164269
1570179536119516.0,3.631347534244747,2.034061804438677,1.1222207015707222,1.2059833213647497,1.0184570742327914,1.630679398668496,2.787607823582072,6.679206291810141
1570179536120512.0,3.606928449157427,2.016604016873893,1.1242168628092806,1.2011412122822018,1.0152696824036942,1.651573716831954,2.772468178134759,6.603447330574191
1570179536120512.0,3.579096937868463,1.9977061795533475,1.1294223330472617,1.198235822759537,1.009591048000505,1.6693523891343807,2.75146216224276,6.523304621465591
1570179536142453.0,3.5518898355716897,1.9799083452891846,1.136357081786434,1.1971406303458298,1.0023115358805608,1.6859282216704234,2.7301470901314584,6.446502234419336
1570179536142453.0,3.522889665885977,1.9625786522874642,1.141385436332821,1.1959459708355824,0.9961004922181734,1.7053915085184073,2.715357137525272,6.377299071749893
1570179536142802.0,3.5018749160099434,1.947718690582461,1.142203379021215,1.1931875601718849,0.9925667054176809,1.727950854676774,2.70498114584542,6.3245146164088775
1570179536142802.0,3.4832452951178823,1.9341562175785547,1.141513652577924,1.1890473815044942,0.9904736194463221,1.7557334942681866,2.690845105262322,6.2907414255123255
1570179536157413.0,3.4680854154191247,1.9219637778473373,1.1412211668719212,1.185443402146557,0.9911941079756097,1.7907891373994023,2.6705893147641526,6.270542321217212
1570179536157413.0,3.4438463098740386,1.909422250264971,1.1420258968062424,1.1838319850490289,0.9954754201797232,1.8321348047930615,2.6491958065583763,6.255364336976486
1570179536157413.0,3.4165471616027197,1.900258413821739,1.1401420002923204,1.183873235264736,1.0004611960741758,1.8776566916424797,2.6316896784347166,6.248466374381242
1570179536157413.0,3.3853750773111426,1.8946747585678534,1.1366612096425661,1.1843103862725601,1.0021252169753705,1.9245261642826872,2.614628731858446,6.247241077316037
1570179536179354.0,3.3598928941452524,1.8909215033491615,1.133891054762934,1.186014370813093,1.0034783833886853,1.9719432567805122,2.6000116747050885,6.243135625272051
1570179536179354.0,3.3339055966513866,1.8873125594528601,1.1299587994508034,1.189361503685554,1.008083981937263,2.0241926416273484,2.591597131972232,6.231698565307798
1570179536180413.0,3.3104168914631495,1.885219196392312,1.122944709988282,1.1933653377208842,1.016656476812419,2.0830520970960604,2.5921705221752753,6.218863730971062
1570179536180413.0,3.2830048070293225,1.8815885814885884,1.116045058528436,1.1987814759714437,1.0264357431785993,2.1467081108137123,2.59805582406641,6.203945416499951
1570179536202293.0,3.260056911745201,1.8772344894196478,1.1095404548249783,1.206135095432758,1.035185206558267,2.214345613127992,2.604308089218033,6.192013185389141
1570179536202293.0,3.2366423234485207,1.8688503142194657,1.1028187772444844,1.2144319637692007,1.0431323115700306,2.286354541496044,2.611520152937635,6.184879347816472
1570179536202509.0,3.2177851142151557,1.8566352014914604,1.0958405734407615,1.223669954789556,1.0500810469591122,2.3497376828957957,2.6243648606146586,6.189902771572999
1570179536202509.0,3.1975541946608113,1.8411422639038466,1.0911374278702846,1.2338419606147115,1.0530562190080925,2.3865234165058307,2.6440387994920975,6.212075067330339
1570179536217323.0,3.181713301863438,1.8261209872946886,1.0900606169849192,1.2451660582109205,1.0533246567568035,2.402654803983116,2.668370482827537,6.252256285424558
1570179536217323.0,3.164884765630123,1.8125717813157562,1.0928798395009045,1.2568121916000505,1.0525791062425536,2.414008258452979,2.694697852881151,6.311978978844617
1570179536217323.0,3.15218564405811,1.8013342260579461,1.098507998775328,1.2675798214973044,1.0522278676724814,2.425613605359138,2.7253495908460104,6.391855862631107
1570179536217323.0,3.1366678206839103,1.78990198411593,1.1058805594507986,1.278052130311034,1.0535079878793836,2.4325621936831503,2.7592250678573915,6.48641384286692
1570179536239234.0,3.1249174203314722,1.7787117372054353,1.1110929254064499,1.2894303434779255,1.0553711258511644,2.432242820554356,2.797529743196554,6.596424587004618
1570179536239234.0,3.1127836288286037,1.7664031774938151,1.1142995604995962,1.301885735797486,1.0558853423770134,2.4336409047030165,2.842339448708855,6.718878338213513
1570179536240260.0,3.107897055845095,1.755754689627193,1.1178882108803212,1.3155299285940019,1.0570050790845549,2.440765745539068,2.893162792949817,6.850537312849947
1570179536240260.0,3.109381897344991,1.7480651943799956,1.1239783901667648,1.331521932904557,1.0600153181853018,2.448656600180592,2.9523200661660316,6.99880482240142
1570179536262133.0,3.123080247140838,1.7458279751408345,1.1307293890592998,1.3497660666317104,1.0638854543322642,2.458318426732836,3.0083818604504553,7.145818110505403
1570179536262133.0,3.1380763236870397,1.7477018877809039,1.1368698009688607,1.3673351875694992,1.0656671844089085,2.4708698802639875,3.0397581581806037,7.262147733908895
1570179536263131.0,3.1528622426350266,1.7532484450628716,1.1446054216547035,1.3838024149951822,1.0678410394713884,2.484059589713501,3.0533153814401803,7.368456621028466
1570179536263131.0,3.1609965597262444,1.7570898151529437,1.1571921684910178,1.4002763090801111,1.0729766138913426,2.494460624978723,3.0702793192173874,7.467175927069454
1570179536277093.0,3.172109957068705,1.7588054235987847,1.173501456497701,1.4164832552081934,1.0801314689467283,2.5017966906308855,3.0982838466930236,7.531596015472705
1570179536277093.0,3.181410120904988,1.7594369260590332,1.1892934668473663,1.4296745070703967,1.0870459482471404,2.509193466546125,3.1321893115765644,7.572522598857048
1570179536278196.0,3.1922289242273725,1.759141638545976,1.2001454793687694,1.4371029970921232,1.0926011957403294,2.5205678425934988,3.164544509642426,7.610586792477026
1570179536278196.0,3.2000031528273216,1.7572513436678487,1.2080781793043283,1.4392253621250568,1.0970144989317,2.533186126011172,3.1928026310255997,7.630610239927856
1570179536299036.0,3.210025071450988,1.7570491210776553,1.216922825763297,1.4397820412171216,1.1026293984991455,2.5458944076124337,3.2171241830440387,7.613777161406522
1570179536299036.0,3.214660501647895,1.7572261555690007,1.2279507301798496,1.4395560886696155,1.1100854935385973,2.562210901522438,3.2388548564997026,7.563575847379379
1570179536300032.0,3.2176444324468743,1.7588447012768722,1.2392158174877328,1.4372230035893048,1.1162210262459262,2.5835273279862694,3.262367075449095,7.501402094281022
1570179536300032.0,3.2146492365831345,1.7608777820532242,1.2498572343489949,1.434352810449201,1.117790239150245,2.60773778150198,3.2896928660647355,7.440345978492548
1570179536321973.0,3.2121965532727246,1.765578224818199,1.2603866020554395,1.4314382266413361,1.116296404791084,2.637455348047204,3.321863040594644,7.392098243324183
1570179536321973.0,3.207533785040242,1.7735294586668837,1.271878626667594,1.4292188462921707,1.1123239460611194,2.6765099981578944,3.3570576188659595,7.356189746896086
1570179536322971.0,3.205004458174617,1.7825117718959753,1.280585060948172,1.429291880203714,1.1068096253594182,2.715769231071352,3.395972188155119,7.3244427813281785
1570179536322971.0,3.1982868703343703,1.7863961039500356,1.2826425208447212,1.4263569509281202,1.1013854924130524,2.73289071657718,3.422132383703953,7.279654974191628
1570179536337931.0,3.1927486214441188,1.7854949210938533,1.27966319566092,1.4165818847400353,1.0979586917292055,2.72478158262085,3.41876620446637,7.211270249847205
1570179536337931.0,3.1844107359512406,1.7811513215162451,1.2781181971735287,1.4039880333656638,1.094903428429717,2.702603413948038,3.402683549472144,7.118866556486321
1570179536338953.0,3.1818392121229415,1.7784677959025064,1.2792382281809505,1.3924851556277533,1.0899791803560075,2.6772318992246715,3.3935103216585976,7.028863796721341
1570179536338953.0,3.181627296193494,1.778866044558082,1.280948788249704,1.3829321076076373,1.084010320975706,2.654390411605139,3.390642447032387,6.9541294323169
1570179536359872.0,3.185985734912129,1.7813158957435682,1.2815377178441076,1.3749631212567168,1.0805132187354118,2.635209024277318,3.3932347213060656,6.881576681512787
1570179536359872.0,3.18451229872908,1.7814206701505664,1.2810877029803378,1.3682388457095973,1.080137325883269,2.6206039932427534,3.3984105353676757,6.790967156666177
1570179536359999.0,3.180937818614568,1.7790129476523007,1.2799790991601294,1.3643764642413878,1.0815431164954612,2.6110354459485077,3.4034852552384036,6.69246612643799
1570179536359999.0,3.1740242910197365,1.773942326965153,1.2791008240272725,1.3623808132885307,1.0833060707763214,2.5979149059800983,3.4095593208632184,6.6012411058686
1570179536381962.0,3.169610676287357,1.7682485549237446,1.2760748899360579,1.3598648454286013,1.0855660480588223,2.5789392105492808,3.4181162241041485,6.524706729237363
1570179536381962.0,3.158560569922506,1.7616436877719621,1.270274508246774,1.3570268623076553,1.0881393796470216,2.556887638151445,3.4230753456262404,6.453782366692286
1570179536382810.0,3.1470429484488824,1.7567128583104747,1.2635497529374902,1.3543230674011435,1.090400407033116,2.5343370374743595,3.4205431382320968,6.387719332662644
1570179536382810.0,3.135765435184761,1.753255875018942,1.2589672390530542,1.35033814629432,1.090694456930406,2.5088343262746173,3.414407892502892,6.333300482736978
1570179536396773.0,3.1315760249306237,1.7533760478508402,1.2560184672247248,1.345299775483053,1.090719358613252,2.4828267448940085,3.409640076339722,6.301937167876971
1570179536396773.0,3.1279063144955064,1.7555507368567735,1.2532583110626854,1.340773168887881,1.0926343950642885,2.4592436541540947,3.4077818185831426,6.288549233330859
1570179536397774.0,3.1310730842024945,1.7587784861172389,1.249519839867689,1.3395185995716294,1.0961879397255894,2.4386805910162486,3.411903187897943,6.2902248526371665
1570179536397774.0,3.1371191890752868,1.7635340441840066,1.2470880477823538,1.3424780637051605,1.1002068439979389,2.417684302420049,3.4142764176017715,6.298443008297895
1570179536419750.0,3.148329259271354,1.7721044981834198,1.2463412014800301,1.3459073455224464,1.1039096799352242,2.398239607282008,3.411168887984661,6.29944067919686
1570179536419750.0,3.155987301779018,1.7809952361709291,1.2459771585043273,1.3449871175030934,1.1066187288547324,2.3817057241038206,3.4106004058535775,6.284916194676562
1570179536420710.0,3.161519961868635,1.7896108373096693,1.2448467754968715,1.3403487595190393,1.111558281656862,2.366252744745434,3.4202106924055475,6.2644141747788895
1570179536420710.0,3.161768353319813,1.7979464355541501,1.2454312117343203,1.3358690667949378,1.1186825455509308,2.347594771827355,3.438891693647217,6.243971504593069
1570179536441726.0,3.1630392007491768,1.8060020911458083,1.2473985574027993,1.3329474362054994,1.1222766148100658,2.3304951098071616,3.457281530718688,6.230467948098146
1570179536441726.0,3.159152709201592,1.8095322702109617,1.2482029444137572,1.3309336929949223,1.1205994251005358,2.316463927730704,3.4617685536393243,6.224173284513427
1570179536442654.0,3.1565093377058653,1.8107077946370487,1.2463198215350593,1.3292670316814506,1.1184266278915898,2.302745972662663,3.4598437445984858,6.225980414794217
1570179536442654.0,3.151417655026782,1.8124508226622875,1.2436180542267796,1.3262801558243655,1.1171106587121753,2.2885730797018176,3.4630041698425043,6.233307375541439
1570179536456613.0,3.1518168014993795,1.8181725160627678,1.2419570366868076,1.323354001313557,1.1169952757612438,2.2777124403825093,3.4721017318235567,6.250408472812793
1570179536456613.0,3.152197172851079,1.8270810042362144,1.242320576753741,1.3217303741014759,1.1181847764602642,2.2652849685456125,3.4862421414726383,6.266669187781193
1570179536457611.0,3.149673036493448,1.8353770282987643,1.2395486024843603,1.3186281074270008,1.119902686602527,2.2485349831218215,3.5019949732304814,6.2575820272622815
1570179536457611.0,3.1355593143297966,1.839218750257973,1.2317218136846781,1.313340088770836,1.1229501371304735,2.22844888789603,3.509693475727949,6.214257690338763
1570179536479552.0,3.1205665089917014,1.84180891167947,1.2224395908497434,1.308109286695657,1.1270855299302944,2.2083471311452136,3.515390806940338,6.162473105774972
1570179536479552.0,3.1045170702251093,1.8428191956220161,1.2144631367448093,1.3027922794837505,1.1291073927923563,2.188392920182161,3.5249035882065742,6.118084168400288
1570179536480549.0,3.0919787942570984,1.8435026590903425,1.206060451998495,1.2952180875265933,1.1275903360116304,2.170601499069317,3.5370668997031816,6.084448064090549
1570179536480549.0,3.079459428094531,1.8421686233907872,1.1953385699355532,1.284346464160205,1.123646823326536,2.1529524909510678,3.5521345885122897,6.0608853049316105
1570179536501497.0,3.0732343675597797,1.8387222968487364,1.181313965622158,1.2737283818719936,1.1205443954511776,2.1373806780345106,3.570822381488981,6.046225347680816
1570179536501497.0,3.0630052374493726,1.8323278947882686,1.1673553181885825,1.2654722363517061,1.118597893483396,2.12286068517129,3.585518821418818,6.025915715876541
1570179536502551.0,3.0484376513230793,1.8244092436820165,1.1529449465769626,1.2564160129773458,1.117141201656349,2.108816330922571,3.594456463943809,6.004530641710998
1570179536502551.0,3.0231001532896613,1.8152344711251291,1.1367004615948388,1.2441099303386522,1.1149623464447438,2.0957821101186416,3.603514436388653,5.9939954529880035
1570179536517450.0,2.996038267605076,1.8056740568879905,1.120309777510187,1.231616641798309,1.1118146826423008,2.0858799683758398,3.6198391442854008,6.001446875775811
1570179536517450.0,2.9663778514407158,1.7934632987451322,1.1064239578681538,1.221233704870595,1.1104224934595899,2.0746016112999706,3.6361611501198947,6.017664136555519
1570179536517533.0,2.9375368617549045,1.7806736670710706,1.093071950573649,1.2129113764737645,1.1117010872957758,2.0596381846755194,3.64193772624505,6.0300141925881485
1570179536517533.0,2.90332323728334,1.7681787227814223,1.079962287980344,1.2061756620628095,1.112498902680569,2.0413676463451873,3.6403421571421566,6.039136679079148
1570179536539428.0,2.873035346468019,1.7577407378576835,1.0683930950176828,1.1989853817119283,1.1134922703614647,2.0254253653705656,3.644296609277611,6.051865400036228
1570179536539428.0,2.8423754446723293,1.746852325805681,1.0605037527456633,1.1905433881961134,1.1168102602148662,2.0098538445209377,3.6434227862493103,6.062406314667187
1570179536540392.0,2.8129510325743037,1.7349148819096363,1.0566991443366032,1.1838276563934418,1.12102828124657,1.9893827330518632,3.6184531188720164,6.068625613776339
1570179536540392.0,2.777866769241726,1.7219751470704878,1.0564364468649385,1.1803418728479722,1.1237340947192713,1.9606100759882226,3.5732215104039318,6.081489619548436
1570179536562334.0,2.7424676396249668,1.7103426359381582,1.0559607979366403,1.1788783396132043,1.1257071311759985,1.9298109986707745,3.5226725107702013,6.112336809030432
1570179536562334.0,2.7033879682892428,1.6983112518148804,1.0555381586533956,1.1789236701614976,1.1287929647146213,1.900256419782636,3.4666335559795254,6.150668496530945
1570179536562334.0,2.6696153617711094,1.686572408231652,1.0571278838266056,1.1814933936422483,1.1343721891298795,1.8728095131864386,3.409189760909991,6.18992332117344
1570179536562334.0,2.6378575458865576,1.6739711671668351,1.0599976851083868,1.1841926059561805,1.1425612182231875,1.8457810033956377,3.3494115909912314,6.226896035421415
1570179536577314.0,2.610844620567736,1.6611641206678625,1.0610926886054304,1.1847209359578783,1.1527344237264785,1.8221345899450232,3.2864566664108965,6.259647397862624
1570179536577314.0,2.5801583990162413,1.6473150240588672,1.061914167811784,1.1839649398651542,1.1628000706448602,1.8006187505327407,3.2202358233358552,6.298643100632912
1570179536577314.0,2.5506783758737357,1.6350599422214547,1.0645724766202729,1.1837186079881108,1.1727826515000435,1.779383473321861,3.1547140995116036,6.355907884632238
1570179536577314.0,2.518571392834842,1.6240364090760369,1.0693047911249147,1.182954612687499,1.1817890319608293,1.7551785608596517,3.0878923913268546,6.430774219132287
1570179536599269.0,2.491592297303894,1.6140629989957587,1.074163487802749,1.1789803009172746,1.1867968998096923,1.7297100572883515,3.0207837368387747,6.5255471187484355
1570179536599269.0,2.467104538569041,1.6020225953751543,1.0764756700504075,1.1712251714134787,1.1881757702608575,1.7034294566395602,2.954701916117228,6.6376263008071215
1570179536600230.0,2.4479737854244825,1.5882821391684856,1.0735455302839818,1.159992496816879,1.1889273034975054,1.6792279903268759,2.8925249866301437,6.755474095797482
1570179536600230.0,2.4260971816233274,1.5723691080918463,1.0676969464302133,1.1460549765533965,1.1901493233235947,1.657055885664575,2.83281388595412,6.860725409144473
1570179536622334.0,2.406936845175257,1.5551110719596697,1.0606324965005987,1.1317594735805099,1.1910738835839292,1.6377868709532843,2.7792091455935934,6.9498738852989765
1570179536622334.0,2.3865808267380157,1.535148530632741,1.0539132010472374,1.117458528683599,1.1914159782985378,1.6166215242714432,2.7294236566150896,7.038752896535633
1570179536623168.0,2.368507857832195,1.5151537319503414,1.0476600540918108,1.104092341446334,1.1932973633465236,1.593639303071548,2.6810222536379955,7.139802784629818
1570179536623168.0,2.34817403239637,1.495575898798349,1.0412006369489,1.0933973632588059,1.1968713130968895,1.5716265295305205,2.632472641589943,7.253468537147244
1570179536636133.0,2.333827176257674,1.4767649563614165,1.034920807147388,1.0859388585237657,1.2012850901004366,1.5535184507071644,2.5877713069354984,7.383291147540719
