timestamp,emg1,emg2,emg3,emg4,emg5,emg6,emg7,emg8
1570179752892267,-2,-1,0,0,0,0,1,-1
1570179752892267,0,0,-1,-1,-1,-1,-2,0
1570179752902191,1,-2,-1,-1,0,0,-1,-1
1570179752902191,0,-1,-1,0,-1,-1,1,0
1570179752905184,0,0,-3,0,-2,2,0,1
1570179752905184,-2,-1,-1,-1,-1,1,1,0
1570179752906233,-1,-3,-1,0,1,1,-2,0
1570179752906233,-1,-1,-1,0,0,1,0,2
1570179752915160,-1,0,0,-2,-4,-3,-1,0
1570179752915160,3,0,-1,-1,-3,0,1,11
1570179752923140,0,1,-1,-1,1,-2,-2,-4
1570179752923140,0,-1,0,-1,3,3,0,-2
1570179752930160,2,-1,-1,-1,-2,-2,1,3
1570179752930160,-7,-3,-1,-1,-2,-3,-3,-4
1570179752953061,1,-1,0,-1,-1,2,2,13
1570179752953061,-5,-2,-1,2,-1,-15,-2,-4
1570179752955055,-4,-3,-3,-4,0,11,2,-4
1570179752955055,1,0,2,2,4,3,-8,-7
1570179752967146,-4,-2,-1,-1,-1,-3,-1,-9
1570179752967146,3,0,1,0,-1,3,0,5
1570179752974192,0,0,-1,-1,-1,-10,-1,0
1570179752974192,-1,0,0,1,1,-2,4,-3
1570179752989548,-3,0,-1,0,-1,-2,-4,-4
1570179752989548,-4,-1,-1,-2,-3,-4,-3,-14
1570179752989961,4,-1,0,0,-4,-1,0,7
1570179752989961,1,0,-2,-2,-1,2,0,3
1570179753036837,-1,-1,-1,-4,-8,-10,-4,-4
1570179753036837,1,-1,-2,0,4,7,7,1
1570179753037828,0,-2,-1,-1,1,2,-2,-4
1570179753037828,0,-2,1,-1,-1,-2,1,-3
1570179753038833,-1,0,-1,0,1,-2,-6,-4
1570179753038833,0,0,0,-1,-1,-3,0,2
1570179753042823,-5,-1,0,0,2,-2,0,-1
1570179753042823,1,1,-2,-1,-4,6,0,-5
1570179753048808,16,1,0,0,0,2,3,23
1570179753048808,-12,-1,0,-2,-1,-1,-4,-13
1570179753057774,9,-3,-3,-2,-2,0,-1,5
1570179753057774,-3,-3,0,0,1,-1,-1,-3
1570179753071066,-4,-2,0,-1,0,3,-1,-5
1570179753071066,5,0,-1,-1,0,1,0,4
1570179753079717,-4,-1,-2,-2,-2,-3,-1,-5
1570179753079717,0,-4,-6,-3,-3,-4,-5,-2
1570179753093878,0,-1,-1,0,1,2,2,-3
1570179753093878,-1,-1,-1,-1,1,-4,-1,-4
1570179753109817,-1,-1,0,-2,-2,-1,-1,1
1570179753109817,3,0,1,1,0,-3,1,6
1570179753109817,-4,-1,0,-1,2,0,1,-4
1570179753109817,1,1,-1,-1,-2,-2,-1,1
1570179753123608,0,-1,-1,1,-1,-2,-2,-3
1570179753123608,-2,0,-1,-2,0,0,1,-3
1570179753131629,6,-1,0,0,-1,-2,-2,-1
1570179753131629,-2,1,1,-1,-1,0,-4,-3
1570179753146747,-1,0,1,0,0,0,0,-4
1570179753146747,5,0,1,-1,-1,-1,5,20
1570179753147543,-17,-3,0,1,0,1,-1,-18
1570179753147543,17,-1,-3,0,-4,-3,0,22
1570179753170527,0,1,0,0,1,1,2,-3
1570179753170527,2,2,-1,-1,1,-2,0,-2
1570179753171626,-13,-3,-1,-2,-2,-1,1,1
1570179753171626,0,-1,-1,1,-1,2,1,3
1570179753191719,0,1,0,-2,-2,-2,-3,-1
1570179753191719,-3,1,0,-1,-2,0,-5,-10
1570179753192416,6,0,-3,-1,0,1,2,23
1570179753192416,-5,-2,-1,0,-1,-1,-3,-6
1570179753208375,0,-1,0,-2,-1,0,1,5
1570179753208375,-4,-1,1,1,2,-1,0,-6
1570179753209372,0,-1,-1,0,-1,-2,-1,-6
1570179753209372,-4,0,0,1,1,-2,1,-3
1570179753229322,6,-1,-3,0,-1,0,-1,10
1570179753229322,-13,-1,-1,-2,2,2,-3,-23
1570179753230314,-4,-1,-2,-1,0,1,2,-6
1570179753230314,13,-2,-1,-3,0,-2,2,30
1570179753243287,4,2,0,0,0,2,-2,-8
1570179753243287,7,1,0,1,-1,0,0,12
1570179753251505,-1,0,1,-2,-1,-1,-1,-5
1570179753251505,-13,-1,1,0,0,-1,-1,-13
1570179753268225,0,-1,-1,0,-3,-1,-2,-2
1570179753268225,4,0,-1,-1,-2,0,1,8
1570179753269211,0,0,-1,1,0,1,0,-3
1570179753269211,-4,1,0,-2,0,-1,-2,-6
1570179753289325,-6,-1,-2,-1,1,-1,0,-2
1570179753289325,0,0,-3,0,0,1,-1,-1
1570179753290157,1,0,1,0,0,-1,-1,-5
1570179753290157,0,1,0,-1,-1,-2,0,-5
1570179753303120,-2,-2,-1,-1,-1,-2,1,-2
1570179753303120,-1,-1,-1,0,0,-2,-1,-2
1570179753319085,0,0,0,-2,-1,-1,-2,0
1570179753319085,1,-2,-2,-1,0,0,-1,-3
1570179753327179,-3,-2,0,0,1,-1,0,-5
1570179753327179,-1,0,-1,-1,0,-2,-1,-7
1570179753327179,3,-1,-3,0,-1,-2,0,5
1570179753327179,1,0,0,0,-2,1,0,-7
1570179753349163,0,-1,0,-2,0,2,2,4
1570179753349163,6,2,1,0,-2,0,-3,0
1570179753350004,-3,-1,-1,0,0,1,-1,-3
1570179753350004,-3,1,-2,-1,0,-1,-1,-3
1570179753371992,-1,1,-2,1,-1,-2,0,1
1570179753371992,1,-1,-2,-2,-2,0,0,4
1570179753372939,1,2,0,0,0,-1,-2,0
1570179753372939,-1,-1,0,-1,0,-1,0,0
1570179753386902,-1,1,-1,-1,0,-1,-1,-1
1570179753386902,-4,-1,1,-1,0,-2,0,-2
1570179753387892,1,-1,-1,-1,0,1,-1,-1
1570179753387892,-8,-2,-1,-1,1,-2,-2,-8
1570179753409835,6,1,-1,-2,-3,1,-2,0
1570179753409835,-7,-2,0,0,-1,-1,1,0
1570179753409835,-3,-1,1,-1,0,-1,-1,-6
1570179753409835,-4,0,-1,1,-1,2,-1,-13
1570179753431822,-5,-2,-1,-1,0,1,-1,-7
1570179753431822,1,1,-1,0,-1,0,-2,4
1570179753432773,0,-1,-2,-1,-1,1,0,3
1570179753432773,-5,-1,2,-2,-2,1,0,-12
1570179753454753,4,1,0,1,-1,-2,2,27
1570179753454753,0,-2,1,-1,-1,-2,-3,4
1570179753455719,0,-3,-1,2,0,-1,0,0
1570179753455719,2,0,0,0,0,0,0,2
1570179753469673,-8,-1,-1,-2,-2,0,1,-13
1570179753469673,-1,-2,-1,-2,0,2,2,-1
1570179753470671,-3,1,-2,-2,0,-1,1,3
1570179753470671,4,-1,-2,0,-1,-1,0,8
1570179753491669,-5,-2,-1,-2,1,-1,-4,-9
1570179753491669,1,0,-2,-2,-2,-1,-1,2
1570179753492614,-3,0,-2,-2,-1,-1,-2,-9
1570179753492614,-1,1,-1,0,-1,-1,-1,1
1570179753506771,-3,0,0,0,-1,-2,-3,-6
1570179753506771,0,-1,-1,0,1,0,0,3
1570179753507582,1,0,-3,-2,-2,0,1,-1
1570179753507582,-1,-1,-1,-1,0,0,1,5
1570179753529518,3,-1,0,0,-1,-1,-1,2
1570179753529518,-1,-2,1,0,-1,-1,4,14
1570179753529518,0,-1,0,-1,-1,-1,-1,3
1570179753529518,0,-1,1,-2,1,1,1,-3
1570179753551503,0,-1,-3,-1,0,-1,-3,0
1570179753551503,0,0,-3,0,-2,-2,-3,-4
1570179753552454,0,-1,1,-2,0,-1,-2,-4
1570179753552454,1,-1,0,-1,-1,-2,-1,-1
1570179753566543,-2,-1,0,-1,1,0,2,-4
1570179753566543,-1,-2,-2,0,1,0,2,-12
1570179753567414,1,1,-1,0,-1,-2,-2,-2
1570179753567414,1,-1,-2,-2,-1,-2,-2,0
1570179753589798,0,-1,0,1,-2,-1,0,3
1570179753589798,-6,-4,-1,-1,0,-3,-2,-3
1570179753590356,2,0,-1,2,-2,0,0,4
1570179753590356,-1,0,0,-2,-1,-1,0,2
1570179753620323,-3,-2,-2,-2,-2,-1,-2,0
1570179753620323,-5,-2,2,-1,0,-1,-2,1
1570179753621376,0,0,-1,0,-1,-1,2,4
1570179753621376,5,0,-2,1,-1,-1,-1,7
1570179753627255,-5,-3,-1,1,2,0,3,9
1570179753627255,22,11,-1,-2,-3,1,1,4
1570179753627255,-10,-1,1,2,2,-1,-2,-19
1570179753627255,4,-2,-2,0,-1,-1,2,12
1570179753650199,-2,0,0,2,0,0,0,-7
1570179753650199,-2,-4,0,-1,0,0,-1,-2
1570179753650199,7,1,-1,-4,-3,0,-1,4
1570179753650199,-7,2,-1,-3,0,-1,-3,-9
1570179753672132,1,-1,0,-2,-1,0,0,0
1570179753672132,0,0,-2,-2,-1,-2,0,0
1570179753672132,-10,-7,-4,-1,0,-1,-2,1
1570179753672132,-7,-2,0,-2,-2,0,-2,-10
1570179753687100,-1,-1,-1,-2,-1,-1,-2,-8
1570179753687100,6,1,0,0,0,2,0,0
1570179753687100,-6,2,2,1,0,0,1,0
1570179753687100,11,5,1,1,-1,0,0,8
1570179753709034,9,-11,-7,-1,-2,-3,-1,1
1570179753709034,-15,-5,-2,4,-3,-1,-5,-18
1570179753710032,4,-3,-1,7,-1,1,7,11
1570179753710032,-1,2,2,7,1,-2,-11,3
1570179753731973,5,5,2,1,-1,-1,-13,8
1570179753731973,-5,-1,1,-3,1,-1,-1,-3
1570179753731973,-5,-3,-3,-8,-2,-2,-5,-8
1570179753731973,-6,-2,-2,-4,0,-1,0,-19
1570179753746934,-1,1,1,-5,0,-2,2,1
1570179753746934,-4,-1,1,-2,1,0,1,3
1570179753746934,-1,2,-1,-2,1,1,-3,3
1570179753746934,1,2,-1,-3,1,2,6,3
1570179753768874,27,13,3,0,1,0,3,15
1570179753768874,-51,-23,-4,-3,1,0,0,-14
1570179753769871,21,1,-2,-4,-3,-2,-1,2
1570179753769871,-8,3,2,-1,-2,0,0,-1
1570179753791812,2,0,-1,-2,-1,0,4,-5
1570179753791812,12,6,1,0,-1,1,-1,2
1570179753792811,-3,-2,-2,-1,-1,-1,0,2
1570179753792811,-6,-6,0,1,1,-1,-3,-3
1570179753806772,-4,3,2,2,-1,-1,-1,4
1570179753806772,9,4,-1,-2,-1,-1,-1,-3
1570179753807770,-7,0,0,-2,-1,-1,-4,-3
1570179753807770,10,1,-1,-1,0,-1,2,5
1570179753829712,-18,-5,-3,-2,-1,0,0,-19
1570179753829712,6,5,1,0,-1,-1,0,2
1570179753829712,6,-3,1,-2,-1,0,-2,2
1570179753829712,-12,-10,-2,0,-3,0,-1,-5
1570179753852014,-2,2,0,0,0,1,0,-3
1570179753852014,30,7,0,1,-2,-1,-1,14
1570179753852649,-16,2,-1,0,0,0,-2,-4
1570179753852649,27,10,0,-3,0,-1,1,13
1570179753866610,-43,-25,-4,0,0,-2,-2,-9
1570179753866610,20,14,0,-1,-2,0,1,-4
1570179753873593,13,-5,0,0,-2,-1,1,3
1570179753873593,-52,-23,-5,-1,-3,-1,-3,-3
1570179753897530,14,8,0,-1,-2,-1,-1,2
1570179753897530,-3,1,0,1,-1,-1,-1,-1
1570179753898529,20,14,4,2,0,2,6,9
1570179753898529,-42,-26,-10,-4,-1,-3,-3,-12
1570179753911492,7,5,0,0,0,-2,0,1
1570179753911492,-3,-6,-1,-2,-1,-2,-3,3
1570179753912537,-12,2,1,0,0,0,-2,-3
1570179753912537,14,6,2,1,2,1,2,0
1570179753936429,-10,-2,3,1,-2,1,2,1
1570179753936429,20,1,-6,-6,-5,-3,-3,-4
1570179753937427,-7,-5,1,2,1,-2,1,1
1570179753937427,7,6,-1,0,0,-3,2,-18
1570179753949398,-3,0,-2,-2,-1,-3,4,10
1570179753949398,-9,-1,2,2,0,-2,-2,5
1570179753950389,4,-4,2,2,4,0,-2,15
1570179753950389,19,18,0,-2,1,-3,-4,-4
1570179753971417,-2,-10,-4,-3,0,-2,0,-7
1570179753971417,3,3,-3,-3,0,-2,1,-7
1570179753973329,4,-3,-1,1,-2,-5,-1,-3
1570179753973329,21,8,3,2,-1,-1,3,5
1570179753987292,2,-2,1,0,0,1,-1,1
1570179753987292,-26,-9,2,2,2,2,2,-1
1570179753994358,4,0,-5,-3,-2,-1,-2,-1
1570179753994358,5,2,-1,-1,-1,-1,1,-1
1570179754017427,-6,-2,1,3,1,0,-1,10
1570179754017427,7,3,0,3,1,1,2,7
1570179754018222,3,4,-1,-1,0,2,1,2
1570179754018222,5,0,-1,-1,-4,1,-2,8
1570179754040155,28,18,1,-1,-2,-1,-1,-3
1570179754040155,-19,-12,-4,-2,-2,-1,-2,-16
1570179754040155,3,0,-2,0,-3,-3,-6,-2
1570179754040155,0,-5,0,1,-2,1,-1,3
1570179754055155,-13,2,3,3,2,2,3,1
1570179754055155,-19,-20,-5,-2,-1,-2,-4,-12
1570179754056107,0,0,-1,-1,-3,-2,-3,-8
1570179754056107,4,2,1,2,0,2,0,2
1570179754077254,-17,-10,-6,-2,-2,-1,-4,-6
1570179754077254,-1,2,3,2,1,1,3,8
1570179754078052,-10,-5,-4,-2,0,3,0,-6
1570179754078052,-1,-2,-1,-1,0,0,1,2
1570179754092152,15,14,5,2,1,3,1,-13
1570179754092152,-4,-11,-6,-3,-1,-3,-1,16
1570179754093011,-7,7,2,0,-3,-2,-2,-5
1570179754093011,12,-3,-5,-3,-4,1,2,7
1570179754115260,12,1,-1,-1,-2,-3,-5,-3
1570179754115260,1,8,4,1,1,-2,-2,-12
1570179754115947,-2,-3,0,-2,-2,-3,-1,0
1570179754115947,-18,-5,0,0,1,-2,-1,0
1570179754136889,-2,-4,-2,-2,-1,2,1,-1
1570179754136889,7,4,-1,-2,-2,2,8,-18
1570179754137886,-8,-7,1,2,0,-2,-4,7
1570179754137886,2,3,-1,-1,-2,-2,-2,-7
1570179754151847,-2,-5,-3,-1,0,-6,-8,-4
1570179754151847,4,4,-1,2,0,0,1,3
1570179754152846,-2,-3,-3,-1,0,2,2,-1
1570179754152846,-3,-2,0,-1,-2,-1,0,2
1570179754175882,-5,-3,-3,-3,-1,0,3,0
1570179754175882,3,2,1,1,0,1,3,14
1570179754175882,-4,-3,0,0,1,0,2,-2
1570179754175882,3,0,-2,-1,1,-1,-3,14
1570179754205824,2,-1,0,0,0,4,7,23
1570179754205824,0,3,0,0,-4,-1,-4,-10
1570179754205824,2,0,-1,-1,-2,1,0,-10
1570179754205824,4,0,-1,-2,0,0,-2,9
1570179754211691,-11,-3,-5,-4,-1,-1,-7,-12
1570179754211691,6,-1,-1,-1,-3,0,-4,15
1570179754212686,4,2,-1,-2,-1,-1,-3,3
1570179754212686,-4,1,2,-1,1,0,-1,-4
1570179754234643,4,-1,-2,-2,-1,-2,1,4
1570179754234643,-3,-1,0,-2,0,-1,-6,-18
1570179754235723,3,-1,-1,-3,-1,0,0,-5
1570179754235723,-16,-2,-2,-2,1,-1,-1,-7
1570179754264782,-3,-2,0,-2,0,-2,-2,-8
1570179754264782,-1,-2,0,-3,-1,-1,2,2
1570179754265552,1,2,1,-1,-1,0,-2,1
1570179754265552,3,-1,-1,-1,0,-1,-1,-5
1570179754271742,-2,-1,-1,-3,-2,0,-3,2
1570179754271742,2,0,-1,0,-1,-3,-2,6
1570179754272530,-5,-2,-3,-1,0,1,2,-3
1570179754272530,1,-2,0,1,-2,-4,-3,4
1570179754294470,-1,-1,-2,1,-2,-1,-2,-7
1570179754294470,-1,0,0,2,0,1,-1,-4
1570179754295466,6,1,-3,1,0,0,1,10
1570179754295466,-2,0,0,0,0,1,0,-6
1570179754317618,1,-1,1,-1,0,-2,0,-3
1570179754317618,-2,2,0,2,0,-3,-1,3
1570179754318415,-4,-2,0,1,0,-2,0,-5
1570179754318415,-1,-1,0,2,-2,-4,2,-5
1570179754331538,6,0,0,1,1,-1,1,0
1570179754331538,-1,-2,-2,-1,0,-1,1,-1
1570179754332368,-2,-2,0,1,2,-1,-2,-6
1570179754332368,0,-1,0,-2,-4,-1,-1,-1
1570179754355359,4,-2,-1,-2,0,0,-1,10
1570179754355359,-1,0,1,0,-1,0,-2,0
1570179754355359,-2,1,-1,0,0,-1,-1,-1
1570179754355359,0,0,-1,1,-1,0,-2,-1
1570179754377258,-2,-1,0,0,-1,1,0,-2
1570179754377258,4,0,0,0,-2,0,0,6
1570179754378248,-1,-1,-1,1,-2,-1,0,-8
1570179754378248,-2,-1,2,-1,-2,0,-1,-8
1570179754391212,-4,-2,1,0,-1,-2,-1,-12
1570179754391212,2,-1,-1,-1,1,2,2,9
1570179754392213,-1,-1,-2,-2,1,0,0,8
1570179754392213,2,0,-2,-1,0,1,1,16
1570179754415193,-1,0,-1,1,-2,0,-3,-1
1570179754415193,1,0,-1,-2,0,0,1,2
1570179754415556,-9,0,0,0,-1,0,0,-11
1570179754415556,1,-2,-2,-1,1,1,1,-4
1570179754437096,-2,-1,-1,0,0,0,-2,-1
1570179754437096,2,-1,-2,-1,-1,-2,0,6
1570179754438193,2,-2,1,2,0,-3,-1,5
1570179754438193,-1,0,-1,1,0,-2,-1,-7
1570179754451056,-2,-1,0,0,0,0,0,0
1570179754451056,-5,0,1,-1,0,-1,-2,-3
1570179754459122,-3,-1,1,0,-2,-3,-6,-6
1570179754459122,3,0,-2,-1,-2,0,1,4
1570179754473988,1,-1,-3,-1,-2,-2,-2,-4
1570179754473988,12,-1,-1,-1,0,0,5,33
1570179754481968,5,-2,-3,-2,0,1,-1,0
1570179754481968,-1,-1,3,0,-2,-2,-3,-8
1570179754496935,0,-1,-2,-1,0,1,4,0
1570179754496935,-7,0,-1,0,-2,2,-2,-14
1570179754497926,-1,-1,-1,0,0,-1,1,1
1570179754497926,-1,0,0,-1,2,0,1,3
1570179754511340,0,2,1,-1,0,-1,1,2
1570179754511340,1,-1,-1,-1,-2,-3,-2,-3
1570179754518868,0,0,0,-1,-1,0,-2,-3
1570179754518868,-2,0,-2,1,0,1,-2,-2
1570179754542805,0,-1,-1,-1,0,0,1,6
1570179754542805,-3,-3,0,0,0,-3,-4,-7
1570179754542805,-2,-1,-1,-2,-1,-2,1,0
1570179754542805,-1,-1,-1,-2,-1,0,-1,-3
1570179754557766,0,-1,1,-2,0,1,-1,0
1570179754557766,-1,0,-2,-1,0,-1,-1,-3
1570179754557766,3,-2,0,0,1,1,0,-2
1570179754557766,0,-2,0,0,0,0,-1,-6
1570179754570734,5,-1,0,0,1,1,1,-1
1570179754570734,13,-1,0,1,-1,0,3,14
1570179754579714,-3,0,0,2,-1,-2,-1,-9
1570179754579714,-1,2,0,0,1,-1,0,-5
1570179754593825,1,-1,1,1,-3,0,-1,0
1570179754593825,-7,-1,0,1,-2,1,0,-11
1570179754601651,-1,1,-1,-1,-2,-1,1,5
1570179754601651,2,-2,-2,-4,-3,0,-5,12
1570179754617747,-10,-2,2,0,-3,-2,1,-13
1570179754617747,-4,0,-1,-2,1,-3,-5,11
1570179754618606,-5,0,-1,-4,-1,0,1,5
1570179754618606,-8,0,1,0,1,-2,-1,-8
1570179754631696,-1,-1,-3,-2,0,-1,-1,6
1570179754631696,-4,-1,-1,-1,1,0,-1,-15
1570179754640545,1,0,0,0,2,0,4,6
1570179754640545,1,0,-1,0,0,-1,0,3
1570179754654605,3,0,0,0,-1,-1,-1,4
1570179754654605,-6,0,0,0,0,0,0,-8
1570179754655508,-2,-2,1,-2,-2,-1,-4,-6
1570179754655508,-2,0,2,-1,0,-1,2,-12
1570179754677445,4,0,-3,-2,-2,1,-9,14
1570179754677445,-2,-1,-1,0,-2,0,-3,-7
1570179754678442,2,0,-1,1,0,2,1,3
1570179754678442,-9,-2,-1,0,2,0,-5,-13
1570179754691414,-3,2,0,1,1,-1,5,-2
1570179754691414,-1,-4,-3,-1,-3,-2,-8,-18
1570179754706374,-2,-1,-1,-1,0,-1,-2,-4
1570179754706374,4,0,-1,-2,0,1,5,9
1570179754714346,0,0,1,-1,0,-1,-4,-7
1570179754714346,-1,1,0,1,1,0,5,2
1570179754715635,1,-2,-1,-1,0,-3,0,5
1570179754715635,1,-2,-2,0,-2,-1,-1,-7
1570179754737286,-2,-2,-1,-2,-2,-1,2,-2
1570179754737286,0,1,0,0,-1,-1,-1,6
1570179754743268,-3,-1,0,0,-2,0,-2,-5
1570179754743268,0,0,-1,0,-2,0,-1,6
1570179754767252,-3,1,0,0,1,-1,-1,-2
1570179754767252,0,0,-2,-1,0,0,2,9
1570179754768203,-6,-1,-1,-1,1,0,0,-3
1570179754768203,1,0,-1,-2,0,0,-1,-1
1570179754775183,0,0,-2,0,0,-1,-2,-1
1570179754775183,-1,0,0,0,-1,0,-1,-9
1570179754776182,4,2,-1,-1,-2,0,-1,0
1570179754776182,3,0,0,0,-1,-1,0,5
1570179754797130,1,-2,-1,-1,-1,0,0,1
1570179754797130,-1,1,0,-1,-1,-1,1,2
1570179754798123,1,-1,-1,-1,-1,1,0,4
1570179754798123,2,-2,-1,0,-2,1,8,-2
1570179754820067,1,2,-1,-2,-1,-1,5,1
1570179754820067,0,-1,0,-1,1,0,4,14
1570179754821061,0,-1,-2,-1,-2,0,0,-2
1570179754821061,-3,-2,-1,-2,0,0,2,2
1570179754835023,1,3,2,1,0,-4,-16,7
1570179754835023,11,1,-2,-1,-2,1,0,11
1570179754836437,-6,-1,0,0,2,0,-2,-12
1570179754836437,-2,-2,-1,-1,0,-2,-5,2
1570179754857016,-3,-1,-3,-1,-2,-1,1,-6
1570179754857016,-3,-2,-1,-2,-2,-2,-1,-7
1570179754857962,3,0,-1,1,0,-3,-3,2
1570179754857962,-1,1,-1,-2,0,-1,-3,-5
1570179754879904,3,-2,-1,0,0,-2,3,5
1570179754879904,-12,-1,0,-2,0,-1,-5,-22
1570179754881898,-1,-3,-1,-1,-1,-1,1,0
1570179754881898,-1,-1,-1,0,-1,1,-4,4
1570179754893866,-2,-1,-2,0,0,2,1,0
1570179754893866,0,0,-1,0,0,0,-1,-5
1570179754902887,3,1,0,0,-1,-3,-1,6
1570179754902887,-1,0,-1,1,-2,-3,-2,1
1570179754917802,-3,-1,0,0,-1,-1,-2,-2
1570179754917802,2,-1,-1,0,1,-3,1,1
1570179754919080,-1,0,-1,-3,-1,-1,2,0
1570179754919080,3,-1,-1,-3,0,-1,0,2
1570179754940021,-1,-2,-1,-2,0,-1,2,-3
1570179754940021,-5,0,0,0,-1,-1,-1,-1
1570179754941737,1,-1,-2,-1,-1,1,-2,3
1570179754941737,-1,-1,-1,0,-1,1,2,0
1570179754954704,-2,-1,0,0,-2,-1,3,8
1570179754954704,2,0,0,0,-2,-2,-2,-2
1570179754962683,0,-1,-1,0,-2,-1,-2,2
1570179754962683,1,0,-2,-2,-2,0,1,6
1570179754984625,-1,-1,-1,2,-1,1,0,-6
1570179754984625,-1,-1,0,-1,-1,1,0,-2
1570179754987615,2,-1,0,-2,-1,0,0,5
1570179754987615,-2,-1,2,0,-3,-1,-2,-9
1570179755007561,4,1,1,-1,0,0,3,12
1570179755007561,0,-1,-1,0,-1,-1,-1,4
1570179755008749,0,-1,-1,0,-1,-2,-1,-1
1570179755008749,0,0,0,1,0,-2,-1,1
1570179755013547,0,-1,-2,0,-2,-1,-2,-5
1570179755013547,0,-1,0,-1,-1,1,1,0
1570179755022633,1,0,-2,0,0,0,1,2
1570179755022633,0,-1,0,0,0,1,0,0
1570179755044463,-2,-1,-1,-3,-2,0,1,5
1570179755044463,-1,-1,-1,-1,0,-1,-1,-3
1570179755046456,0,0,0,-1,-1,0,-2,-1
1570179755046456,0,-1,-1,-2,-1,-2,0,-1
1570179755059421,1,0,-2,-2,-1,0,2,1
1570179755059421,-1,0,-1,0,-1,0,2,0
1570179755061664,-1,0,0,0,-1,0,-1,-2
1570179755061664,1,-1,0,1,0,0,-2,-4
1570179755074491,1,0,0,-2,-1,-4,-2,7
1570179755074491,-1,0,0,-1,-1,0,-3,-4
1570179755081403,1,-2,-1,1,0,-1,1,3
1570179755081403,-4,-1,-1,-1,-1,0,-2,-1
1570179755097321,1,-1,-1,-2,0,0,0,-5
1570179755097321,-1,1,1,0,0,0,1,-2
1570179755099315,-2,0,-2,-1,-2,-3,-5,-17
1570179755099315,1,-1,-1,0,-1,1,0,3
1570179755119263,-5,-1,-2,0,0,1,0,-13
1570179755119263,4,0,-2,0,-1,0,1,19
1570179755122253,7,-1,0,0,-1,0,-1,8
1570179755122253,0,-1,-2,-1,0,-1,0,0
1570179755134230,0,0,0,0,1,1,-1,-5
1570179755134230,-2,-2,-1,-2,-2,-1,-3,-7
1570179755141372,0,-2,-1,-1,0,0,-1,4
1570179755141372,-2,0,-2,-1,-2,0,-1,1
1570179755157586,0,-1,0,0,-4,1,1,8
1570179755157586,-2,-2,-1,-1,0,-1,-2,-10
1570179755158972,-1,0,0,1,0,1,0,1
1570179755158972,-2,0,0,-1,1,0,-1,-1
1570179755180052,-3,-1,0,-1,-2,-3,-1,-6
1570179755180052,-1,-1,-1,-1,-1,0,-2,-2
1570179755182055,-3,-1,-1,0,1,0,0,-2
1570179755182055,0,-2,0,-1,1,-2,-1,-2
1570179755196015,1,-1,1,0,-1,-1,-2,-1
1570179755196015,-8,-2,-3,-2,-1,-3,-8,-22
1570179755200889,-3,-1,-1,-2,-2,-1,0,2
1570179755200889,-1,0,-1,-1,-1,-1,-1,-1
1570179755216916,-2,-2,0,1,1,1,0,0
1570179755216916,-1,-1,1,1,-3,0,0,2
1570179755218917,-3,-1,-1,-1,-2,-1,0,0
1570179755218917,0,-2,-2,0,-1,-2,0,-1
1570179755239863,-1,-2,-1,0,0,0,-2,-4
1570179755239863,0,-2,-2,0,2,1,0,-1
1570179755241822,-9,-2,0,-3,-2,1,-2,-11
1570179755241822,3,0,1,-2,-2,1,1,7
1570179755262465,0,-2,0,-1,1,-1,0,-1
1570179755262465,0,0,1,0,1,-2,1,4
1570179755264405,2,2,-1,1,-1,-1,1,-1
1570179755264405,0,0,-2,0,-2,0,0,-3
1570179755284950,-4,-2,-1,-1,-1,-2,-2,-9
1570179755284950,0,0,0,-2,0,0,0,0
1570179755286946,-6,-3,0,-1,1,1,11,-16
1570179755286946,3,0,-2,0,-1,-1,13,5
1570179755299965,1,0,0,1,-1,-2,0,4
1570179755299965,-1,0,0,0,-2,1,-1,4
1570179755302478,1,1,-3,-1,-1,-2,0,3
1570179755302478,-2,1,-1,-1,-2,0,-1,-4
1570179755313936,-1,-1,-1,-2,1,0,-1,-1
1570179755313936,3,1,1,-2,0,0,5,4
1570179755322363,-4,-2,0,-1,0,-2,-3,-1
1570179755322363,3,0,0,1,-1,-4,-7,-6
1570179755337821,2,-1,-1,0,-1,0,-2,8
1570179755337821,-2,0,0,-1,-1,0,-4,-8
1570179755338818,0,0,-2,0,-1,1,-4,1
1570179755338818,1,0,-1,-1,0,0,-2,7
1570179755359763,-3,1,-1,-2,-1,0,2,-5
1570179755359763,1,0,-1,0,-1,0,3,5
1570179755383314,-4,-1,0,0,2,-1,-3,-4
1570179755383314,7,-1,-2,0,0,1,-2,12
1570179755390294,-1,-1,-2,-1,0,0,0,3
1570179755390294,2,-1,-2,-1,1,-1,1,8
1570179755391292,3,1,1,-1,-2,-2,-3,2
1570179755391292,-5,0,1,1,0,0,-4,-9
1570179755397726,-1,-1,-1,-1,-1,-1,-3,-4
1570179755397726,1,-1,-3,0,-3,-1,0,9
1570179755399273,-2,-2,-2,-1,0,-1,-2,-2
1570179755399273,-3,-1,0,-1,1,-1,-2,-3
1570179755427196,-1,-2,-2,0,0,-1,0,4
1570179755427196,-5,-1,0,-1,-2,-2,0,-6
1570179755436171,3,0,-1,-1,0,1,2,3
1570179755436171,-5,0,-1,-1,0,-1,1,-3
1570179755436171,-1,1,1,-1,-2,-2,-1,-2
1570179755436171,1,0,-1,0,-1,-1,-2,-1
1570179755443588,3,0,-1,0,-3,-2,0,1
1570179755443588,-2,-3,-2,0,0,-1,0,5
1570179755457115,-6,0,1,1,0,0,-2,-17
1570179755457115,8,-1,0,-2,1,-1,3,14
1570179755459109,2,-3,-1,-1,0,3,1,18
1570179755459109,-2,-1,0,1,0,0,-1,-3
1570179755487104,0,-2,-1,-1,-1,0,0,-3
1570179755487104,-4,-1,0,0,-1,-2,-3,0
1570179755489029,1,1,-1,-1,-2,-2,-2,1
1570179755489029,1,-1,0,1,-3,-2,-2,4
1570179755493449,0,1,-2,-1,-1,0,-1,2
1570179755493449,-1,-1,-1,0,0,-1,-2,-8
1570179755501994,1,-1,0,0,2,0,0,2
1570179755501994,-3,1,0,-2,-1,-2,-1,-3
1570179755516953,-1,-1,-2,-2,-2,-1,3,-6
1570179755516953,-3,0,2,1,0,-2,-3,-6
1570179755519001,-2,0,0,-1,0,-1,-3,-6
1570179755519001,-2,0,-3,-1,1,1,-1,0
1570179755539893,2,-1,-1,-1,-1,0,5,10
1570179755539893,-9,-4,-2,-1,1,-1,-1,-9
1570179755540977,2,1,1,0,-2,-3,-14,11
1570179755540977,-1,1,1,0,-1,0,-1,2
1570179755561834,2,0,-2,-1,2,1,1,-5
1570179755561834,1,0,0,0,-1,2,-1,1
1570179755563874,-5,-2,-3,-3,-1,-1,0,-26
1570179755563874,0,-2,-1,-3,-2,0,3,-3
1570179755576795,2,0,-1,-1,-2,-2,-6,3
1570179755576795,-5,-2,0,0,0,1,1,-2
1570179755578788,-2,1,-1,0,-1,-1,1,1
1570179755578788,-1,0,-2,-2,-2,-1,-1,-6
1570179755600734,-3,0,0,1,-3,-2,-1,-1
1570179755600734,2,1,0,1,-1,0,-2,-3
1570179755601727,0,-2,0,1,1,-1,4,-2
1570179755601727,0,0,0,0,0,0,-3,-3
1570179755613698,1,-1,-1,1,0,-1,0,2
1570179755613698,3,-1,-1,-1,0,1,2,6
1570179755622672,-1,-2,1,-2,-1,2,2,-3
1570179755622672,2,0,-1,-1,-1,0,-1,-9
1570179755637634,0,-1,-1,0,-1,-1,-2,1
1570179755637634,0,1,-3,-1,-2,-2,1,-3
1570179755638629,0,0,-1,-2,0,0,2,1
1570179755638629,1,-1,-1,-2,-1,-2,0,4
1570179755667552,3,0,1,0,0,-1,-4,2
1570179755667552,-3,-2,-1,-1,-1,-3,-4,-9
1570179755674534,3,1,-1,1,0,0,4,10
1570179755674534,-6,-1,-1,-1,-2,0,-1,0
1570179755675053,4,1,-2,-1,-1,-1,-1,8
1570179755675053,2,0,-2,-2,0,-1,0,6
1570179755682513,-1,1,0,0,0,0,0,5
1570179755682513,1,0,2,1,1,0,-2,-4
1570179755697471,-5,-1,-1,-2,-1,-1,1,-5
1570179755697471,0,1,0,1,0,0,-1,0
1570179755711440,0,-2,-2,-1,-2,-1,0,1
1570179755711440,0,-2,-3,0,-1,-1,2,4
1570179755719413,-2,1,0,0,-2,-1,-2,-1
1570179755719413,0,-1,-2,-1,1,1,0,4
1570179755721478,-10,-2,-1,-2,-1,-1,-4,-23
1570179755721478,-4,-2,1,0,-2,-1,-2,-2
1570179755733499,-2,-2,-1,0,-1,1,-1,-5
1570179755733499,-4,0,0,0,-1,1,-1,-4
1570179755742352,3,0,0,0,-1,0,-2,3
1570179755742352,0,-1,-1,-1,-1,-1,-3,0
1570179755764518,-6,0,-2,0,-1,2,11,-19
1570179755764518,2,0,0,0,-1,-1,-5,-4
1570179755766822,5,2,1,2,-2,0,-5,10
1570179755766822,1,-3,-1,0,-1,-2,1,-2
1570179755780347,-1,-1,-1,0,-1,0,1,1
1570179755780347,-2,-2,-1,-1,0,0,6,-2
1570179755781247,1,0,-1,1,0,-2,1,-3
1570179755781247,0,1,0,-1,1,-1,-1,2
1570179755802311,-1,-2,-1,-1,-1,-1,-3,4
1570179755802311,1,-3,-1,-2,-3,0,0,4
1570179755804187,-3,1,2,0,-1,-3,-3,-6
1570179755804187,4,2,-2,1,0,0,5,18
1570179755817154,-4,-2,-1,1,-3,0,-2,-6
1570179755817154,0,-1,0,-1,-1,0,0,1
1570179755819149,-1,-2,-1,-1,0,0,3,1
1570179755819149,-5,0,-2,-2,-1,0,-2,-10
1570179755840090,-1,0,-2,-1,1,-1,0,2
1570179755840090,1,1,1,1,0,-2,-3,-1
1570179755841091,-1,-2,-3,1,2,1,3,0
1570179755841091,4,1,0,1,-1,2,-4,2
1570179755878988,4,0,0,1,1,-1,2,27
1570179755878988,-3,-2,-3,-2,-1,0,4,-10
1570179755880983,4,0,-1,0,0,-1,-10,11
1570179755880983,2,1,1,-1,0,1,2,10
1570179755881979,-1,-1,0,1,0,-1,-1,-3
1570179755881979,-1,-1,-2,0,-1,1,2,1
1570179755884971,-1,0,0,-1,-1,0,4,-2
1570179755884971,-7,-5,-1,-3,-1,1,1,-19
1570179755899933,-3,-2,-1,0,1,-3,-10,-4
1570179755899933,5,1,0,1,-1,-1,-2,13
1570179755901303,-3,0,-3,-1,-1,0,-1,-4
1570179755901303,-1,0,-1,-1,-1,-3,-3,0
1570179755929854,-1,0,-1,-1,0,0,2,-5
1570179755929854,-2,1,0,-2,-1,-1,-1,0
1570179755931845,0,-2,-1,-1,-2,1,1,-7
1570179755931845,1,-2,-1,1,-1,-1,0,-6
1570179755936834,0,-1,-1,-1,-1,0,-3,-2
1570179755936834,-2,-2,-2,-1,-1,0,2,-6
1570179755944012,4,-1,1,0,-1,-1,-2,10
1570179755944012,-7,-1,1,-1,1,-1,-1,-2
1570179755959770,0,-1,-1,-1,0,-1,-1,-2
1570179755959770,-2,0,-2,-1,0,-1,0,0
1570179755961769,-1,-1,-3,-1,-1,0,2,-2
1570179755961769,1,1,0,0,-2,-2,-3,0
1570179755989690,-1,-1,-1,-2,-1,-1,-3,0
1570179755989690,-3,0,0,-2,0,-1,-2,-5
1570179755991685,-3,1,2,0,-1,0,2,12
1570179755991685,1,2,-1,0,1,-1,1,-4
1570179755996672,7,-2,0,-2,0,0,2,24
1570179755996672,2,1,0,1,-1,-1,-2,8
1570179756003656,-1,-3,-3,-1,-1,-1,0,-6
1570179756003656,0,-1,-1,1,-1,-1,-3,6
1570179756019750,-3,-1,-2,-2,-1,-2,2,-5
1570179756019750,-2,-1,-1,-2,-1,0,-3,-4
1570179756021825,1,-1,1,-1,2,0,0,2
1570179756021825,-6,-2,-2,-1,0,2,3,-6
1570179756042553,-1,0,1,1,1,1,-2,-7
1570179756042553,-3,0,0,-1,-1,-2,-1,4
1570179756043548,-4,0,-1,1,0,-3,-4,-17
1570179756043548,1,-3,-2,-1,0,-1,-1,4
1570179756056515,5,1,0,2,-2,0,-4,1
1570179756056515,0,-4,-1,-1,0,-2,-4,-9
1570179756063493,1,-2,-1,-2,-1,0,1,2
1570179756063493,0,0,-2,-1,-1,-2,-1,-4
1570179756079456,-1,0,0,-1,0,0,-1,-2
1570179756079456,-3,-2,-2,1,-1,0,7,-14
1570179756081446,3,3,2,2,0,-4,-13,12
1570179756081446,-2,1,0,0,-1,-1,-5,-19
1570179756102504,0,0,0,-2,0,-1,2,1
1570179756102504,-1,-2,-1,0,-1,0,2,0
1570179756104384,-3,-2,-3,-2,-1,3,6,1
1570179756104384,-1,-2,-2,0,0,0,1,5
1570179756116619,-4,1,1,1,0,-2,-4,-4
1570179756116619,2,0,-1,1,-1,1,-2,2
1570179756123333,0,1,-1,0,-1,0,2,-4
1570179756123333,2,0,0,-1,0,0,0,6
1570179756139293,-7,-2,-3,0,-3,0,0,-12
1570179756139293,6,0,0,0,0,-1,4,33
1570179756155249,-5,-1,-1,-1,-1,-3,0,-10
1570179756155249,-1,0,-1,-1,1,-2,1,1
1570179756162230,1,2,-1,-1,0,-1,1,5
1570179756162230,0,0,0,0,0,1,-3,-6
1570179756164224,3,-1,-3,-1,-1,-1,0,-1
1570179756164224,-2,-1,-1,-2,-1,0,3,-9
1570179756177194,-1,0,-2,0,0,-1,-6,0
1570179756177194,1,1,-1,0,-1,-4,-11,5
1570179756183177,3,-3,-1,-2,0,-1,1,2
1570179756183177,-7,-1,-2,-1,-1,1,4,-6
1570179756207112,-2,-2,0,-2,-3,0,4,-9
1570179756207112,-3,-3,-1,-1,-3,1,0,-4
1570179756209276,-1,-2,1,-2,1,-1,0,-1
1570179756209276,1,-1,0,-1,-1,0,-2,8
1570179756222073,3,1,0,1,-1,0,0,10
1570179756222073,-4,0,1,-1,-1,0,-1,-7
1570179756224064,-2,0,-1,0,-1,0,0,-4
1570179756224064,4,-1,-1,0,0,-1,2,19
1570179756237035,-4,0,-2,-1,1,-1,-3,-13
1570179756237035,-1,-1,0,-1,-1,0,2,-5
1570179756244010,-2,-1,-1,-2,-1,1,1,0
1570179756244010,2,1,-1,-1,0,-2,-3,-6
1570179756259969,-1,-1,-2,-2,0,1,-1,0
1570179756259969,-4,-2,-1,-1,0,-2,-4,-14
1570179756261028,2,-3,-1,-1,-1,-1,1,2
1570179756261028,-1,1,-1,-1,-1,1,3,2
1570179756282907,1,-1,0,-1,-1,-2,3,3
1570179756282907,-1,1,0,0,-1,0,1,-1
1570179756283904,1,-1,0,1,-1,-1,-6,4
1570179756283904,-4,-1,-1,0,-2,0,-2,-4
1570179756295874,6,1,-1,1,-1,2,4,16
1570179756295874,-7,-1,-2,-1,0,-1,-2,-6
1570179756304851,-7,-2,-2,-2,-1,0,-2,-20
1570179756304851,3,0,0,-2,0,0,-3,4
1570179756320923,-4,-2,0,0,-1,0,-3,-8
1570179756320923,-1,-1,-2,-1,0,0,6,-7
1570179756321805,1,2,-1,1,0,-1,-8,12
1570179756321805,-2,-1,-1,-1,-1,-3,-3,-8
1570179756343011,4,1,-1,-2,-1,-2,0,3
1570179756343011,-2,0,0,-1,-1,-1,1,-3
1570179756344355,2,0,-1,1,0,-2,3,-2
1570179756344355,-2,-1,-2,-2,-1,-1,-2,-13
1570179756355917,2,-3,-1,-2,-1,-2,-1,12
1570179756355917,3,-1,-1,-1,0,2,0,8
1570179756364690,0,-1,1,-1,0,1,1,5
1570179756364690,-3,-2,1,-1,-1,-4,-7,-14
1570179756380100,-2,-1,0,0,-2,-1,3,-2
1570179756380100,-1,-1,1,0,-2,-2,-3,-1
1570179756381643,-4,-2,-3,-2,-2,-1,5,-8
1570179756381643,8,1,-1,2,-1,-1,-13,19
1570179756402589,-2,-3,-3,-1,0,-1,-3,-14
1570179756402589,0,0,0,1,0,0,-2,-1
1570179756403589,-1,1,0,0,-1,0,0,-1
1570179756403589,-1,-1,0,-1,-1,2,6,6
1570179756432693,-2,-1,1,0,0,-1,-1,-3
1570179756432693,2,2,-1,-1,-1,0,-3,8
1570179756433506,0,0,-2,-1,0,-1,2,0
1570179756433506,-8,-2,0,0,0,-1,1,-10
1570179756439489,-2,0,0,1,-2,-2,-2,-4
1570179756439489,2,0,-1,-1,-2,0,2,2
1570179756441485,-3,0,-2,-1,0,-1,0,0
1570179756441485,6,0,0,0,0,-1,1,10
1570179756462434,-3,1,0,0,1,1,-3,-3
1570179756462434,-5,-1,-1,2,-1,-1,0,1
1570179756463425,1,-1,-1,1,0,0,-2,-2
1570179756463425,-2,-2,0,0,0,2,0,-1
1570179756484372,-4,-3,-1,-3,-2,1,8,-11
1570179756484372,2,-1,-2,-3,-1,-1,-5,10
1570179756486363,-1,-2,-1,-2,-2,-1,1,-1
1570179756486363,-3,0,-1,-1,1,0,4,-9
1570179756499357,0,-1,-2,-1,1,-1,1,2
1570179756499357,0,-1,-1,-2,0,-1,2,-3
1570179756501323,-1,-1,-1,0,-1,-1,-1,1
1570179756501323,-2,-1,-1,1,-1,0,-2,0
1570179756522625,0,-1,0,-1,-2,0,-2,1
1570179756522625,2,0,-2,-1,0,0,0,10
1570179756524270,-1,-2,-2,-2,-2,-2,-5,-16
1570179756524270,1,0,0,-1,-1,0,-2,0
1570179756536231,2,-1,-1,-1,1,1,-1,1
1570179756536231,-2,-2,-1,-1,0,-2,0,1
1570179756545208,-1,0,0,1,-1,0,1,-1
1570179756545208,1,-1,-1,0,-3,-3,1,6
1570179756560232,-2,2,0,1,0,-4,-18,10
1570179756560232,1,1,-1,-1,0,-2,-4,-5
1570179756561163,0,0,1,-2,0,1,2,7
1570179756561163,-1,1,-1,-1,1,0,-1,-2
1570179756583103,0,-1,0,-2,-1,1,4,3
1570179756583103,-2,0,0,-2,-1,0,2,-5
1570179756584103,-2,0,0,0,-1,0,0,2
1570179756584103,-1,-1,-1,0,-1,-1,-5,-13
1570179756596070,1,0,0,0,1,0,5,4
1570179756596070,-4,-3,-1,-1,0,1,-2,-14
1570179756605045,-1,-2,-1,-2,-1,0,1,-4
1570179756605045,1,-1,0,0,0,-1,0,7
1570179756620005,-2,-1,0,0,-1,-1,-1,-2
1570179756620005,2,0,0,1,-1,-1,-1,3
1570179756621005,0,0,-1,-2,0,2,1,2
1570179756621005,-2,-2,-2,0,-1,-1,0,-2
1570179756641947,5,0,-1,-1,0,-2,-3,4
1570179756641947,-6,-2,0,0,0,1,11,-15
1570179756649926,2,-1,-1,0,-1,-2,-7,4
1570179756649926,0,-2,-1,0,-1,0,3,11
1570179756656053,0,0,-2,-2,0,1,2,0
1570179756656053,-1,-2,-1,-1,-3,-1,-3,-9
1570179756664885,-1,0,1,1,1,-1,2,4
1570179756664885,-2,-1,1,-1,0,0,-1,-11
1570179756679980,-5,-2,-3,-1,-1,1,1,-3
1570179756679980,3,-1,-1,1,0,0,-4,3
1570179756681842,3,-1,-1,1,-1,0,-3,10
1570179756681842,-2,0,-1,-1,0,-1,-4,-3
1570179756702784,0,-1,0,-2,0,1,4,-1
1570179756702784,0,0,-1,0,0,3,2,7
1570179756703783,-7,-1,-1,-2,0,-1,-2,-10
1570179756703783,2,0,-1,0,-2,0,2,3
1570179756724761,5,-2,0,1,-1,-2,-2,4
1570179756724761,5,-1,0,0,0,0,0,18
1570179756726722,-4,-1,-1,-2,0,-2,11,-24
1570179756726722,-4,-1,-1,-3,0,0,-4,-2
1570179756739686,-6,-3,-2,-3,-2,-2,-3,-28
1570179756739686,9,2,2,1,-1,-2,-6,17
1570179756741681,-1,-1,0,-1,-2,-1,2,1
1570179756741681,0,0,0,-1,-1,0,2,5
1570179756762625,-5,-1,0,-1,1,0,-1,-9
1570179756762625,-1,-1,-2,-1,0,-1,0,-2
1570179756763622,2,-1,-1,0,0,1,-3,4
1570179756763622,6,0,-2,1,-1,-1,0,7
1570179756784566,-3,0,-1,1,-1,0,-1,3
1570179756784566,-4,0,0,1,-2,-2,-1,-9
1570179756786560,0,0,-1,1,1,-1,-2,6
1570179756786560,1,0,-1,0,0,1,-3,6
1570179756799524,-1,-1,0,-1,0,0,2,-1
1570179756799524,-1,0,-1,-1,1,-1,0,3
1570179756801519,2,-2,0,0,-1,0,-1,-4
1570179756801519,7,0,1,0,0,-2,-14,3
1570179756822465,0,0,-1,-1,1,1,3,9
1570179756822465,-2,0,-1,0,-3,0,-2,-5
1570179756823462,-2,-1,-1,-1,-2,-1,-2,0
1570179756823462,-2,0,-1,-1,-1,-1,4,-4
1570179756844408,3,1,-2,-2,-3,0,0,8
1570179756844408,-3,1,1,0,-1,-3,-2,-1
1570179756846403,0,-2,0,-1,-1,-2,1,5
1570179756846403,2,0,0,-2,-1,0,4,6
1570179756859372,-1,2,-1,-3,0,-2,-2,0
1570179756859372,3,-2,-2,-3,-1,0,2,3
1570179756866347,-3,-1,0,0,-1,-2,-2,-4
1570179756866347,-4,-1,-1,0,0,0,-1,-4
1570179756882303,1,-1,0,0,0,0,-2,1
1570179756882303,0,0,-2,-1,1,-2,-1,-1
1570179756883303,-1,-2,-3,0,-1,1,-2,1
1570179756883303,2,-4,-1,-1,-1,1,3,3
1570179756905243,-9,-2,-1,3,0,-2,-3,-8
1570179756905243,-1,0,1,0,-1,-1,-4,-5
1570179756906239,1,0,0,-2,0,0,0,3
1570179756906239,-3,-2,-1,-1,-2,-2,0,-9
1570179756919206,2,1,-1,0,-2,0,2,9
1570179756919206,-8,-4,-1,-2,-1,-1,9,-17
1570179756926192,-1,2,-1,0,0,-1,-7,3
1570179756926192,-4,-2,0,-1,-1,-1,2,-1
1570179756950121,2,-3,0,-1,-1,-2,-2,-9
1570179756950121,-1,-1,-2,0,1,1,0,-4
1570179756951277,-3,1,-1,-1,0,1,1,-4
1570179756951277,-2,-1,-1,-1,-2,1,3,11
1570179756965278,-1,1,0,1,-2,-2,-2,-1
1570179756965278,3,-1,-1,-1,0,-1,0,7
1570179756966618,2,-3,-1,0,1,-2,-2,0
1570179756966618,-4,1,1,-1,0,0,-4,-10
1570179756979080,3,0,-1,0,1,1,0,1
1570179756979080,-2,0,-3,-1,-2,0,-1,-1
1570179756986026,1,0,2,0,-1,-1,3,14
1570179756986026,-2,-1,-1,-2,0,-2,2,-6
1570179757002198,-5,-3,0,-1,1,-1,7,-21
1570179757002198,1,1,1,1,1,-1,-10,11
1570179757003978,0,1,-2,-1,-1,1,-2,0
1570179757003978,0,-2,-1,-1,0,-3,-1,-2
1570179757024922,1,-1,-1,-3,0,-2,0,4
1570179757024922,1,-1,-1,-2,0,0,1,0
1570179757025920,-8,-2,0,0,-2,0,1,-15
1570179757025920,4,1,0,0,0,0,-6,7
1570179757038994,-1,0,0,-1,-2,-2,-4,1
1570179757038994,-2,-1,-1,0,0,-1,1,-2
1570179757047861,2,0,-1,-1,0,-2,0,-1
1570179757047861,0,-2,-1,-2,0,1,6,6
1570179757062821,1,-2,-2,1,0,3,0,26
1570179757062821,-2,0,-2,0,-1,-1,-2,-4
1570179757063819,3,0,-1,0,-1,1,3,5
1570179757063819,-1,-2,-1,-1,1,-1,-3,0
1570179757084770,-3,-4,-3,-2,-1,-2,1,-5
1570179757084770,-2,-2,1,0,-2,0,-2,-3
1570179757086968,2,0,-1,-2,0,-1,-1,0
1570179757086968,-2,0,-1,0,-3,0,2,-8
1570179757099724,0,-1,0,1,-1,1,-4,0
1570179757099724,1,-1,-3,0,1,2,3,3
1570179757105712,-3,-1,0,-1,-1,0,-4,-12
1570179757105712,0,2,1,1,-1,0,3,12
1570179757122876,-1,1,0,-2,0,-2,-2,-6
1570179757122876,0,-1,-1,-1,-1,-2,-4,1
1570179757123665,0,0,-2,-1,1,0,0,4
1570179757123665,-5,-1,-1,-1,-1,-1,-1,-5
1570179757143615,1,0,-1,0,-1,0,-2,-2
1570179757143615,-2,-2,0,-1,-1,0,4,16
1570179757152710,1,-3,0,-2,-2,-1,1,3
1570179757152710,1,-1,-1,-1,-1,0,-11,4
1570179757159564,-1,-2,-2,-2,0,-1,0,1
1570179757159564,0,0,-1,0,-2,-2,-2,-8
1570179757165550,1,-1,-2,2,0,0,-2,2
1570179757165550,0,-2,1,0,0,-1,2,-1
1570179757182503,-1,1,0,1,-2,0,-2,-7
1570179757182503,2,0,0,-1,-1,-1,-4,-2
1570179757188486,-1,1,0,-2,-1,-2,0,-2
1570179757188486,-4,-5,-2,0,-1,-1,4,-10
1570179757205445,2,2,1,0,-1,-1,-7,1
1570179757205445,-1,-1,-1,-1,0,0,2,-4
1570179757207435,-1,0,2,0,-1,-2,-4,-1
1570179757207435,0,0,-1,0,-1,-2,-3,-14
1570179757218412,1,-1,2,1,-1,0,-2,0
1570179757218412,0,0,-1,-2,1,-2,-1,9
1570179757227382,0,0,-3,0,0,-1,0,-1
1570179757227382,-3,-1,-3,-1,0,-1,-1,-5
1570179757266278,0,-1,-2,-1,1,-2,-1,7
1570179757266278,-3,0,1,0,-1,0,0,-5
1570179757268273,-4,-1,-2,-2,0,0,-1,-17
1570179757268273,6,-1,-2,-1,-1,0,2,15
1570179757269272,0,-1,-1,-2,-1,-1,2,-5
1570179757269272,0,0,-2,-1,-1,-1,-2,-4
1570179757272360,1,-2,-1,0,0,-2,-2,6
1570179757272360,-3,1,1,1,0,0,-2,-10
1570179757278245,0,-2,1,-1,1,0,0,3
1570179757278245,-1,-2,-1,-1,0,0,0,-3
1570179757287223,-3,-1,0,0,1,0,0,-3
1570179757287223,3,2,0,-1,1,-1,0,6
1570179757302207,-3,0,-2,1,-1,0,0,-2
1570179757302207,-5,-1,-2,0,1,-3,-7,-34
1570179757304178,2,0,0,-2,0,2,0,12
1570179757304178,-5,0,2,0,-1,-1,-2,-5
1570179757325120,12,-1,-1,-3,0,-3,-10,27
1570179757325120,0,1,1,-2,0,0,0,3
1570179757326118,0,-1,-2,-1,-1,-1,2,-3
1570179757326118,2,-1,-2,-2,-1,0,-1,0
1570179757338084,-5,-3,-2,-2,0,1,3,-6
1570179757338084,0,-2,0,1,-1,0,1,4
1570179757347382,2,-2,-1,-1,-1,-1,-2,5
1570179757347382,0,0,-1,1,0,0,1,2
1570179757369998,-4,1,-1,0,-1,-1,3,-7
1570179757369998,1,-1,-1,0,0,-1,1,4
1570179757371000,2,0,0,1,0,0,2,1
1570179757371000,-1,-2,-1,-2,0,1,-1,-5
1570179757384959,-2,0,-2,0,-2,2,3,5
1570179757384959,-1,-1,-1,-2,-2,-1,-1,0
1570179757386086,0,-2,0,0,-2,-1,0,1
1570179757386086,-5,-1,0,-2,-2,-2,-3,-1
1570179757398076,-4,-3,-1,0,0,0,-4,-15
1570179757398076,3,-1,-2,1,-1,1,4,11
1570179757414880,0,1,0,-1,-1,0,4,4
1570179757414880,-6,-3,-2,-3,0,1,10,-9
1570179757422860,2,3,2,1,1,2,2,2
1570179757422860,0,-1,1,0,-1,-1,-3,11
1570179757424090,-2,0,-1,0,0,-2,-2,-9
1570179757424090,2,-1,-2,1,-2,-1,2,0
1570179757445029,-1,-1,-1,0,-1,-1,0,-4
1570179757445029,0,-1,0,-2,-1,0,2,-5
1570179757446795,-1,0,0,-1,0,0,-3,5
1570179757446795,-2,0,-2,-1,-1,-2,-7,-19
1570179757458766,-1,-3,-1,0,-2,-2,0,2
1570179757458766,2,0,1,-1,0,-1,-2,3
1570179757467740,-4,0,-1,-2,-1,-1,-1,-3
1570179757467740,0,1,1,1,1,-1,-4,6
1570179757482701,-1,-1,-1,-1,-2,-2,-1,-7
1570179757482701,-7,-4,-1,-2,-3,2,13,-21
1570179757483782,-1,-1,-1,0,0,-2,-6,0
1570179757483782,-3,-1,0,1,0,0,-1,-2
1570179757504642,0,-2,0,3,-2,-1,0,-2
1570179757504642,1,-1,-2,-1,0,-1,1,6
1570179757506648,0,0,0,-1,-1,0,-3,-1
1570179757506648,-1,-1,0,-1,-1,0,-1,0
1570179757518606,1,1,-1,-2,-1,-2,2,-2
1570179757518606,4,2,-2,1,-1,-3,-3,10
1570179757544534,-1,-1,-1,-4,-2,-1,-1,-13
1570179757544534,0,0,0,0,-1,-1,-4,-10
1570179757545757,0,0,0,-2,1,1,1,10
1570179757545757,-7,-2,0,-2,0,1,5,-7
1570179757548667,0,0,-1,2,0,0,2,6
1570179757548667,0,0,-3,-2,-1,0,1,3
1570179757565233,-2,-3,-1,-1,0,-1,-2,-2
1570179757565233,-2,-3,-3,-1,0,-1,-3,-1
1570179757566477,-7,-3,-1,-1,-2,0,10,-21
1570179757566477,1,1,1,-1,-1,0,-3,3
1570179757578745,0,0,-1,-2,-1,-1,0,0
1570179757578745,1,1,-1,-2,0,-1,-6,5
1570179757593409,0,-1,-1,-1,-1,0,-1,0
1570179757593409,1,-2,0,0,-2,-1,2,5
1570179757602682,-1,0,0,-1,-3,-3,-1,-2
1570179757602682,-3,-1,1,1,0,-2,0,-5
1570179757604375,0,-1,0,0,-2,-1,-4,-7
1570179757604375,3,1,0,0,1,0,5,18
1570179757625321,-1,-3,-1,-2,0,1,-1,-8
1570179757625321,4,0,-1,0,-2,-3,-8,5
1570179757626385,-1,0,-2,-1,-2,-1,-4,1
1570179757626385,3,-1,-1,-1,1,0,-2,9
1570179757655382,-6,-2,-1,-2,0,-1,0,-9
1570179757655382,2,-2,1,0,0,0,0,3
1570179757657028,3,-1,-1,-2,-2,0,0,7
1570179757657028,-6,-2,-2,-2,0,-1,9,-21
1570179757662620,1,1,0,2,-1,-1,-2,5
1570179757662620,0,-1,-1,0,-2,-1,-1,-2
1570179757664215,-4,0,-2,-1,2,-1,-3,1
1570179757664215,-3,0,-1,-2,-1,-1,-1,-2
1570179757685157,-1,2,-1,0,-1,1,-1,-4
1570179757685157,-3,0,0,-2,-1,2,-2,-4
1570179757686160,1,0,0,2,0,1,5,18
1570179757686160,3,0,0,-2,-2,-1,-3,4
1570179757707701,-4,0,0,-1,-1,-1,-2,-1
1570179757707701,-1,0,0,0,-1,0,2,-5
1570179757709100,4,0,1,-1,1,-2,-7,8
1570179757709100,-2,-1,-2,-1,-2,-2,-3,-3
1570179757722058,-1,0,-1,-1,0,-1,0,3
1570179757722058,0,1,-2,-1,0,-1,1,5
1570179757724055,0,0,-1,0,-1,-2,0,-6
1570179757724055,2,0,0,1,0,-2,-2,2
1570179757744997,0,-3,-2,-1,-1,0,8,-7
1570179757744997,-2,0,1,0,-1,-1,-4,-2
1570179757745998,-2,-4,-2,-1,-3,-1,-3,-21
1570179757745998,-1,-2,0,-1,-1,0,-3,4
1570179757766938,0,0,-1,0,-3,0,2,15
1570179757766938,1,-2,-1,-1,0,-3,-4,-6
1570179757769158,2,0,-2,-2,0,-1,1,2
1570179757769158,-2,-1,-1,-3,-1,-2,2,-2
1570179757781904,4,1,0,0,1,-1,-4,6
1570179757781904,-4,-1,-2,0,0,0,-1,-1
1570179757788882,2,1,0,0,0,-2,-2,3
1570179757788882,-1,-1,0,0,-1,-2,-3,-7
1570179757803850,-11,0,-1,0,0,0,-3,-17
1570179757803850,5,0,0,-3,-1,0,0,10
1570179757819964,-4,0,0,-1,-1,0,2,-2
1570179757819964,1,4,1,1,1,-2,-6,5
1570179757827776,0,-2,-1,0,0,1,2,-4
1570179757827776,-2,-2,-2,-2,0,1,2,-1
1570179757828778,-3,0,0,0,-2,-4,-1,0
1570179757828778,-1,0,0,-1,0,-2,-2,-7
1570179757841739,0,-1,0,1,-1,1,9,7
1570179757841739,4,-1,-1,0,-1,-1,-3,9
1570179757848720,-2,-2,0,-1,-2,-1,-3,-5
1570179757848720,1,-3,-2,-1,-1,1,3,7
1570179757872656,-1,2,0,-1,-1,-2,-5,-5
1570179757872656,1,0,-1,-2,0,-1,0,-3
1570179757873739,2,0,-2,-1,1,1,1,9
1570179757873739,2,-1,0,0,0,0,0,2
1570179757894600,3,-2,-2,-3,-1,-1,-3,3
1570179757894600,0,0,0,2,-1,1,1,1
1570179757896679,-2,-2,-1,-2,-2,-1,-6,-7
1570179757896679,-3,0,-1,-1,0,1,0,-3
1570179757901580,2,-2,-1,0,-1,-1,-3,1
1570179757901580,0,0,0,-2,-1,-1,1,-7
1570179757908562,-1,0,0,1,1,0,1,-3
1570179757908562,0,-2,0,-1,-2,0,2,1
1570179757925570,0,-2,0,1,1,-2,-2,-1
1570179757925570,-5,-2,-2,1,0,-1,-1,-11
1570179757926512,8,1,1,0,1,0,-12,26
1570179757926512,-1,-1,-3,0,-1,0,-2,4
1570179757947458,-2,1,-1,-2,-1,0,-4,0
1570179757947458,-2,0,0,0,0,0,-2,-5
1570179757949453,-2,0,0,0,0,1,4,-4
1570179757949453,0,2,2,1,1,-2,-2,-2
1570179757961514,0,-2,0,-2,-1,-3,-5,4
1570179757961514,-2,0,1,0,1,0,0,0
1570179757968405,-1,-1,-2,0,-1,1,3,0
1570179757968405,-2,-2,-3,0,0,-1,1,0
1570179757984362,1,-1,-2,-1,0,-1,1,-6
1570179757984362,1,0,-3,-2,-2,1,-1,3
1570179757986353,-8,0,1,0,0,-2,0,-10
1570179757986353,0,1,-1,1,-1,0,2,4
1570179758007300,1,0,-1,-1,-2,0,-2,-8
1570179758007300,-1,-2,-1,-1,-1,-1,-1,0
1570179758009297,2,-2,-2,-1,-1,0,3,5
1570179758009297,-10,-5,-2,-3,-1,0,13,-27
1570179758021838,6,3,0,2,2,0,-5,29
1570179758021838,-2,-1,-1,0,0,0,1,0
1570179758028263,0,-1,0,-1,-1,0,2,-4
1570179758028263,-3,-1,-2,0,-2,0,-1,-5
1570179758045198,-1,-2,0,-1,-1,0,-1,-6
1570179758045198,0,-2,-1,-2,-3,-2,-2,1
1570179758046197,-2,0,-2,-1,0,-1,1,0
1570179758046197,3,-1,0,0,-2,-3,-8,5
1570179758067140,-4,0,-1,-1,-1,-2,0,2
1570179758067140,4,-1,-1,0,-1,-1,-2,5
1570179758069135,-1,-1,-1,-2,-2,2,1,-6
1570179758069135,2,1,-2,-2,-1,1,-4,3
1570179758082098,0,-1,1,-1,-2,0,2,-5
1570179758082098,2,0,0,0,-1,-1,2,-1
1570179758088411,-3,-2,0,0,-1,-3,0,-10
1570179758088411,0,2,2,-1,-1,0,2,-5
1570179758105067,3,0,-2,-1,1,-2,-14,8
1570179758105067,-3,-1,0,0,0,-1,-2,0
1570179758106034,-3,-2,-3,0,-1,-1,-2,-4
1570179758106034,-1,-2,0,-2,1,0,-2,-2
1570179758127331,-5,-2,0,-1,-2,0,4,-14
1570179758127331,1,1,0,0,1,-1,0,4
1570179758128973,3,-1,1,-1,0,-1,-2,5
1570179758128973,-2,1,-1,1,-1,-2,-2,3
1570179758149957,-1,-1,0,-1,-2,2,2,-1
1570179758149957,-8,-3,-1,1,-1,-2,1,-7
1570179758152201,0,-2,0,-1,1,0,0,2
1570179758152201,5,0,-3,-3,-1,-2,-1,10
1570179758164874,-9,-1,0,-2,-1,0,-1,-17
1570179758164874,-1,1,0,-1,1,1,3,9
1570179758166870,-3,-3,-3,-1,-1,-1,-5,0
1570179758166870,3,2,2,1,-1,0,-1,4
1570179758187815,-1,-1,-1,0,0,0,4,1
1570179758187815,-2,-2,0,-1,-1,-1,-2,-5
1570179758188812,-2,-1,0,-2,-1,-1,2,-6
1570179758188812,-1,-1,-3,-1,-1,-1,-2,3
1570179758209790,2,1,1,2,-1,-1,-1,-2
1570179758209790,-1,-2,-3,-1,-2,-2,0,-4
1570179758211751,0,0,0,-1,-1,0,-1,2
1570179758211751,-3,-2,0,0,0,0,1,-4
1570179758224714,0,-1,-1,-2,1,1,4,2
1570179758224714,0,0,0,-1,0,-1,-7,-3
1570179758227094,1,0,-1,0,-1,-2,0,0
1570179758227094,3,-1,0,-1,-1,0,1,19
1570179758246655,1,0,-2,-1,1,0,0,4
1570179758246655,0,0,1,1,1,-1,-1,0
1570179758254994,-2,-2,-3,-2,-1,2,14,-10
1570179758254994,-1,0,-4,0,0,-2,-5,-6
1570179758260753,-2,-2,-2,0,-2,-3,0,2
1570179758260753,-2,-1,-2,-2,0,-1,2,-4
1570179758270195,1,0,0,-1,-1,-1,2,3
1570179758270195,-3,0,0,0,-1,0,-2,-6
1570179758284928,0,0,-2,-1,-1,0,1,8
1570179758284928,1,1,-1,0,0,-1,-2,-2
1570179758286761,-1,-2,1,0,-1,-1,-6,-1
1570179758286761,-1,-2,0,-1,-2,-1,-3,-13
1570179758307604,-2,0,-1,1,0,-1,-4,-4
1570179758307604,-1,1,-1,-1,-1,2,1,-1
1570179758308590,1,0,-1,-2,0,0,-2,4
1570179758308590,4,1,2,2,0,0,-8,11
1570179758321301,0,-2,-1,-1,-1,-2,2,-4
1570179758321301,-1,-1,0,-1,0,2,2,1
1570179758336243,-1,0,-1,1,0,0,-2,3
1570179758336243,-1,0,0,-2,-1,0,-2,1
1570179758345200,1,-2,0,0,0,-2,0,-2
1570179758345200,1,1,0,1,0,-2,0,18
1570179758346462,-1,2,0,1,0,0,-8,7
1570179758346462,2,0,1,1,-1,0,6,12
1570179758374818,-7,0,0,0,0,0,-2,-7
1570179758374818,-1,-2,-3,-1,0,-1,-2,-3
1570179758376818,-2,-1,-1,-1,-1,0,2,-5
1570179758376818,-6,-1,-1,-1,-3,0,-1,-10
1570179758380894,4,1,-1,-1,-2,-1,-1,9
1570179758380894,0,-1,0,-2,-3,-2,0,-19
1570179758390406,-1,-1,-1,-1,0,0,-1,-4
1570179758390406,1,-3,-2,-1,1,0,1,-2
1570179758404969,1,-1,-1,0,-1,0,-2,0
1570179758404969,-3,-1,0,1,-2,-2,-2,-2
1570179758406069,0,-1,1,-1,-3,-3,0,2
1570179758406069,-4,-1,-2,-1,0,-1,-1,-8
1570179758428115,-1,-2,0,-2,0,-1,1,-4
1570179758428115,-3,-1,0,0,-2,-1,3,-4
1570179758429139,4,0,-1,0,1,2,2,12
1570179758429139,2,-1,-2,0,0,0,4,3
1570179758441143,-2,-2,-1,-2,-1,-1,0,2
1570179758441143,-4,-1,0,-2,-1,0,-4,-7
1570179758450191,-2,-2,0,1,-1,-2,5,-4
1570179758450191,6,3,1,2,2,0,-4,15
1570179758464958,0,0,-2,-2,0,0,3,1
1570179758464958,-5,-1,-2,-1,-1,1,-4,-3
1570179758466441,4,1,-1,-2,0,-2,-2,3
1570179758466441,-3,-1,-2,-1,-4,-2,1,-4
1570179758487202,0,-1,0,0,-2,-2,-2,-5
1570179758487202,3,0,-1,-1,1,1,2,3
1570179758489056,-1,-1,0,0,0,-3,-4,-4
1570179758489056,-4,-3,0,-1,-2,0,2,-10
1570179758501548,0,-1,0,0,0,0,-3,0
1570179758501548,2,0,0,1,-2,-2,3,2
1570179758510525,0,1,-2,-1,-1,0,-3,3
1570179758510525,-5,-2,0,-2,0,-1,-6,-18
1570179758525130,-1,0,0,1,-1,2,5,5
1570179758525130,0,0,-1,0,0,0,-1,1
1570179758526260,-3,-1,1,1,0,0,-2,-4
1570179758526260,1,-1,-1,-1,1,0,1,0
1570179758547391,-2,1,-1,0,0,-2,-1,-3
1570179758547391,2,0,-1,-1,1,-1,-2,4
1570179758549182,-1,-2,-1,-3,-2,0,-1,-1
1570179758549182,-3,0,0,-1,-2,0,0,1
1570179758561355,0,-2,0,0,0,-2,-1,1
1570179758561355,1,0,-1,-2,-2,-3,-3,-6
1570179758570335,3,1,-2,-1,-2,-1,1,1
1570179758570335,-4,-2,-3,0,-1,1,1,6
1570179758584046,1,-2,-3,-1,-1,-3,0,1
1570179758584046,2,-1,1,1,-1,-1,1,3
1570179758592022,-3,0,0,2,0,0,-2,-7
1570179758592022,-1,-1,0,-1,0,0,0,-9
1570179758615076,3,-1,-2,-2,-1,1,0,10
1570179758615076,3,-3,-1,-5,-1,1,1,7
1570179758616535,-4,-3,-1,-2,-3,-3,2,-6
1570179758616535,7,1,3,1,-2,-2,-2,4
1570179758630455,-9,0,1,1,-2,0,3,-22
1570179758630455,2,0,0,1,1,0,2,8
1570179758631516,-3,2,1,0,4,2,-2,4
1570179758631516,2,-2,-1,-1,0,-1,-1,11
1570179758644573,-2,-4,-3,1,-2,-2,-5,-2
1570179758644573,-3,-3,-5,-2,-1,2,5,-6
1570179758651483,-1,-3,-1,-2,-4,-1,-1,0
1570179758651483,-4,0,-2,-2,-6,-4,-15,-10
1570179758667444,-13,3,3,1,4,2,18,4
1570179758667444,-1,2,6,2,2,-2,-10,-7
1570179758669303,-7,-6,-11,-7,2,3,-10,-7
1570179758669303,-1,-5,-9,-9,1,-1,2,-2
1570179758690245,0,2,6,6,-6,-8,-17,-6
1570179758690245,6,-1,-2,-4,1,-2,9,-3
1570179758691298,-2,22,10,-3,-1,1,-5,-6
1570179758691298,1,-22,-6,14,0,0,7,2
1570179758704205,6,1,4,-9,0,3,2,0
1570179758704205,3,13,0,0,1,1,8,0
1570179758711187,-3,-30,2,10,4,3,-3,-3
1570179758711187,-1,8,-1,0,1,3,5,2
1570179758728141,2,-2,-1,5,0,-3,-3,1
1570179758728141,5,22,-9,-7,-6,-3,-16,2
1570179758729141,2,8,6,-7,-7,-3,6,2
1570179758729141,-4,-13,4,7,2,-1,-7,-5
1570179758757090,-4,-29,-20,-11,-1,4,12,3
1570179758757090,-5,-3,0,1,-1,-1,-12,-7
1570179758764567,2,5,15,5,-2,-2,-2,-5
1570179758764567,-2,15,-10,-6,-2,-2,3,-30
1570179758765043,11,17,3,-2,4,3,3,-29
1570179758765043,-5,-12,0,4,0,2,1,-35
1570179758772023,-6,-7,-21,-5,-2,-3,0,-68
1570179758772023,-1,2,5,-5,-2,-5,-25,-116
1570179758786995,9,11,5,0,0,-1,15,-120
1570179758786995,-2,1,-2,-2,-3,-2,-6,-67
1570179758789774,-1,-9,-4,10,2,-3,0,4
1570179758789774,1,14,4,-3,0,0,-1,69
1570179758817901,-9,-10,-2,-3,-4,0,-8,86
1570179758817901,-6,-36,-2,1,-1,1,10,73
1570179758818902,9,5,-4,-1,0,1,25,80
1570179758818902,2,16,6,-2,0,-2,-4,63
1570179758823887,0,12,5,2,0,-3,-16,62
1570179758823887,-6,-12,-9,-2,-2,0,-12,46
1570179758832865,-8,-6,-9,2,0,-6,-12,27
1570179758832865,-5,-11,6,4,4,0,12,26
1570179758846824,20,25,10,1,-1,-1,5,20
1570179758846824,-18,-20,-16,-9,-4,-1,-21,9
1570179758848819,8,7,10,-2,8,7,6,6
1570179758848819,3,-13,-12,0,4,1,7,7
1570179758869764,-5,-11,2,1,-14,-7,-3,-1
1570179758869764,-1,15,9,7,6,5,7,-2
1570179758871759,-6,5,0,0,7,11,4,0
1570179758871759,-12,-25,-5,-6,-9,-1,28,3
1570179758883725,-5,21,4,2,1,-6,-20,3
1570179758883725,10,7,10,1,-6,-3,5,1
1570179758892733,19,0,-6,-3,-8,-9,-25,-13
1570179758892733,4,11,2,-1,-4,-3,-5,2
1570179758914812,-5,-28,-26,-11,1,2,19,-1
1570179758914812,-3,36,20,5,3,-2,-4,5
1570179758916636,-24,-16,9,4,19,8,0,-8
1570179758916636,-29,-29,-5,6,-3,2,11,-4
1570179758929605,48,5,-9,-5,-12,-7,-14,-7
1570179758929605,-19,-12,8,7,6,-1,11,14
1570179758931958,6,32,-2,-7,-8,-3,6,5
1570179758931958,-2,16,3,-7,-3,0,-11,-8
1570179758943665,-38,-28,-6,3,11,5,-2,-7
1570179758943665,57,25,3,5,-2,-4,5,13
1570179758952541,-20,-31,-2,1,-9,-2,-5,-12
1570179758952541,-8,0,-8,-12,-13,-4,-9,19
1570179758967502,40,39,-1,0,9,5,-4,0
1570179758967502,-6,-21,0,-6,-7,-1,1,-5
1570179758968499,6,2,8,15,-21,-3,3,5
1570179758968499,-57,-28,-5,-6,17,1,-7,-26
1570179758990127,3,-11,-3,-1,4,-2,-3,-5
1570179758990127,-40,-23,-4,6,29,16,4,0
1570179758991437,33,32,5,-7,-18,-8,3,1
1570179758991437,47,23,3,3,-15,-13,-7,-17
1570179759003443,-29,-22,-1,-1,4,4,-1,-2
1570179759003443,11,-12,-5,-4,-18,-8,3,-8
1570179759012750,-33,-8,-5,-8,5,6,7,0
1570179759012750,68,42,-6,3,10,-2,-23,-8
1570179759027494,-31,-33,5,0,2,-1,1,1
1570179759027494,-85,-37,4,6,18,8,4,-20
1570179759029374,52,17,-16,-17,-10,-7,-10,-13
1570179759029374,59,60,1,1,-10,-7,1,-7
1570179759050280,-16,-16,-4,1,9,9,5,-12
1570179759050280,-20,-14,-7,-4,25,2,0,4
1570179759051278,-12,-22,-7,-7,-11,-6,0,4
1570179759051278,-20,-2,9,11,12,10,33,3
1570179759063325,23,8,4,4,-20,-12,-16,19
1570179759063325,40,32,-10,-8,-18,-6,1,17
1570179759072262,-55,-48,11,11,20,3,-4,-12
1570179759072262,56,55,-5,-4,2,9,1,-6
1570179759087516,-46,-37,-5,-1,11,11,2,-3
1570179759087516,-4,4,-7,-2,-28,-17,-3,-22
1570179759089175,2,5,0,-9,2,-4,-1,-8
1570179759089175,-39,-38,5,4,-4,2,-2,1
1570179759110121,3,1,-2,3,15,4,2,-1
1570179759110121,49,27,-4,-8,-23,-7,-7,-16
1570179759111196,-19,-9,-6,1,2,3,7,4
1570179759111196,34,7,-4,-15,-5,-2,-9,-5
1570179759124086,3,39,11,8,1,1,3,0
1570179759124086,7,-7,-2,-1,17,12,6,28
1570179759133244,-19,-5,-1,-1,-16,-9,-4,-7
1570179759133244,9,-21,2,6,6,3,-2,14
1570179759147290,-3,35,19,23,7,1,6,7
1570179759147290,26,-26,-18,-10,-14,-10,-14,-28
1570179759149086,12,-3,-8,-6,17,7,5,13
1570179759149086,-64,-44,6,14,18,7,10,4
1570179759170211,26,3,-8,-17,-18,-9,-7,-4
1570179759170211,-3,21,8,12,14,5,2,-4
1570179759171954,0,-10,5,10,-23,-14,-4,5
1570179759171954,7,22,-5,-9,-14,-7,-3,-1
1570179759191903,-22,-15,1,6,-5,1,5,5
1570179759191903,7,0,-3,-2,1,7,4,2
1570179759209853,29,23,0,5,9,2,-4,-13
1570179759209853,-34,-14,8,9,5,3,2,8
1570179759209853,9,-10,-9,-9,-8,-5,-5,-12
1570179759209853,22,12,-7,-15,-11,-4,-5,9
1570179759214006,5,24,5,5,10,3,-3,6
1570179759214006,-18,-8,10,-9,-10,-2,1,-10
1570179759230797,-21,-21,-9,5,4,-2,-2,1
1570179759230797,9,5,4,-7,-8,-3,1,10
1570179759232793,10,-5,-1,-1,1,0,0,-6
1570179759232793,-13,-8,-16,-17,-2,-1,2,0
1570179759243885,1,-3,-2,-6,-8,-2,3,-3
1570179759243885,-26,-5,5,-1,3,-4,-1,4
1570179759259721,5,5,-8,-9,-8,1,7,0
1570179759259721,6,-9,-1,11,32,22,9,-6
1570179759267705,3,2,3,-10,-22,-2,29,2
1570179759267705,-18,-20,2,1,-35,-36,-50,-6
1570179759268699,1,16,0,-14,-12,-9,-20,-9
1570179759268699,-17,-24,-3,3,-4,-6,-13,-2
1570179759289641,28,29,11,1,20,10,7,-2
1570179759289641,-12,-11,10,27,36,23,24,-17
1570179759291641,-6,2,16,4,-4,-1,6,-8
1570179759291641,4,-15,-16,-6,-15,-7,-13,8
1570179759312585,7,14,2,-1,-6,-7,0,5
1570179759312585,-26,-13,-10,-14,-14,-5,-1,-50
1570179759313660,13,13,12,25,39,20,15,-3
1570179759313660,3,31,11,19,10,5,1,31
1570179759327790,-1,-10,1,-9,-12,-4,-1,9
1570179759327790,23,2,-6,-8,8,8,-15,-4
1570179759328537,-8,-18,-24,-3,21,5,6,3
1570179759328537,-3,-14,3,15,60,19,-11,-24
1570179759349537,13,7,-15,-20,-24,-23,-24,5
1570179759349537,66,30,13,-5,-94,-63,5,47
1570179759351579,-96,-51,-37,-50,-48,-18,5,-46
1570179759351579,36,65,13,22,62,48,29,36
1570179759363587,15,-58,6,5,11,12,-9,-26
1570179759363587,-46,-27,-15,-15,-54,-29,-4,13
1570179759372420,-17,-10,-1,-4,20,1,-4,-33
1570179759372420,18,2,-15,-13,-20,-23,-9,15
1570179759386380,-21,5,1,-5,23,24,10,-11
1570179759386380,25,40,20,38,74,41,21,-1
1570179759395357,21,0,7,13,-10,-13,-6,22
1570179759395357,-32,-36,-13,-17,92,60,17,-9
1570179759425328,19,26,24,24,-56,-26,-2,12
1570179759425328,-11,-2,-7,-23,-18,-5,8,-29
1570179759427276,68,35,7,-20,-90,-66,-19,38
1570179759427276,-31,-11,18,0,-36,-25,0,-12
1570179759428269,-10,-20,-23,3,21,3,-13,-26
1570179759428269,-110,-19,3,4,72,45,26,-28
1570179759432494,79,52,0,30,68,42,-35,98
1570179759432494,-53,-75,-11,-34,-66,-30,-21,-59
1570179759447219,1,10,6,3,-10,-10,-1,4
1570179759447219,21,-45,-3,7,7,6,-5,-18
1570179759453204,76,41,-4,2,45,23,22,22
1570179759453204,-28,-10,-6,-11,-38,-23,-4,17
1570179759485116,-12,0,18,14,-11,1,-5,24
1570179759485116,32,18,1,20,33,19,-3,14
1570179759487112,-15,5,2,-24,-15,-13,7,-16
1570179759487112,118,55,8,9,-64,-26,2,36
1570179759488110,-117,-63,-11,-16,-41,-27,-6,-53
1570179759488110,26,8,-13,-21,26,9,3,31
1570179759492765,-19,-33,-7,16,12,1,4,-27
1570179759492765,12,-3,5,14,42,14,1,-6
1570179759507061,61,38,-5,-4,8,-5,-3,55
1570179759507061,22,38,-2,-20,-22,-1,-9,-12
1570179759513043,-8,-34,14,23,35,24,1,11
1570179759513043,11,-5,-9,-14,-23,-10,8,3
1570179759529997,-58,11,-19,-15,-20,-10,-2,0
1570179759529997,18,-34,15,6,23,9,5,6
1570179759536147,-33,16,21,24,-3,-2,1,-46
1570179759536147,22,16,6,16,-20,-15,-5,1
1570179759543107,60,25,12,4,30,11,10,14
1570179759543107,-3,-5,-4,5,41,18,7,5
1570179759552256,-46,-27,-7,-6,-49,-18,-7,-25
1570179759552256,3,-1,-1,-4,-5,-9,-2,24
1570179759566898,-3,4,-1,-4,29,14,-12,-27
1570179759566898,58,47,3,-6,-33,-24,-11,16
1570179759573883,-49,-38,-12,-13,6,12,6,50
1570179759573883,-33,0,-1,-6,-12,-1,-16,1
1570179759589838,44,9,3,13,40,14,11,26
1570179759589838,0,3,-2,6,-21,-3,6,-15
1570179759591831,14,14,1,-3,-13,-1,-22,-39
1570179759591831,-16,-7,-6,-14,-25,-7,19,1
1570179759611777,19,17,13,23,48,7,-2,8
1570179759611777,-48,-39,-22,-10,-19,-10,-23,-38
1570179759613773,44,35,-8,-16,-26,-10,10,25
1570179759613773,-9,-28,20,14,51,29,11,-16
1570179759627736,-45,-25,-7,-6,-34,-19,3,-15
1570179759627736,28,7,-7,4,-15,-16,11,-5
1570179759628733,-40,-21,-1,10,35,26,19,-55
1570179759628733,51,42,4,-1,14,0,-34,18
1570179759649676,10,5,-6,-8,-10,11,5,-1
1570179759649676,-6,-2,-5,-21,-22,-23,-14,4
1570179759651671,-3,0,-1,-3,-26,-11,18,-14
1570179759651671,-9,-18,-9,-3,-1,-3,-25,-33
1570179759672644,12,9,13,30,51,27,4,0
1570179759672644,6,33,11,7,-23,0,3,40
1570179759673660,28,-14,-8,-24,6,-3,16,0
1570179759673660,40,4,14,20,-8,-3,15,37
1570179759685736,-87,-40,-24,-21,-30,-20,-38,-35
1570179759685736,46,22,20,26,51,14,7,-3
1570179759700540,-62,2,-8,-5,-11,3,-7,-18
1570179759700540,-6,1,20,5,-20,-14,16,-28
1570179759709515,-25,-38,-28,-17,14,21,20,-5
1570179759709515,-23,-2,-2,-10,-23,-14,-8,11
1570179759711761,25,10,11,3,-37,-22,-17,-2
1570179759711761,21,19,-8,-11,-2,-7,3,27
1570179759732457,12,0,3,-1,1,-5,-7,1
1570179759732457,10,6,1,6,30,31,2,-8
1570179759733453,-29,-32,0,7,27,0,-10,31
1570179759733453,-11,-4,-6,1,-3,5,-1,-6
1570179759745605,34,14,3,1,0,-11,0,-6
1570179759745605,-20,-18,-12,-17,5,6,-3,-12
1570179759755394,57,21,-1,3,-33,-9,4,15
1570179759755394,-77,-16,3,-1,6,3,-3,-22
1570179759769358,109,40,0,-4,10,3,3,19
1570179759769358,-104,-81,-15,-2,-25,-20,-10,-65
1570179759771350,63,27,7,0,7,4,-7,5
1570179759771350,-22,-1,-13,-14,-12,-3,12,-16
1570179759792295,-18,-12,-12,-6,36,14,0,-21
1570179759792295,18,35,23,16,-38,-12,2,-16
1570179759794294,-28,-9,4,7,40,18,6,-25
1570179759794294,27,7,-5,-2,22,4,-12,30
1570179759815232,-60,-16,-3,-7,-71,-26,-16,-12
1570179759815232,50,24,2,0,18,0,3,35
1570179759816230,-91,-49,-8,4,25,8,-11,2
1570179759816230,28,12,6,-2,-23,-3,6,-8
1570179759830193,35,6,-4,-8,-1,3,9,24
1570179759830193,-7,30,9,3,21,3,3,19
1570179759831237,-21,-42,7,23,-3,-3,-2,-2
1570179759831237,85,26,-16,2,2,2,1,25
1570179759852137,-61,-52,-13,-12,5,-1,-3,-25
1570179759852137,11,-8,6,17,14,2,8,27
1570179759854130,54,38,-1,-14,8,4,1,-10
1570179759854130,-58,-28,-5,-5,-11,0,9,21
1570179759866138,50,28,5,-3,-32,-21,-2,23
1570179759866138,27,22,-3,-11,-26,-4,-2,9
1570179759875074,-79,-30,7,22,57,23,2,-3
1570179759875074,27,15,0,-3,-21,-21,1,-24
1570179759890036,-27,-12,-1,-10,-5,4,-4,-19
1570179759890036,-26,-41,-20,-16,19,11,7,-5
1570179759891148,54,23,2,3,-38,-30,-12,0
1570179759891148,0,-5,-7,-2,34,26,5,10
1570179759911977,35,37,27,22,4,8,15,20
1570179759911977,-28,-34,-22,-2,-11,-11,-24,-6
1570179759913969,64,28,4,-5,-15,-4,1,21
1570179759913969,11,25,13,17,16,-2,-19,-9
1570179759925937,-53,-27,-10,-10,-8,0,-1,8
1570179759925937,24,17,3,-10,-12,-3,3,-7
1570179759934915,-35,-24,-7,-4,-8,-5,-11,-23
1570179759934915,-6,-20,-17,-15,-30,1,10,-10
1570179759949875,27,22,14,12,41,1,-11,-18
1570179759949875,7,-8,-6,-13,-15,-1,-13,27
1570179759951905,0,14,-7,-2,36,16,2,11
1570179759951905,-24,7,8,3,-24,-3,-4,-38
1570179759979917,-12,-25,-1,-2,-8,-8,-6,-1
1570179759979917,20,-10,-6,3,-7,-8,9,-29
1570179759981789,87,46,-15,-13,-17,-7,0,-9
1570179759981789,-76,-35,13,16,28,9,-3,-10
1570179759985781,66,49,3,-5,5,6,3,24
1570179759985781,-26,-40,-21,-17,-40,-24,-11,-19
1570179760000739,-29,-9,-2,-17,-7,-2,-6,23
1570179760000739,-43,-26,3,14,-1,-5,-6,-5
1570179760009988,27,10,-13,-4,-6,-2,12,-17
1570179760009988,-35,3,6,-12,15,11,6,-14
1570179760011709,35,12,9,7,-8,6,19,32
1570179760011709,31,-2,-17,-14,-3,-4,3,20
1570179760032654,-21,16,19,-2,-9,0,-4,-15
1570179760032654,61,12,13,24,7,1,-9,78
1570179760033651,-42,-20,-13,-21,-34,-14,-4,-42
1570179760033651,8,21,7,0,40,7,-7,-28
1570179760045727,-38,-26,-16,-7,-28,-8,2,-36
1570179760045727,-21,0,-7,0,-7,4,4,-12
1570179760055628,11,20,7,0,18,0,2,-10
1570179760055628,12,6,1,1,-9,-4,-6,18
1570179760069871,21,5,0,8,17,4,-4,-12
1570179760069871,-11,2,2,-5,6,5,3,-15
1570179760071550,-51,-34,-5,-5,-10,-5,-10,-8
1570179760071550,11,-1,-1,2,-4,-2,-4,1
1570179760092613,59,39,1,9,10,-2,-3,17
1570179760092613,-67,-44,0,10,-7,5,5,-19
1570179760093490,45,1,-7,-6,6,0,-1,13
1570179760093490,-11,-2,-4,-5,14,6,-6,0
1570179760106492,-2,-3,8,18,29,3,0,9
1570179760106492,12,17,1,-15,-62,-18,-2,6
1570179760114441,14,4,3,4,9,-8,13,-12
1570179760114441,-23,-20,-10,-13,-20,-15,-5,-5
1570179760130392,-2,5,6,0,2,8,4,-9
1570179760130392,-5,-5,0,19,45,14,-10,32
1570179760131389,11,9,15,11,0,7,-11,76
1570179760131389,72,24,5,12,-2,-2,13,27
1570179760151527,-43,-35,-9,-5,-10,-2,-12,65
1570179760151527,37,26,6,-1,16,3,5,-5
1570179760152335,-18,5,5,0,-7,1,1,-18
1570179760152335,6,-11,-4,-3,2,-3,-2,-2
1570179760174277,-8,-2,-6,-8,-10,-1,3,-10
1570179760174277,20,12,5,-3,9,2,-5,0
1570179760175307,-17,-15,-2,8,11,6,-2,-3
1570179760175307,-18,-3,-3,-3,-17,-4,2,-28
1570179760189412,11,-4,4,3,6,-4,1,-9
1570179760189412,27,14,7,5,20,8,3,-12
1570179760190232,3,7,-2,-4,-9,1,2,-11
1570179760190232,-6,10,-2,-6,-6,-3,11,-33
1570179760211272,-55,-35,-8,-4,-16,-8,-3,-36
1570179760211272,13,6,-4,0,6,-2,0,-70
1570179760212174,20,1,0,0,2,-1,0,7
1570179760212174,1,12,2,1,-1,-1,-1,1
1570179760234115,-18,-12,-3,-4,-4,-1,20,-41
1570179760234115,-42,-8,1,1,7,4,1,10
1570179760235283,-1,-8,-1,-1,-5,-3,2,-22
1570179760235283,-18,-1,-3,-6,-2,-3,1,8
1570179760249296,20,2,0,1,-1,7,8,60
1570179760249296,1,8,-1,0,7,2,0,-9
1570179760250070,-26,-24,-7,-3,-4,-3,-3,-14
1570179760250070,18,3,3,3,0,2,-3,23
1570179760271082,-19,-1,-3,-2,1,2,-2,-9
1570179760271082,27,11,0,-1,2,-2,7,3
1570179760278995,32,13,3,5,-1,-1,-6,18
1570179760278995,-62,-32,-11,-9,-5,-6,-5,-43
1570179760294147,28,16,8,-1,-6,-2,-4,12
1570179760294147,13,3,4,2,0,-1,2,10
1570179760294952,-2,4,0,-1,2,1,3,-17
1570179760294952,-18,-15,-4,-4,-6,-5,-5,7
1570179760308916,62,12,-2,-4,-1,2,-8,63
1570179760308916,19,16,5,9,6,-1,-5,7
1570179760309912,-34,-15,-4,-2,-4,2,0,-8
1570179760309912,33,18,2,-1,1,3,1,-3
1570179760331858,-33,-21,-10,-9,-5,-7,-10,-9
1570179760331858,-15,-13,-5,-3,-3,3,1,-10
1570179760332851,-20,8,7,-1,-1,-3,-2,-4
1570179760332851,60,15,2,7,4,1,-3,7
1570179760353930,5,4,1,2,4,1,4,5
1570179760353930,-17,-12,-9,-9,-7,-4,-8,18
1570179760354793,27,1,-4,5,1,0,1,2
1570179760354793,28,24,3,-6,-1,3,0,-11
1570179760377812,-89,-47,-4,1,-5,-2,18,-70
1570179760377812,35,5,4,10,5,1,-1,6
1570179760377812,53,13,1,-1,-2,2,1,39
1570179760377812,-18,-18,-10,-9,-5,-5,-2,-35
1570179760391693,-9,3,-1,2,0,1,6,31
1570179760391693,-21,-3,10,7,2,3,2,-12
1570179760392795,9,19,-4,-4,-1,-2,-1,-14
1570179760392795,10,1,-1,-3,-2,-3,3,19
1570179760422616,44,21,1,2,-2,0,-8,-21
1570179760422616,-76,-23,0,-5,-2,-2,1,-5
1570179760422616,-31,-30,-7,4,2,-2,-3,17
1570179760422616,15,7,4,3,-1,-2,0,14
1570179760429591,20,8,-2,-3,-3,1,-8,-13
1570179760429591,14,13,-1,-4,2,3,15,-13
1570179760430593,10,-6,6,6,7,3,6,9
1570179760430593,-41,-17,-6,0,2,7,1,1
1570179760451536,-1,-7,1,-2,-2,-12,-15,-22
1570179760451536,-7,11,-8,-8,-8,-8,10,-11
1570179760452707,-88,-35,-3,-1,-3,2,-4,-32
1570179760452707,37,26,10,4,0,11,7,20
1570179760482703,2,-21,-5,3,-1,-4,-13,0
1570179760482703,12,1,-6,-9,-2,-10,-2,5
1570179760483538,-14,-10,-2,-1,-2,-2,-3,-10
1570179760483538,0,9,13,4,0,-5,-5,-29
1570179760489432,34,24,-3,3,3,8,11,17
1570179760489432,-35,-23,-2,2,-1,2,-5,16
1570179760490428,85,40,9,-3,-2,-1,4,11
1570179760490428,-92,-31,-1,-7,-6,-10,-8,-11
1570179760511372,62,34,17,13,8,6,2,12
1570179760511372,19,-14,-9,-2,-3,2,0,-24
1570179760512372,33,22,2,-6,1,3,-11,79
1570179760512372,-48,-24,-11,2,-2,-3,0,-8
1570179760534586,-17,2,0,-11,-4,0,2,3
1570179760534586,72,25,8,8,5,2,-3,44
1570179760535310,-56,-15,-4,-5,-2,-3,7,-53
1570179760535310,9,-9,-3,-3,-4,-2,-2,3
1570179760557251,5,-3,-3,-5,1,0,-3,11
1570179760557251,-20,-11,-4,1,-5,0,-9,-16
1570179760558358,18,8,3,2,-3,-11,-7,14
1570179760558358,9,-2,-3,-2,6,-2,3,8
1570179760571216,-7,6,1,1,-2,-2,0,-23
1570179760571216,-27,-11,0,-4,-2,2,-1,26
1570179760572215,-4,1,1,0,-6,-2,-2,-33
1570179760572215,27,7,0,7,4,-2,-6,17
1570179760594150,-6,-2,-3,-2,0,3,-1,3
1570179760594150,-18,1,0,-3,-5,-2,8,-67
1570179760595150,-6,-4,-1,3,4,1,-10,32
1570179760595150,7,-2,-2,-1,0,1,7,11
1570179760609115,-1,3,0,-2,-3,-1,-5,9
1570179760609115,-1,-2,-2,-2,-3,-2,1,14
1570179760610160,-4,-3,-2,-2,0,4,17,-24
1570179760610160,7,3,3,0,0,2,6,-33
1570179760632049,-6,-2,1,3,0,4,-3,-8
1570179760632049,25,8,5,3,0,-20,-5,67
1570179760632146,3,-10,-8,-2,-1,-2,2,-20
1570179760632146,19,5,0,0,1,2,1,47
1570179760653990,-3,-5,-4,-3,-4,-7,-1,-8
1570179760653990,-3,1,2,2,1,8,-1,-31
1570179760654997,12,13,3,3,1,5,3,24
1570179760654997,-2,-7,-1,0,-1,-6,-19,12
1570179760669327,-12,-5,-1,-2,1,3,10,-12
1570179760669327,-3,-3,-4,-4,0,1,-12,-7
1570179760669956,11,4,-1,2,-1,-3,-3,-1
1570179760669956,-3,-1,-2,-1,-1,7,9,40
1570179760691949,10,2,0,2,0,-3,-10,62
1570179760691949,8,5,1,2,5,9,10,98
1570179760691949,-9,-6,-1,0,-1,-2,0,-1
1570179760691949,-9,0,-1,0,1,1,0,-22
1570179760713830,-12,-5,-3,-2,-1,-2,3,-37
1570179760713830,1,-2,-3,-1,-2,-5,-1,-39
1570179760714828,2,-1,-1,0,1,2,-2,-2
1570179760714828,-16,-4,-2,-3,-2,-3,0,-28
1570179760728791,9,3,1,-1,-1,-1,2,-24
1570179760728791,-27,-7,-1,-4,-1,0,-8,-78
1570179760729788,-7,-5,-1,0,1,0,-2,-21
1570179760729788,18,6,2,0,0,1,6,8
1570179760751731,3,-1,-3,-1,-1,-1,1,-1
1570179760751731,0,2,2,2,1,0,-2,-8
1570179760752813,-11,-5,-4,-3,-2,-2,0,-16
1570179760752813,-1,0,-2,-1,-2,-2,0,-11
1570179760773675,-3,3,2,2,-1,1,-3,-2
1570179760773675,2,-4,-2,-2,1,2,3,5
1570179760781651,8,-1,-1,-2,-2,-1,5,13
1570179760781651,1,0,-1,-2,-2,0,-7,-12
1570179760789628,6,1,2,0,2,-4,-17,9
1570179760789628,-5,2,1,3,0,-1,-10,-4
1570179760789628,0,-3,-1,-2,-1,-2,-11,38
1570179760789628,1,-1,-1,-1,-2,-1,0,9
1570179760811573,2,-3,-1,-1,-3,1,4,2
1570179760811573,4,1,0,2,1,0,-4,27
1570179760812567,-8,-2,-2,0,-1,-2,-3,-35
1570179760812567,0,-3,-3,-4,-2,-1,1,2
1570179760836503,-6,-1,-2,0,1,-1,2,5
1570179760836503,-5,0,-1,-2,-1,-1,1,-21
1570179760836503,-6,-3,-2,0,-1,-2,0,-19
1570179760836503,-5,-3,-1,0,0,-2,-3,-32
1570179760849470,1,-1,1,1,1,0,3,-3
1570179760849470,1,-1,0,0,0,1,4,12
1570179760849470,-4,-2,-1,-1,-1,-1,-2,-5
1570179760849470,-10,-2,-1,1,0,1,9,-16
1570179760871415,4,1,0,0,-2,-3,-3,23
1570179760871415,8,0,1,0,-1,2,3,3
1570179760872521,-1,1,0,-1,-1,-3,-3,0
1570179760872521,-6,-1,-2,-1,-1,-2,-1,-14
1570179760894349,-5,-2,-2,-1,0,0,4,-13
1570179760894349,-3,-2,-2,-1,-2,-2,0,-1
1570179760895352,-7,-2,-2,-1,-1,2,8,-12
1570179760895352,14,1,-1,-2,-1,-1,-4,21
1570179760909311,-11,-3,-2,-1,-1,0,-2,-18
1570179760909311,-6,-2,-2,-3,0,-1,-4,-3
1570179760910378,9,0,-1,0,-1,-2,-4,6
1570179760910378,1,0,1,-1,0,1,-4,5
1570179760931253,9,0,-2,-3,-1,0,5,15
1570179760931253,-5,-3,-2,-2,-3,2,1,-15
1570179760932248,-4,0,0,1,0,-2,0,-1
1570179760932248,5,-1,-3,2,-2,-1,-1,5
1570179760954285,9,3,-1,0,0,0,2,30
1570179760954285,-7,2,-1,-1,-3,-2,0,-25
1570179760955186,3,0,-3,-1,-1,-1,-5,-6
1570179760955186,-5,-1,0,-2,-2,-1,-4,3
1570179760969152,-5,-1,-1,-1,-1,1,-3,-14
1570179760969152,-2,-2,-2,0,0,-3,-4,0
1570179760970192,6,1,0,-1,0,3,2,10
1570179760970192,7,-4,-2,-3,-3,-4,-2,11
1570179760992086,-7,-6,-1,-2,-1,-2,-3,-15
1570179760992086,2,-2,0,0,2,-2,2,15
1570179760992086,-2,1,0,-2,-1,-1,-1,-13
1570179760992086,-1,3,2,1,0,-6,-23,-11
1570179761014032,-5,-2,-1,-3,-1,-1,-1,-3
1570179761014032,4,1,-1,0,-1,0,-2,8
1570179761015275,-8,-2,1,0,1,0,1,-3
1570179761015275,-4,0,0,0,-1,1,3,-6
1570179761029095,-2,0,0,-1,-2,0,-1,-11
1570179761029095,-2,-1,0,1,0,0,-1,-1
1570179761029989,-1,-1,-2,0,-2,-1,-2,0
1570179761029989,-1,0,-2,-1,0,0,4,0
1570179761051928,-6,1,-1,1,0,-1,0,-10
1570179761051928,14,2,0,-1,1,0,5,16
1570179761052395,2,0,-2,0,-2,-1,1,8
1570179761052395,0,1,-1,1,0,1,2,-2
1570179761074232,-9,-3,0,2,1,-1,-2,-2
1570179761074232,-4,-1,-1,-1,-2,-2,-2,-20
1570179761074868,1,-1,0,0,-2,2,-2,1
1570179761074868,-1,-1,0,0,0,0,0,-1
1570179761088828,3,-1,0,-3,-1,0,0,-1
1570179761088828,-4,0,-1,-3,-1,0,3,1
1570179761089825,5,0,-2,0,-1,-1,1,15
1570179761089825,-5,-1,1,-1,0,-1,1,-11
1570179761111990,2,1,0,1,-2,-1,-1,7
1570179761111990,-4,0,1,-2,0,1,0,-3
1570179761112765,3,1,1,-1,1,-2,2,1
1570179761112765,-5,-3,-2,-1,-1,-1,1,-4
1570179761142866,7,2,0,0,0,1,1,12
1570179761142866,-1,-1,-1,-1,2,2,4,10
1570179761142866,-2,-3,-2,-2,-3,-2,-5,-20
1570179761142866,-1,0,3,2,0,-2,-3,-4
1570179761148670,2,-1,-1,-2,-1,-2,1,4
1570179761148670,-6,-1,-2,0,1,0,0,-10
1570179761156652,-4,-2,-2,1,0,1,1,2
1570179761156652,5,0,1,0,-2,0,2,11
1570179761171711,-6,2,0,0,-2,-1,-2,-17
1570179761171711,2,0,0,-2,-4,-2,-2,6
1570179761172605,-2,0,-1,0,-1,0,-1,5
1570179761172605,-1,0,-1,1,1,1,-1,-2
1570179761194548,0,0,0,0,0,0,3,7
1570179761194548,6,-3,-3,-1,-2,0,-2,6
1570179761201579,19,2,1,-2,-1,-3,3,32
1570179761201579,-9,-1,0,-2,-1,-1,-2,-12
1570179761208510,12,-1,-3,-2,1,0,2,11
1570179761208510,6,0,1,1,-1,-1,1,11
1570179761217002,-11,-2,1,0,1,0,-3,-6
1570179761217002,-4,2,-3,-2,-2,-2,-3,-19
1570179761231513,-9,-1,-2,0,0,-2,-2,-17
1570179761231513,3,0,1,1,-1,-2,-1,4
1570179761232452,-4,-1,-2,-1,1,-1,0,-6
1570179761232452,-2,-3,-1,-1,-1,-1,0,-1
1570179761254430,-6,-1,-2,-1,-1,1,-6,-20
1570179761254430,0,-1,0,-1,0,0,-1,-4
1570179761255383,-10,-2,1,1,-2,-2,-4,-16
1570179761255383,6,-1,0,-1,-1,-1,2,12
1570179761268917,0,-1,1,-1,-2,0,1,0
1570179761268917,-2,-1,-2,-3,0,-1,-2,0
1570179761276328,4,1,1,-1,0,1,2,4
1570179761276328,0,-2,0,0,0,-1,-1,-4
1570179761291671,-11,-3,0,1,0,-2,-1,-16
1570179761291671,5,-1,-1,-1,-3,-3,-1,11
1570179761292284,-1,1,-2,0,0,-1,1,1
1570179761292284,0,-1,-2,-1,1,0,-1,3
1570179761314364,-2,0,0,-1,-1,-1,-1,-4
1570179761314364,-3,0,1,0,-1,1,1,-3
1570179761315223,-3,-1,-1,0,0,-2,0,-8
1570179761315223,5,-1,-1,0,-2,-1,1,9
1570179761328189,6,0,1,1,-1,0,2,13
1570179761328189,-4,0,-1,-2,0,-2,-1,-10
1570179761337167,2,-2,-1,-2,0,0,-2,6
1570179761337167,-13,-2,0,-1,-1,0,-2,-16
1570179761352128,10,3,1,-1,-1,-2,-1,18
1570179761352128,0,0,0,0,-1,0,-1,2
1570179761352128,-1,-3,0,-3,-1,0,-1,-3
1570179761352128,1,-1,-1,1,-1,-2,1,5
1570179761374070,2,0,-2,-1,-1,0,-1,-9
1570179761374070,-1,-2,0,0,-1,-1,0,-4
1570179761375065,2,0,0,-1,0,-1,0,1
1570179761375065,2,1,0,-1,0,0,1,8
1570179761389029,-1,-2,-1,-1,-2,-1,2,3
1570179761389029,-5,-2,-2,-1,-1,-2,-3,-11
1570179761397051,-3,-3,-1,0,-3,0,-1,-2
1570179761397051,7,1,-1,0,-2,-1,-1,5
1570179761411964,-9,-2,-1,-2,-1,0,-2,-10
1570179761411964,-4,2,1,0,-1,-1,-2,-6
1570179761411964,1,1,-2,1,-1,0,1,2
1570179761411964,4,-1,0,-1,1,0,3,7
1570179761442610,5,-3,-2,0,0,-1,0,4
1570179761442610,-2,-1,-2,-2,-1,0,0,7
1570179761442882,8,-2,0,0,-2,0,-2,12
1570179761442882,-1,-2,-1,-2,1,1,0,-5
1570179761457842,-4,-1,-1,-1,-1,-1,0,-5
1570179761457842,0,0,1,-2,0,-1,0,3
1570179761457842,-11,0,0,-1,2,-1,-2,-11
1570179761457842,0,1,-1,-1,1,-1,0,2
1570179761471808,0,-1,-3,-1,-3,-4,-3,2
1570179761471808,-2,1,-1,-1,-1,0,2,-5
1570179761472802,-3,-2,0,0,-3,-1,-1,-6
1570179761472802,7,0,-1,-1,-2,0,1,14
1570179761494417,-11,0,-1,-1,-1,0,-3,-21
1570179761494417,5,0,-1,1,0,1,1,3
1570179761495066,0,0,1,0,0,-1,1,8
1570179761495066,-12,-2,0,0,-1,-1,-5,-23
1570179761517683,5,-1,2,-1,2,0,0,8
1570179761517683,-9,-2,0,-1,1,-1,-1,-9
1570179761517939,-2,0,-1,-1,-1,-2,0,-2
1570179761517939,3,1,-2,0,-2,-1,0,3
1570179761531831,-9,-1,-2,-2,-1,-3,-4,-4
1570179761531831,-3,0,-1,-1,-1,-2,-4,-5
1570179761539626,8,1,-2,-1,0,0,1,3
1570179761539626,-1,0,-1,0,0,-3,-1,-2
1570179761553586,2,-1,1,1,-1,1,1,5
1570179761553586,1,-2,0,-1,1,-2,-1,1
1570179761554584,-5,-1,0,0,-1,-1,-1,-7
1570179761554584,2,-1,-2,-2,0,0,2,6
1570179761576532,2,0,-2,-1,-1,0,0,1
1570179761576532,-2,2,2,1,0,0,-2,-5
1570179761584504,4,-1,-1,-4,0,0,-2,3
1570179761584504,6,1,0,0,0,0,0,16
1570179761591487,0,-2,1,-1,0,0,0,-1
1570179761591487,-4,1,-1,0,-1,-2,-2,-5
1570179761592820,4,0,-1,-1,-1,0,1,3
1570179761592820,-18,-3,-1,0,0,0,-2,-30
1570179761614425,5,0,-1,0,-1,1,2,7
1570179761614425,5,0,0,1,-1,1,-1,-4
1570179761615241,4,-2,-1,1,0,-2,0,5
1570179761615241,1,-2,-1,-1,0,-1,-2,2
1570179761645340,-2,-1,0,1,0,1,1,-3
1570179761645340,0,-1,-2,-2,0,-3,-2,0
1570179761645406,-11,-2,0,-1,-2,-1,13,-21
1570179761645406,-4,-2,0,-1,-1,-1,1,-11
1570179761651329,6,3,0,0,-1,-2,-2,7
1570179761651329,-12,-2,1,0,-1,2,1,-15
1570179761652323,0,-1,-1,-1,-2,0,0,0
1570179761652323,3,0,0,0,-1,-2,1,13
1570179761674468,-3,0,0,-3,0,-1,-1,-6
1570179761674468,-7,-1,1,-1,0,-2,1,-6
1570179761675266,1,2,-1,0,-1,0,-4,-2
1570179761675266,4,-2,-2,-1,-2,0,-1,7
1570179761697205,12,0,0,2,0,-2,-2,9
1570179761697205,4,-1,0,0,-2,0,-1,11
1570179761698198,-3,-1,1,1,1,-1,-3,2
1570179761698198,2,-1,-1,-1,0,-1,-1,3
1570179761711165,-1,0,-1,-2,0,0,2,4
1570179761711165,5,-1,-1,0,1,-1,1,3
1570179761712161,-5,-1,-1,-1,-1,-2,-2,-5
1570179761712161,-1,-1,1,0,0,0,-1,-5
1570179761734106,-7,-1,-1,0,-1,0,-2,-12
1570179761734106,11,-1,-1,-1,-1,-1,0,23
1570179761735107,1,-1,-2,-1,-2,-2,-6,-7
1570179761735107,-11,0,-1,0,-1,0,-2,-12
1570179761757084,-6,-3,-2,0,0,-2,-1,-3
1570179761757084,2,1,-1,0,-1,0,-1,2
1570179761758135,2,1,2,0,0,-2,-2,13
1570179761758135,3,0,-1,-3,-1,-2,-4,3
1570179761772005,-3,0,-2,-1,-1,-2,-2,-3
1570179761772005,-3,-3,-1,0,-2,0,-2,-3
1570179761772999,-5,-1,0,-1,-1,-1,-2,-5
1570179761772999,3,0,0,0,0,1,2,2
1570179761793947,6,0,0,-1,-2,-1,1,10
1570179761793947,-3,-1,0,1,-2,-2,-3,-7
1570179761794941,-12,-1,-2,-1,-2,-1,-3,-18
1570179761794941,19,1,-2,-2,0,0,2,25
1570179761817066,-4,-1,-1,-3,0,-1,1,-8
1570179761817066,3,-1,-1,-1,1,-1,2,1
1570179761817880,0,-2,-2,-1,1,0,1,6
1570179761817880,-10,0,1,1,0,-1,-3,-10
1570179761831842,-5,0,-1,1,0,-1,-3,-6
1570179761831842,-2,0,-2,0,-1,-1,0,-3
1570179761832840,3,0,-1,0,1,0,-3,3
1570179761832840,-4,-1,-1,0,-2,0,-2,-7
1570179761853788,5,0,1,0,-1,0,1,7
1570179761853788,-1,-2,-1,0,-2,0,-1,-3
1570179761854782,-4,-2,-1,-1,-2,1,2,-2
1570179761854782,-2,-1,-2,-2,0,0,-1,-4
1570179761877719,0,-1,-1,-2,-1,1,1,6
1570179761877719,-3,-1,-1,-2,-2,2,-3,-10
1570179761877719,4,0,1,1,0,1,-1,-1
1570179761877719,11,0,-1,-1,0,0,2,20
1570179761891681,-4,-2,0,0,0,-1,-1,-5
1570179761891681,-1,0,0,0,0,-2,-3,-2
1570179761892815,-1,-1,-1,-1,-1,0,0,-3
1570179761892815,-5,-3,0,-1,-1,-2,-2,-4
1570179761914976,7,1,0,-1,1,2,3,19
1570179761914976,5,2,0,-1,-1,0,3,0
1570179761915618,1,1,-2,-1,-1,-1,-1,0
1570179761915618,-2,0,-1,0,-1,-1,0,2
1570179761937559,-5,-1,-1,0,0,-1,-3,-7
1570179761937559,-1,1,-1,-2,-1,0,-1,3
1570179761937683,-1,-1,-2,0,1,1,2,4
1570179761937683,-2,0,1,1,-1,-1,-2,-5
1570179761951615,-3,-1,0,1,-3,-1,-1,-3
1570179761951615,5,0,0,-1,0,1,2,13
1570179761952519,2,1,0,-1,-1,-1,-2,0
1570179761952519,-2,-1,-3,-1,-2,-1,-1,-1
1570179761973512,-1,-3,-2,0,-2,-2,-6,-22
1570179761973512,-6,-1,-1,-1,1,1,0,-3
1570179761981789,0,-3,0,0,0,-1,0,0
1570179761981789,-1,2,2,1,0,0,2,-2
1570179761996401,-3,-2,-2,-2,-2,-1,-5,-21
1570179761996401,1,-1,-1,1,1,-1,-1,-1
1570179762004422,1,-1,-1,-2,0,-1,-1,3
1570179762004422,0,-1,-1,0,2,-2,1,-3
1570179762011362,0,-2,-1,-1,0,0,4,4
1570179762011362,-2,-2,-2,-1,-2,-2,-1,2
1570179762012359,0,0,-1,-1,-1,1,-2,2
1570179762012359,-3,-2,0,-2,-2,0,-1,-6
1570179762034303,-7,-1,-2,0,-1,0,3,10
1570179762034303,-2,0,0,-2,0,1,-2,-13
1570179762035298,3,2,-1,0,-1,-2,0,8
1570179762035298,0,0,0,0,1,0,-1,-1
1570179762057448,2,0,0,0,2,1,1,2
1570179762057448,0,-1,-1,1,-1,0,0,-1
1570179762058241,-1,-3,-1,-1,-1,-1,0,-2
1570179762058241,-4,-2,0,0,-2,-2,-2,-6
1570179762071241,3,1,0,0,1,-1,-1,2
1570179762071241,-2,0,-3,-2,-1,-1,0,0
1570179762079180,1,-1,0,-1,-2,-2,0,-1
1570179762079180,-1,-2,-1,0,0,-1,0,-1
1570179762094603,-2,0,1,2,-2,-3,-3,0
1570179762094603,0,-1,-2,-2,-1,-2,0,5
1570179762095211,-1,0,-1,0,-1,0,0,-4
1570179762095211,-7,-1,-3,0,1,-1,-2,-11
1570179762117088,3,1,-1,-1,0,1,0,3
1570179762117088,6,-3,-1,-1,-2,1,1,18
1570179762118702,-2,-1,0,0,0,-1,-1,-3
1570179762118702,1,1,0,0,-1,0,1,1
1570179762131043,0,0,-1,-1,2,1,0,0
1570179762131043,-5,-3,0,0,-3,-2,-1,-8
1570179762147001,-1,0,-1,-1,0,1,0,-1
1570179762147001,-6,-4,-3,-3,0,-1,-1,21
1570179762161998,5,0,-1,0,-1,1,0,8
1570179762161998,-4,0,0,1,0,0,-1,-7
1570179762162996,2,-3,0,-1,-1,-3,-1,1
1570179762162996,-4,0,0,0,-1,0,-2,-9
1570179762176949,-4,-2,-2,0,-1,-2,-1,-5
1570179762176949,3,-1,-2,0,1,-2,0,3
1570179762177916,-1,1,0,0,-1,1,-1,-1
1570179762177916,3,1,-2,0,-1,-1,-1,-5
1570179762190989,0,-1,-2,0,-2,-2,-1,1
1570179762190989,1,0,0,-2,1,0,0,-4
1570179762198972,-4,-2,-2,0,0,-1,-3,1
1570179762198972,-1,1,1,1,-1,0,0,-3
1570179762213919,4,1,-2,-2,0,-2,0,0
1570179762213919,-4,0,-2,0,0,-1,-2,-8
1570179762214817,7,-2,-1,0,-2,2,3,10
1570179762214817,4,0,-1,-2,-1,2,0,7
1570179762238036,-8,-3,0,1,1,-2,-8,4
1570179762238036,-1,-1,0,-1,0,-2,-1,-2
1570179762238036,1,0,-2,-2,0,-1,-3,5
1570179762238036,3,1,1,-1,-1,-1,-3,1
1570179762250720,-1,0,0,-2,-1,0,2,-3
1570179762250720,3,1,-1,-2,-1,1,2,8
1570179762258699,-3,-1,1,-2,-1,-1,-2,-4
1570179762258699,-4,-2,-1,-2,-1,1,8,-7
1570179762274586,-3,-3,-2,1,-1,-2,0,-4
1570179762274586,-1,-1,1,0,-2,-1,-1,-3
1570179762274661,-1,1,0,1,-1,-1,1,3
1570179762274661,1,0,-1,-1,0,0,0,-2
1570179762297513,2,2,-2,-1,-1,1,1,12
1570179762297513,3,0,-1,1,-1,-1,0,15
1570179762298279,-2,-1,-2,0,0,1,5,-9
1570179762298279,1,0,-1,-1,-1,0,-2,-1
1570179762311541,0,0,-1,-1,0,1,1,0
1570179762311541,-1,-1,-1,-1,0,-2,0,-3
1570179762319090,-4,-1,-2,-2,1,-2,-4,-6
1570179762319090,4,-1,0,0,0,-1,-1,9
1570179762334170,1,-2,-1,0,-2,0,0,-7
1570179762334170,-2,-2,-1,-2,-1,1,2,-3
1570179762335161,0,-1,0,1,0,-2,-2,0
1570179762335161,-3,-3,-2,-1,0,0,-5,-6
1570179762357337,-3,-2,-1,0,-1,-1,-2,-6
1570179762357337,0,0,-2,1,-2,0,-1,-2
1570179762358009,-2,1,0,0,-1,-1,1,1
1570179762358009,2,0,-1,-1,1,-3,-1,-2
1570179762379949,0,-3,1,-1,-1,-1,-1,5
1570179762379949,-2,-1,0,-1,-2,-1,-4,-17
1570179762380938,-3,1,-2,-1,-3,0,-1,-6
1570179762380938,-3,0,-2,-1,0,1,0,-2
1570179762394187,0,0,-1,-1,0,-2,0,-2
1570179762394187,-3,-2,1,0,1,-2,-3,0
1570179762395023,3,-2,-1,-1,0,0,0,0
1570179762395023,3,0,0,-1,0,0,-1,2
1570179762416346,0,1,1,0,2,-1,2,-4
1570179762416346,-1,0,-2,-1,-2,0,-2,2
1570179762424581,1,-1,0,-1,-1,-1,1,-1
1570179762424581,-1,-2,-1,-1,-2,-2,1,0
1570179762440561,-2,-1,0,-1,-1,0,-3,-2
1570179762440561,10,-1,0,-1,0,-1,0,16
1570179762440561,-3,1,0,0,0,0,1,-2
1570179762440561,5,-1,0,-1,-2,-1,-1,9
1570179762454572,14,-1,-2,-2,-1,1,2,17
1570179762454572,-2,0,-2,0,0,1,-1,-2
1570179762454572,-1,-1,-2,-2,0,0,-1,5
1570179762454572,0,-1,-1,0,1,-1,0,2
1570179762477659,-4,-2,0,-2,0,-1,1,-6
1570179762477659,2,0,-1,-1,-1,-1,-1,4
1570179762478576,-2,-1,-1,0,1,-1,0,-1
1570179762478576,-7,-2,-1,-1,-1,0,-2,-10
1570179762500282,-4,0,0,0,-2,-2,-2,-8
1570179762500282,-6,-1,-1,-1,-2,-1,1,-4
1570179762501105,2,-1,1,-1,-2,-1,0,1
1570179762501105,-1,0,-1,1,-2,-1,-2,-3
1570179762529215,-3,0,-1,1,-1,-2,-1,-3
1570179762529215,2,-1,-1,0,0,2,2,12
1570179762538285,-10,-1,-1,1,-1,-1,-5,-12
1570179762538285,1,0,0,1,0,-1,0,2
1570179762540265,0,1,1,-1,-1,0,-1,-4
1570179762540265,-8,-3,-2,-1,-1,-3,-1,-5
1570179762541262,1,-1,0,-1,0,-1,1,5
1570179762541262,-2,0,-1,-3,-1,-2,-1,-5
1570179762559883,-1,-1,-1,0,-1,-2,-1,-4
1570179762559883,-4,-1,1,0,-3,0,-1,-7
1570179762560999,1,0,-1,0,-1,1,-1,-1
1570179762560999,-1,0,-1,1,-2,0,-2,-4
1570179762573847,4,0,-1,-1,-3,-1,0,6
1570179762573847,2,0,-1,-1,-2,0,2,3
1570179762574837,-1,-1,-1,-1,-1,-1,-2,4
1570179762574837,0,0,0,-2,-3,0,-1,-1
1570179762597683,-2,0,-1,1,0,-1,1,-3
1570179762597683,0,-1,-1,1,1,-1,-1,-10
1570179762597683,0,-2,-1,-2,-1,-1,0,4
1570179762597683,1,0,-1,0,2,-2,0,-2
1570179762619920,-2,-1,-1,0,1,-1,0,-2
1570179762619920,0,0,0,-1,0,-1,0,-1
1570179762620620,1,0,1,-1,-1,-1,0,-4
1570179762620620,-1,-1,1,-1,-1,-1,-1,-2
1570179762634625,-4,-1,0,-2,-1,2,0,-7
1570179762634625,-3,-2,-2,-2,-1,1,-3,-9
1570179762634625,7,0,-1,2,-1,0,1,4
1570179762634625,1,-2,-5,-1,-1,-1,-2,-2
1570179762657568,-2,-1,-1,0,-1,-1,-1,-4
1570179762657568,-1,0,0,0,0,0,-1,0
1570179762658512,0,-1,-2,-1,-1,-1,2,-4
1570179762658512,-2,-3,0,0,-1,0,1,6
1570179762679649,-1,-3,-1,0,-1,-2,-1,-2
1570179762679649,1,1,0,-1,1,0,-1,1
1570179762681518,-3,1,0,0,0,0,-3,-1
1570179762681518,0,1,-1,-1,0,-1,1,4
1570179762693465,4,-1,-1,-1,-1,-1,-1,6
1570179762693465,-2,0,-1,-2,0,0,1,1
1570179762702395,0,-2,-2,0,-1,-2,-2,-4
1570179762702395,-2,0,0,-1,-1,-2,-3,-7
1570179762718353,5,1,0,0,0,1,1,12
1570179762718353,1,-1,-1,1,-1,-1,0,-2
1570179762719349,0,-1,-2,-1,-1,-2,1,-1
1570179762719349,2,1,-1,-1,-1,0,1,-6
1570179762740294,-5,-1,1,-1,-1,0,0,-5
1570179762740294,0,0,1,1,0,-1,1,0
1570179762741387,-4,0,0,-2,-1,1,1,-3
1570179762741387,-2,0,-1,0,-1,-1,-1,0
1570179762753258,-2,-1,-1,-1,-3,-1,-2,-2
1570179762753258,-3,-1,-1,-1,-2,0,1,-7
1570179762762238,0,-2,-1,-1,-2,-2,-2,1
1570179762762238,-1,-1,0,0,0,0,0,4
1570179762778190,-9,-1,-1,0,1,-1,-3,-14
1570179762778190,-5,-2,1,-1,-1,-4,0,2
1570179762779189,11,-1,0,-1,-1,0,0,5
1570179762779189,-3,-2,-1,0,0,-2,-3,-9
1570179762799184,4,1,-2,-2,0,-2,2,-3
1570179762799184,-9,-2,1,0,-1,-1,-5,-10
1570179762806167,0,0,-1,0,0,0,-2,0
1570179762806167,1,-1,-1,-3,0,-2,2,12
1570179762813102,-2,-2,0,0,0,0,-1,-2
1570179762813102,4,1,-2,0,0,0,0,4
1570179762822074,-4,0,0,-1,1,-1,0,-2
1570179762822074,0,0,0,1,-1,1,1,2
1570179762837037,0,0,-3,-2,-1,-1,0,6
1570179762837037,4,-1,-2,-1,-1,2,2,6
1570179762839065,3,0,0,1,-1,0,1,-1
1570179762839065,-3,-1,-1,-1,-2,1,0,0
1570179762859100,5,0,0,1,0,0,-1,4
1570179762859100,2,-1,1,1,0,-1,-3,-1
1570179762867078,0,0,-2,1,0,0,3,0
1570179762867078,-2,0,-2,0,0,-2,-1,-7
1570179762873062,-9,-2,-1,-1,-1,-1,-1,-15
1570179762873062,19,3,-1,-2,-2,1,2,27
1570179762882599,4,0,-1,-2,0,-2,-2,7
1570179762882599,-6,0,1,0,-1,0,-1,-9
1570179762897163,1,1,-1,0,-3,-1,0,13
1570179762897163,0,-3,0,0,-2,0,0,3
1570179762899000,-12,-2,0,-2,-1,0,-3,-22
1570179762899000,7,0,-1,-1,-3,-1,3,11
1570179762918944,-6,-2,-1,1,0,-2,-3,-5
1570179762918944,-3,-1,-1,1,-1,0,-2,-3
1570179762927915,3,0,-1,-1,-1,0,-1,2
1570179762927915,-3,-1,0,-1,0,-1,0,-3
1570179762933972,-4,-1,-1,-2,-1,1,0,-12
1570179762933972,-4,-2,-1,-2,1,0,1,6
1570179762942882,-4,-2,0,-1,0,-2,-3,-1
1570179762942882,1,-1,0,0,-1,0,-1,0
1570179762957046,1,0,1,0,-2,-1,1,4
1570179762957046,-4,2,-1,-1,0,-1,-2,-11
1570179762958973,-1,0,1,0,-1,0,1,1
1570179762958973,2,0,-2,0,0,0,2,4
1570179762979921,-3,-1,-2,-1,1,-4,-3,-4
1570179762979921,8,0,-2,0,0,-2,0,9
1570179762981911,1,-1,0,1,-1,0,-1,1
1570179762981911,-10,-2,-1,0,0,-1,-2,-15
1570179762993950,-6,-1,0,0,-2,0,-1,-2
1570179762993950,-3,1,0,0,-1,-1,0,-11
1570179763002857,2,-1,-3,-2,-1,1,0,13
1570179763002857,13,1,-1,1,-1,-1,-2,10
1570179763017816,3,-3,-1,-1,0,2,0,4
1570179763017816,-8,-3,-1,1,0,0,-1,-6
1570179763018822,-5,0,0,1,0,-1,-1,-13
1570179763018822,-5,-1,0,-2,-1,-2,-1,0
1570179763039761,4,2,-1,1,-1,0,-1,2
1570179763039761,3,-1,-2,-1,-2,-1,-1,7
1570179763041755,-3,-2,0,-1,-1,2,-1,-3
1570179763041755,7,2,-1,-1,0,-3,0,8
1570179763053845,0,-2,0,-2,0,-1,-2,2
1570179763053845,-3,-1,-1,-1,0,0,0,-4
1570179763062696,-2,1,-1,-2,0,-2,0,-2
1570179763062696,-4,-1,1,0,-1,1,-1,-5
1570179763084637,11,1,-1,-1,1,-2,3,16
1570179763084637,-2,-1,0,0,0,0,2,-3
1570179763086634,-1,0,-1,0,-1,-2,-1,-2
1570179763086634,-1,-2,-2,0,-1,2,0,6
1570179763099600,-2,0,-2,-1,-2,-2,-4,-2
1570179763099600,1,0,0,0,1,-1,-1,6
1570179763101594,2,2,-1,0,0,-1,0,-3
1570179763101594,0,-1,-1,-1,1,1,1,4
1570179763113561,-1,2,0,1,0,-1,-4,-8
1570179763113561,-7,-2,-2,-1,-2,-2,0,-6
1570179763122758,5,-2,1,-1,0,-1,1,8
1570179763122758,-8,-4,-1,-2,-2,0,-4,-17
1570179763145521,-5,-1,-1,-2,-1,0,-1,-3
1570179763145521,2,1,-1,-2,-2,2,-2,-2
1570179763146475,9,0,-1,0,-2,0,1,10
1570179763146475,-3,-1,-1,1,-2,-3,1,-5
1570179763159437,-1,0,0,-1,-1,-1,0,-1
1570179763159437,-1,-1,0,-1,-1,-1,0,-9
1570179763161433,-7,-1,-1,-1,-1,-1,-2,-3
1570179763161433,0,2,-1,-1,2,-2,0,0
1570179763173680,7,-1,-2,-2,0,2,2,7
1570179763173680,-2,0,-2,-1,-1,-2,-3,-3
1570179763182440,6,0,-2,1,0,-1,1,7
1570179763182440,-1,-1,1,-1,0,1,-1,-2
1570179763196340,-1,-1,0,2,-1,0,-2,-1
1570179763196340,-2,-2,-2,-1,-1,0,-1,-2
1570179763205316,0,1,0,-1,1,0,0,3
1570179763205316,0,2,-1,-1,-1,0,-1,-8
1570179763220279,-11,-2,-3,-4,-1,1,-2,-7
1570179763220279,6,1,-1,0,0,-1,-1,7
1570179763221273,-5,-1,-2,0,0,-1,-1,-7
1570179763221273,-2,0,-2,-2,0,-1,-3,-12
1570179763233242,4,0,0,1,-1,0,2,0
1570179763233242,-2,-2,-1,0,-1,-1,-1,1
1570179763258174,-3,-1,-1,-2,-1,-1,0,-3
1570179763258174,-2,-2,-1,0,-2,-2,1,3
1570179763259171,2,-1,-1,0,-2,-2,-1,-4
1570179763259171,-3,-1,-1,1,-1,-1,-1,-4
1570179763260170,-2,-1,0,1,0,1,-2,0
1570179763260170,-2,-2,0,1,-1,0,0,4
1570179763280254,-2,0,0,-1,0,1,0,7
1570179763280254,0,-2,-2,-1,0,0,-1,-5
1570179763281111,-4,-1,-1,-1,-1,-2,-1,0
1570179763281111,1,-1,-1,-1,-1,-1,-1,1
1570179763293084,-3,-1,-1,0,-1,1,0,-2
1570179763293084,-7,1,0,0,0,-1,-1,-7
1570179763302113,4,0,-1,0,-2,2,-1,0
1570179763302113,4,1,-1,-1,-2,1,0,9
1570179763317203,-5,-1,-1,-1,1,-1,0,-11
1570179763317203,-3,-1,0,0,0,0,0,-1
1570179763319010,1,0,0,2,0,-1,2,-6
1570179763319010,-2,-1,-1,-2,1,0,0,-1
1570179763340231,2,-2,-2,-1,-1,-1,-3,-15
1570179763340231,-7,-2,0,-1,-2,0,-1,4
1570179763340952,0,-1,1,-2,-2,-2,-1,0
1570179763340952,-4,1,1,0,-1,-1,-2,-7
1570179763361895,3,-1,0,1,-1,-3,0,4
1570179763361895,-3,-2,-1,-2,0,-1,-1,-8
1570179763363896,0,-3,-2,-1,-1,-1,-2,1
1570179763363896,-3,-2,0,-1,0,-2,0,-1
1570179763377073,-4,0,-2,0,-1,-1,1,1
1570179763377073,5,0,0,0,0,0,0,3
1570179763378851,-1,1,-1,-1,-2,1,0,4
1570179763378851,-6,-1,-3,1,-1,0,-2,-11
1570179763399937,14,2,0,-1,0,0,3,22
1570179763399937,0,-1,0,-1,0,-1,-2,-2
1570179763401814,-2,0,-1,0,-1,0,-2,-4
1570179763401814,-2,1,-1,-1,-1,1,0,-2
1570179763422733,-3,-1,0,-2,0,-2,-1,-3
1570179763422733,0,-1,-1,0,-1,-2,0,-3
1570179763423732,-1,1,-2,-1,-2,-3,0,6
1570179763423732,4,0,0,-1,-2,-1,1,12
1570179763437696,-4,-1,0,-1,1,-2,-2,-16
1570179763437696,5,-1,-1,0,-2,-1,-1,11
1570179763438691,-5,-2,0,1,-1,2,3,-9
1570179763438691,2,-1,-1,-1,-1,-1,-3,4
1570179763459637,1,-1,0,-1,-3,-1,2,5
1570179763459637,0,0,-1,-1,-2,-1,-1,-3
1570179763461630,-3,-1,0,1,0,-1,-2,-7
1570179763461630,2,-1,-2,0,0,-1,0,0
1570179763482575,-4,-1,-1,0,-1,2,0,-2
1570179763482575,-7,-1,-1,0,-2,0,-2,-13
1570179763483595,-3,-1,-2,-3,-2,-1,-2,-1
1570179763483595,2,1,-1,-1,2,0,-1,-3
1570179763496938,0,-1,-2,-1,0,-2,0,2
1570179763496938,-6,-1,-1,-2,-1,-2,0,-6
1570179763503575,0,0,0,-1,1,0,0,1
1570179763503575,-1,-1,0,-2,-1,0,-2,0
1570179763519475,-4,-1,0,0,0,2,-1,-3
1570179763519475,2,2,0,0,-1,4,0,3
1570179763521470,4,-1,-2,0,1,-1,1,2
1570179763521470,-4,-1,0,2,-1,-2,2,-8
1570179763542417,3,1,-1,0,0,-2,0,-3
1570179763542417,1,-1,-1,-1,0,-2,0,6
1570179763544409,0,-1,0,0,0,-1,0,2
1570179763544409,2,-1,-1,-1,1,1,1,1
1570179763556412,-1,1,0,-1,-1,0,0,2
1570179763556412,2,0,2,0,1,-2,1,0
1570179763563361,1,-1,0,-2,0,-1,0,-4
1570179763563361,-2,0,0,0,-1,1,-1,2
1570179763579314,-3,-1,0,-1,-2,0,-2,-3
1570179763579314,2,0,-3,-2,-1,1,0,-12
1570179763587298,8,0,-1,0,-3,0,0,21
1570179763587298,-6,-2,-1,-1,-1,-2,-2,-5
1570179763610232,3,-2,0,-1,0,-1,-1,1
1570179763610232,1,-1,0,0,-2,-1,1,2
1570179763611229,-3,0,0,-3,-1,-2,0,-5
1570179763611229,3,-3,-2,0,0,-1,0,3
1570179763616698,1,-1,-1,1,-1,0,1,4
1570179763616698,-1,-1,-3,-1,-2,-1,1,0
1570179763623253,-5,0,0,0,0,1,-1,-8
1570179763623253,2,-1,-1,-1,-1,0,1,5
1570179763640153,-5,-2,-2,-1,0,-1,0,-4
1570179763640153,2,-1,0,0,-1,0,2,2
1570179763641487,-3,-1,-2,1,1,-1,-1,-4
1570179763641487,-1,0,0,1,0,0,0,-1
1570179763662099,0,-1,-2,0,-1,0,0,1
1570179763662099,2,0,-2,-1,-2,-1,-2,7
1570179763664091,-3,-2,-2,-1,-2,-2,-4,-12
1570179763664091,3,0,0,0,-1,0,0,-1
1570179763677055,-2,-1,0,-1,-1,0,-3,-3
1570179763677055,-2,0,-1,0,0,-1,0,-5
1570179763683038,7,-1,-1,-2,0,-1,2,20
1570179763683038,1,-2,-1,-2,-3,-1,-1,4
1570179763700235,0,-2,-1,-2,0,-1,-1,-3
1570179763700235,-3,-1,-1,0,0,-1,-3,2
1570179763700990,-2,-1,1,0,-2,-1,0,-9
1570179763700990,3,0,-1,0,-2,-1,-1,9
1570179763722011,2,0,0,0,-1,-1,-2,6
1570179763722011,-2,-1,1,0,1,2,-2,-6
1570179763723937,-2,-3,-1,0,0,1,1,1
1570179763723937,-1,-4,-1,-1,-1,-2,-1,2
1570179763736897,-5,1,-2,2,-1,0,-2,-5
1570179763736897,1,-1,0,0,-1,0,-1,1
1570179763743978,-3,0,0,0,-2,-2,-2,-1
1570179763743978,2,1,0,-1,0,0,1,0
1570179763759965,3,-2,-2,-2,0,0,-1,2
1570179763759965,8,-1,-3,0,0,-2,1,12
1570179763761827,-1,-1,0,0,0,-2,-1,-4
1570179763761827,-2,0,0,-2,0,1,-1,3
1570179763782773,-3,-1,1,-1,1,0,0,-4
1570179763782773,-2,1,-1,0,0,-2,-2,-3
1570179763783771,-2,-3,-1,-1,-2,-1,-1,0
1570179763783771,1,0,-2,1,1,0,1,-6
1570179763796734,0,-1,0,1,-2,-1,1,-2
1570179763796734,1,-1,1,0,0,0,4,15
1570179763810899,-1,-1,1,1,-1,0,0,0
1570179763810899,-5,-1,0,0,-3,-2,-1,-9
1570179763819675,1,1,-1,-1,0,0,0,4
1570179763819675,-3,-1,-2,-1,-1,-3,-1,-8
1570179763821667,4,1,-1,-1,0,0,0,2
1570179763821667,-5,-1,0,-1,-1,-1,-1,2
1570179763842612,1,-1,0,-2,0,2,-1,1
1570179763842612,3,0,0,-1,0,0,-2,0
1570179763843608,-1,0,-1,0,1,-2,-2,-3
1570179763843608,-2,-2,-1,0,-2,-1,-2,-7
1570179763855575,2,0,-2,1,1,-3,1,1
1570179763855575,-14,-1,0,1,-1,1,0,-17
1570179763864624,-2,0,0,-1,-2,-1,-2,-12
1570179763864624,-3,-2,-3,-1,-1,-2,-2,-9
1570179763879552,-1,0,0,-2,0,-2,1,0
1570179763879552,4,0,-1,-2,0,-1,-1,4
1570179763881506,-6,-1,-1,0,-1,0,-3,-10
1570179763881506,0,0,0,0,0,0,1,0
1570179763902455,-2,-1,-1,0,-3,0,0,0
1570179763902455,-9,-1,-1,-2,-1,-2,0,-12
1570179763903493,-2,-2,-2,-1,0,-1,1,6
1570179763903493,2,0,-1,1,-1,0,-1,7
1570179763916485,-2,-2,-2,1,0,-1,-1,0
1570179763916485,3,0,0,2,-3,-1,-1,1
1570179763925390,2,0,0,1,-1,-1,0,2
1570179763925390,1,1,0,-1,1,-1,-3,-5
1570179763939472,-2,0,1,-1,0,1,1,4
1570179763939472,-1,0,-1,-1,0,0,-1,-3
1570179763941347,-3,-1,-1,-2,0,1,-1,-2
1570179763941347,1,-1,-1,-2,-2,0,1,5
1570179763962548,-1,0,0,0,0,0,0,-11
1570179763962548,1,0,-1,-1,-1,-1,1,2
1570179763964285,-2,1,-1,-2,0,-3,1,3
1570179763964285,-4,0,0,0,0,-1,-1,-3
1570179763976255,4,0,-1,-1,-1,2,0,10
1570179763976255,-1,-1,-1,0,1,0,1,1
1570179763985234,5,-2,-1,-1,-1,0,-1,7
1570179763985234,-5,-1,-1,-1,0,-2,0,-2
1570179764000191,0,-1,-1,0,-1,-2,0,1
1570179764000191,2,1,-1,0,0,1,0,-1
1570179764001189,0,0,-2,0,0,0,0,3
1570179764001189,-1,-1,-1,-1,-1,0,-1,0
1570179764022484,-2,-1,-1,-1,0,-1,-2,-3
1570179764022484,1,-1,-2,-1,-1,-1,0,0
1570179764024127,-2,0,1,-1,-1,2,-1,-4
1570179764024127,-1,0,0,-1,0,0,-1,1
1570179764036102,-3,-2,0,-2,-1,-2,-1,-7
1570179764036102,-1,-2,0,0,-2,-1,-1,9
1570179764045072,0,-1,-1,-1,1,-1,-1,1
1570179764045072,4,0,0,0,-1,-1,2,12
1570179764060028,4,2,-1,0,0,0,1,6
1570179764060028,1,0,0,-1,0,-1,1,4
1570179764061031,-1,0,0,-1,0,0,-1,1
1570179764061031,-3,-2,0,0,0,0,-1,-7
1570179764082215,-1,0,-2,-1,0,0,0,-1
1570179764082215,-1,-1,-2,0,-1,1,-3,-1
1570179764083967,-3,-2,1,1,1,1,-1,-6
1570179764083967,-3,2,0,-1,1,-1,-1,-1
1570179764096282,1,-1,-1,-1,-1,-2,-2,-11
1570179764096282,1,0,-1,-3,0,1,-1,-3
1570179764104909,-2,-2,-2,1,-2,1,0,-5
1570179764104909,2,-2,-2,0,-1,0,1,3
1570179764120028,2,-2,1,0,-1,1,-2,4
1570179764120028,-7,-1,-2,-1,0,-2,-1,-5
1570179764120867,-9,-1,1,0,0,-2,-1,-12
1570179764120867,13,2,-1,-1,0,-1,3,21
1570179764142809,-2,0,-1,-2,0,-2,-3,-14
1570179764142809,0,-2,-1,-1,-2,-1,-1,-2
1570179764143809,2,-1,-1,0,0,-1,0,6
1570179764143809,-4,-1,-1,0,-1,-2,-2,-10
1570179764164750,-4,0,0,1,1,-1,0,2
1570179764164750,2,0,0,-1,0,1,-1,4
1570179764166837,0,0,-1,-2,-1,0,-1,-2
1570179764166837,-1,0,0,-1,-1,-1,-1,-3
1570179764180147,-2,-3,0,-1,-1,-1,-4,-5
1570179764180147,5,0,-1,-3,-1,-1,1,8
1570179764181704,-1,0,-1,-1,1,-2,1,8
1570179764181704,-2,-2,-1,-3,-1,-2,-3,-3
1570179764202782,-3,0,0,-1,-1,0,1,4
1570179764202782,-1,0,0,1,-1,-1,0,-4
1570179764203649,5,-2,-2,-3,-1,0,0,3
1570179764203649,-5,0,-1,-3,-1,-2,-3,-18
1570179764215614,-1,-1,-2,-2,-2,-2,-1,-3
1570179764215614,3,-2,-1,-1,0,-2,0,3
1570179764224705,0,0,0,1,-3,0,0,0
1570179764224705,-1,-1,1,-1,-2,0,-2,-4
1570179764239550,0,-1,-2,-1,-2,1,-1,4
1570179764239550,-3,-1,0,0,-1,-1,-1,-4
1570179764241624,-2,-1,2,1,2,0,1,-4
1570179764241624,-3,-1,1,1,0,0,2,-1
1570179764262491,3,2,0,-1,0,-1,-10,21
1570179764262491,0,0,-3,-1,-1,2,8,8
1570179764263698,-3,-1,-1,-1,-1,-1,2,1
1570179764263698,-1,-1,-1,0,-1,-2,-4,-2
1570179764284706,-6,-1,0,-2,-1,-1,-1,-12
1570179764284706,-7,0,-1,0,-1,0,-1,-2
1570179764286431,3,0,-2,-1,-1,-2,0,2
1570179764286431,-3,-2,-1,1,0,0,3,-1
1570179764298515,-2,-1,0,0,0,-1,2,-10
1570179764298515,9,3,1,1,0,0,-8,9
1570179764307371,-3,0,0,1,-2,-1,-3,-7
1570179764307371,3,-1,-1,-2,-1,0,-1,-4
1570179764322369,-4,-1,-1,-1,0,-1,1,-3
1570179764322369,2,-1,0,-1,-1,-2,-2,-1
1570179764324323,-8,-3,-2,-1,-1,1,-2,-16
1570179764324323,7,0,0,1,0,-1,-1,15
1570179764344269,-5,-1,-1,-1,-2,-1,1,-5
1570179764344269,-3,-2,-1,-1,1,0,1,-4
1570179764351257,2,0,-2,-1,-1,-1,1,4
1570179764351257,0,-1,-1,-1,0,-1,1,-4
1570179764367212,0,1,0,-1,0,0,2,3
1570179764367212,-7,-2,0,0,-2,-1,-3,-10
1570179764369204,8,2,0,0,-1,0,-2,17
1570179764369204,-2,-1,-1,1,0,1,-3,0
1570179764382168,6,0,-2,-2,-1,-1,0,8
1570179764382168,-2,0,-1,-1,0,-2,-1,-1
1570179764384273,-1,0,-2,-1,-1,0,-1,-3
1570179764384273,-2,-1,0,0,0,0,-1,-4
1570179764405114,-2,-2,0,1,0,-1,-1,-2
1570179764405114,-1,-2,-1,-1,-1,1,0,-2
1570179764406103,7,1,-1,0,0,-3,0,7
1570179764406103,-5,0,0,-2,-1,-1,0,-3
1570179764420066,-2,0,0,-2,-2,-3,-1,-4
1570179764420066,4,-1,0,-1,-1,0,1,3
1570179764421064,-3,-1,-2,-2,2,0,-2,5
1570179764421064,2,-1,-3,-1,-2,-1,0,0
1570179764442010,-2,-1,-1,1,-1,-1,-1,-4
1570179764442010,-3,0,1,0,0,-2,-1,-9
1570179764444002,0,-1,0,0,-2,-1,1,-4
1570179764444002,-3,-1,-1,0,-2,0,-1,0
1570179764465072,-5,-2,-2,1,-1,1,-1,-5
1570179764465072,8,1,-1,0,-2,-1,1,5
1570179764466986,-2,-1,0,-1,1,0,-3,-2
1570179764466986,0,-2,-1,0,-1,-1,-1,1
1570179764478915,3,0,-1,-2,-2,-1,-1,2
1570179764478915,-1,-1,0,-1,-1,-1,-2,0
1570179764485896,-7,-1,-1,-2,-1,0,0,-5
1570179764485896,3,1,0,-1,-1,0,1,3
1570179764502845,0,0,0,0,-2,0,1,-2
1570179764502845,0,-1,-2,0,0,-1,-1,-2
1570179764503842,3,-2,-1,-1,-1,0,-1,1
1570179764503842,0,0,0,-1,0,0,2,13
1570179764532767,0,-1,0,0,-1,-1,0,1
1570179764532767,-5,0,0,-2,1,0,-2,-3
1570179764533770,3,0,0,0,-1,1,1,0
1570179764533770,1,0,-1,1,1,-1,-7,3
1570179764538751,-4,-1,-2,-1,-1,0,5,-11
1570179764538751,-2,-2,-2,-1,-1,0,-1,1
1570179764545968,-3,1,1,0,-1,-1,-2,-6
1570179764545968,-3,-1,1,-1,0,0,-1,-2
1570179764562685,7,0,-1,1,-2,1,1,9
1570179764562685,-3,-2,0,-2,-1,-1,-1,-7
1570179764563683,2,0,0,-2,-2,0,1,0
1570179764563683,-6,-1,0,-1,0,0,0,-12
1570179764584721,4,-1,0,-1,-1,-3,-2,5
1570179764584721,3,-1,0,-1,0,-2,0,7
1570179764586683,2,-2,-2,0,-1,-2,-3,8
1570179764586683,3,0,-1,-1,-2,0,-1,-3
1570179764599590,4,-1,-1,0,2,0,1,21
1570179764599590,-4,-1,0,0,-3,-1,-2,-5
1570179764605572,-6,-3,-1,0,0,-2,-1,-17
1570179764605572,0,-1,0,0,-2,0,-2,1
1570179764622528,-12,-1,-1,0,0,-3,-3,-23
1570179764622528,0,-1,-1,0,0,1,1,1
1570179764623527,0,0,-1,-1,0,1,2,2
1570179764623527,-3,-1,0,-1,-2,-1,-2,-5
1570179764645039,7,0,-1,-1,-2,2,-2,5
1570179764645039,-5,2,0,-1,-1,-1,-1,-4
1570179764646591,-1,-1,-3,-2,-1,-2,-1,-3
1570179764646591,6,4,2,1,2,1,6,14
1570179764659617,3,-2,0,-1,-2,-1,0,4
1570179764659617,3,0,0,-1,1,-1,0,9
1570179764666408,-5,-1,-1,-1,0,2,2,2
1570179764666408,-2,0,-2,-1,0,-3,-3,-5
1570179764682368,6,-1,-1,-1,0,1,2,10
1570179764682368,-3,-2,-2,-3,-1,0,5,-8
1570179764684582,0,-1,-1,0,0,-2,-2,-6
1570179764684582,-5,-2,-3,0,-1,1,7,-15
1570179764705304,-1,-1,-1,0,0,-3,-11,0
1570179764705304,1,1,-1,0,-3,-1,1,4
1570179764706302,2,0,0,-1,0,-1,0,5
1570179764706302,7,-1,-2,-2,-2,0,0,7
1570179764719270,-7,-1,0,0,-1,-2,1,-10
1570179764719270,-1,0,1,-1,-2,-1,-2,-2
1570179764726315,1,0,-1,-1,-2,-1,0,7
1570179764726315,-2,0,0,0,-1,-2,-3,-2
1570179764742205,0,-1,-2,-2,0,1,1,0
1570179764742205,-3,-1,-1,0,-1,0,-7,-16
1570179764744201,1,1,1,0,-1,-2,-2,1
1570179764744201,-4,-2,-2,0,-2,0,-3,-10
1570179764765151,-2,0,-1,-1,0,-2,-3,-5
1570179764765151,6,-2,-2,0,-1,-1,1,1
1570179764766141,-2,-2,-3,-1,-2,0,0,-2
1570179764766141,-2,0,-1,-2,-1,-1,-1,-1
1570179764778111,-3,0,1,1,-1,-1,-1,-2
1570179764778111,-3,-1,-1,0,0,1,-1,-1
1570179764787213,-3,-1,0,-1,-1,0,-2,-1
1570179764787213,-1,0,0,-2,0,-1,-1,1
1570179764802109,6,-1,-2,-3,-1,0,1,7
1570179764802109,2,0,-1,-2,0,-1,1,7
1570179764804040,1,1,-1,0,-1,-2,1,1
1570179764804040,-5,-2,-1,-1,-1,-1,-3,-4
1570179764824200,-2,0,0,-2,-1,1,0,-1
1570179764824200,0,-2,-2,0,-2,1,1,6
1570179764832043,0,1,1,1,0,1,-1,-4
1570179764832043,3,0,-1,0,0,-2,0,3
1570179764837951,-2,1,-1,-2,1,-1,1,-4
1570179764837951,8,0,-1,-1,0,-1,1,13
1570179764847924,1,-1,-2,-1,-3,0,-11,-15
1570179764847924,-2,-1,-1,-1,-2,-2,-2,5
1570179764861921,-2,1,-1,1,0,-2,1,-2
1570179764861921,-3,-1,1,0,-1,-1,-3,-5
1570179764868866,-2,-3,-2,-2,-1,-1,1,1
1570179764868866,-2,-1,0,-2,-1,-2,-3,-9
1570179764884872,-7,-2,-1,-2,-1,1,1,-6
1570179764884872,-10,-2,-2,0,-1,-2,0,-5
1570179764886820,-6,0,0,-1,-1,-2,-1,-9
1570179764886820,-2,-2,-2,-1,0,2,1,1
1570179764898789,-4,0,-1,-1,-2,-1,0,-2
1570179764898789,3,1,1,0,-2,0,1,6
1570179764913750,-2,-2,-1,0,-2,1,1,-12
1570179764913750,-1,0,-1,-1,0,1,-2,3
1570179764922763,6,2,1,0,2,-1,-5,22
1570179764922763,0,0,-1,-2,0,2,-1,-11
1570179764923724,-1,0,0,-1,0,-1,-1,1
1570179764923724,5,0,0,1,-3,-1,1,8
1570179764944669,0,-2,-1,-1,-2,-1,0,-9
1570179764944669,-3,0,-1,0,-1,-3,0,-4
1570179764946658,-3,0,0,0,0,0,1,5
1570179764946658,1,-1,-2,0,-1,0,3,2
1570179764958666,-13,-3,-2,-1,-2,1,4,-18
1570179764958666,-2,-3,0,-1,-2,-2,-5,6
1570179764967660,1,0,0,-2,1,1,1,7
1570179764967660,-4,-1,0,0,-3,-2,0,-2
1570179764982658,3,-1,-1,0,-2,0,2,6
1570179764982658,-1,0,1,-2,0,2,-1,-6
1570179764983560,0,0,0,-1,0,0,2,2
1570179764983560,-1,-1,0,-1,1,-1,-2,-1
1570179765004508,-2,0,-3,-1,0,1,-1,-14
1570179765004508,-6,-3,-1,0,0,2,9,-10
1570179765006499,1,0,2,1,1,-3,-18,-3
1570179765006499,4,0,0,0,-1,-2,0,3
1570179765018468,2,-1,0,1,-1,-1,1,1
1570179765018468,-2,0,0,0,2,-1,0,-5
1570179765035423,2,-1,-2,-1,-1,1,5,3
1570179765035423,2,-1,-1,-1,-1,1,-1,-5
1570179765042405,-1,-1,-1,-1,1,-1,-3,0
1570179765042405,-1,0,-1,-2,0,-1,-2,1
1570179765044399,9,-3,-3,-2,-2,-1,-1,5
1570179765044399,-2,-2,-2,-1,2,-1,-1,-1
1570179765065106,2,-1,1,-2,-2,0,3,5
1570179765065106,2,-1,-1,1,1,1,-2,4
1570179765066340,-3,0,-2,0,-1,-1,4,-2
1570179765066340,-6,2,0,0,-1,-2,0,-5
1570179765078307,2,-1,-2,-2,1,-1,-3,2
1570179765078307,0,0,-2,0,1,-1,-2,0
1570179765087283,-1,0,0,1,0,-2,-2,-7
1570179765087283,8,1,1,0,1,1,4,21
1570179765102362,-3,1,0,0,-1,-1,0,1
1570179765102362,-4,0,-1,0,-3,-2,-1,-7
1570179765104332,1,0,0,-2,-1,0,2,3
1570179765104332,-1,-2,-2,-1,-2,-1,-2,-3
1570179765125185,1,-2,-1,0,-1,-2,-3,2
1570179765125185,0,0,0,0,1,0,0,5
1570179765126217,-1,0,1,-1,1,-3,-11,13
1570179765126217,-1,-2,-1,0,-1,0,1,-2
1570179765138150,-5,-1,1,0,-2,-2,-5,-4
1570179765138150,1,-2,-3,-2,-2,-2,-5,-2
1570179765147121,-5,-1,0,0,1,0,4,-6
1570179765147121,2,-2,-1,-1,-2,0,0,3
1570179765162085,4,-1,-1,-2,0,-1,-1,2
1570179765162085,0,-1,0,-2,0,-2,1,5
1570179765164187,-7,-1,0,0,0,0,4,-14
1570179765164187,-11,-2,-2,-2,-1,-1,-2,1
1570179765185071,2,-1,-2,-2,0,-2,-1,-11
1570179765185071,-1,-1,-1,0,-2,-2,-4,-17
1570179765186062,0,-2,-2,-2,0,-1,3,1
1570179765186062,3,0,1,-1,-1,-1,-3,-3
1570179765198170,-3,0,0,0,0,-1,-1,2
1570179765198170,0,-1,-1,-4,-2,-2,-2,2
1570179765207961,-2,0,-1,0,-1,0,0,-1
1570179765207961,-1,-2,0,-1,-2,-1,-1,-4
1570179765222582,1,0,1,0,-2,0,2,3
1570179765222582,2,0,0,-1,-1,0,2,3
1570179765223918,-3,-1,-3,1,-1,-2,0,-3
1570179765223918,-1,2,1,1,3,-1,0,7
1570179765244863,0,-2,-3,0,0,3,13,-5
1570179765244863,-17,-3,-2,0,-3,-1,6,-25
1570179765246856,5,0,0,0,-1,-1,-1,4
1570179765246856,-1,-2,-3,-2,-1,-1,-4,-17
1570179765267799,2,-1,-2,1,0,-1,0,8
1570179765267799,1,-1,-1,0,-1,0,2,3
1570179765268800,0,-2,0,-1,-2,1,1,-1
1570179765268800,-5,0,-1,0,-1,-2,0,-12
1570179765282762,-3,1,-1,-1,-2,1,-3,-6
1570179765282762,1,-1,1,-1,-1,-1,-4,7
1570179765283762,2,1,-1,2,-1,0,-1,5
1570179765283762,-4,-2,1,-2,-2,0,-6,-6
1570179765304706,3,0,-1,0,-1,-1,2,14
1570179765304706,3,1,2,0,0,1,-2,6
1570179765306696,4,1,0,-2,0,0,-1,5
1570179765306696,-3,-1,-1,0,1,0,2,-5
1570179765327677,-5,-1,0,1,-1,-2,-7,-5
1570179765327677,3,-1,-2,-1,-1,0,0,4
1570179765329152,3,1,0,-3,-1,1,2,6
1570179765329152,-5,0,-2,-2,-1,0,-1,-9
1570179765342845,-2,-4,-2,-2,-2,-2,-3,-8
1570179765342845,-5,-1,0,1,1,-2,-3,-1
1570179765343598,5,1,1,-1,-2,-1,2,4
1570179765343598,-6,-1,1,1,-1,-1,-1,-7
1570179765364812,7,0,0,1,0,1,2,8
1570179765364812,-4,0,-1,-1,0,-1,-2,-8
1570179765366541,-2,-1,-3,-1,-2,-3,-2,4
1570179765366541,-1,-1,-1,0,-1,0,0,-4
1570179765387483,-4,0,0,-1,0,0,-2,-7
1570179765387483,7,0,0,0,-2,0,-4,6
1570179765388486,-6,-3,0,-1,-1,0,7,-13
1570179765388486,5,-1,-1,-1,-1,-4,-10,5
1570179765401444,-3,-1,-1,0,-2,-2,-3,0
1570179765401444,3,0,-1,0,0,1,3,14
1570179765408424,-4,-2,-2,-1,-2,-1,1,-10
1570179765408424,-6,0,-3,1,0,-1,0,-16
1570179765424453,1,1,-1,-2,0,0,1,1
1570179765424453,-1,1,0,-2,0,-2,-4,-7
1570179765426376,0,-2,-1,0,0,1,-2,2
1570179765426376,2,-1,2,0,0,1,1,5
1570179765447589,0,1,1,-1,0,0,-3,2
1570179765447589,3,-1,0,-2,-1,1,-1,3
1570179765449316,-2,0,-1,0,1,-1,-2,-4
1570179765449316,9,1,-1,-1,-2,0,2,13
1570179765461283,-3,-1,-2,-2,-2,-2,-1,-5
1570179765461283,-6,-1,-1,1,-2,0,3,-9
1570179765468264,0,0,0,-1,-1,-1,1,8
1570179765468264,6,-1,0,0,1,0,4,21
1570179765485221,1,-1,-1,0,-1,1,1,0
1570179765485221,2,0,0,-1,2,-3,-15,4
1570179765486263,2,0,1,1,-2,-2,-2,8
1570179765486263,-4,-1,-2,0,0,-1,2,4
1570179765507293,-5,-3,0,-1,0,-2,-6,-9
1570179765507293,6,-1,-1,0,-1,0,5,5
1570179765509197,-4,-1,-2,-1,0,1,1,-2
1570179765509197,2,-3,-1,-3,-2,-1,-4,5
1570179765530139,-1,-2,-1,2,1,1,2,-3
1570179765530139,-8,-4,-4,0,-3,-1,7,-11
1570179765532180,-10,-2,-2,0,-2,0,0,-11
1570179765532180,-6,0,-2,0,-1,-1,0,-10
1570179765544063,2,0,0,-1,0,-2,0,2
1570179765544063,-8,-4,-2,-1,1,-1,4,-3
1570179765552041,11,0,-1,0,0,-1,0,16
1570179765552041,-3,-2,0,0,-1,0,1,-2
1570179765567085,-3,-1,-1,-2,1,1,13,-11
1570179765567085,-6,-2,-1,1,-2,-1,-4,0
1570179765581058,-4,-1,-3,-3,-1,0,-3,-9
1570179765581058,3,0,0,-1,1,0,1,10
1570179765589943,1,2,2,0,-1,-2,1,8
1570179765589943,4,0,-1,-1,-1,0,0,1
1570179765590939,-3,0,-1,-1,-1,-1,-4,-8
1570179765590939,0,-2,-2,-2,0,1,2,-4
1570179765604937,-3,-1,1,-2,-1,-2,-4,0
1570179765604937,7,0,1,0,-3,-1,-2,9
1570179765605895,-1,0,0,1,1,-1,0,4
1570179765605895,1,1,0,0,0,-1,0,0
1570179765627289,0,-2,-1,-1,0,0,-3,8
1570179765627289,2,0,1,0,0,1,1,-4
1570179765628836,0,-2,0,0,-1,0,0,0
1570179765628836,-3,-1,-2,-2,-1,1,4,-7
1570179765640845,-8,-4,-3,-3,-1,1,14,-14
1570179765640845,-1,2,1,-1,-1,0,-3,-1
1570179765649067,-2,-1,-1,-2,1,-1,-2,-3
1570179765649067,-5,1,0,-1,-1,-3,-3,3
1570179765664745,3,1,-1,-1,-1,1,2,17
1570179765664745,-2,-1,-2,1,-1,-1,1,-6
1570179765666734,7,1,-2,-1,-2,0,1,12
1570179765666734,-2,0,-2,-1,-1,-1,-3,-21
1570179765694661,3,2,1,1,0,-1,-5,4
1570179765694661,2,0,-1,0,-1,-1,0,5
1570179765696654,-3,-2,0,-1,0,-2,-6,-5
1570179765696654,-2,-2,-2,-3,-2,-2,-3,-7
1570179765701639,-1,-1,-2,0,-2,0,-6,-5
1570179765701639,-5,-2,-1,-2,0,-1,-2,-8
1570179765708621,1,0,0,0,-1,-2,2,1
1570179765708621,3,-1,-1,1,-1,0,1,8
1570179765724587,-7,0,-1,-1,-2,-1,-5,-10
1570179765724587,-5,0,-1,-2,0,2,10,-7
1570179765726573,-5,-2,-2,0,-1,-2,-4,-3
1570179765726573,3,1,2,0,-1,-2,-2,6
1570179765746672,5,-1,-2,-1,0,0,-6,4
1570179765746672,1,0,-1,-1,1,0,0,3
1570179765754501,-3,1,0,0,-1,0,-1,5
1570179765754501,7,0,0,0,-1,0,2,8
1570179765760482,-1,-2,0,0,0,-1,-2,-13
1570179765760482,-2,0,-1,-1,-2,-2,-3,-7
1570179765769464,4,0,-1,-1,-1,1,2,4
1570179765769464,-4,-3,-2,-2,-1,1,-1,2
1570179765784577,1,0,1,-1,0,-2,-1,3
1570179765784577,5,-1,0,-1,0,-1,-1,5
1570179765786415,0,0,0,-2,0,1,-1,-6
1570179765786415,2,0,-2,1,0,1,4,2
1570179765807426,-3,-1,-2,-1,-2,-2,-5,1
1570179765807426,0,1,2,1,1,-3,-17,3
1570179765809353,-2,-1,0,0,0,1,2,-3
1570179765809353,-1,1,1,0,-3,0,-2,0
1570179765821322,4,1,-1,0,-1,0,-2,4
1570179765821322,-4,0,-2,0,-1,-1,2,-3
1570179765830302,-3,-1,0,-1,1,1,-1,-7
1570179765830302,-1,-2,-2,-2,-2,-3,-8,-4
1570179765845260,0,1,0,0,-1,-2,-1,6
1570179765845260,0,0,0,-2,0,0,3,1
1570179765846253,-1,-1,-2,-2,0,-2,-2,1
1570179765846253,-3,-1,-1,0,0,0,1,-9
1570179765867690,3,-1,-2,1,-1,0,-1,-2
1570179765867690,-6,-2,0,1,-1,0,-1,-2
1570179765869193,3,-2,0,-1,-1,-2,-1,8
1570179765869193,5,1,1,-1,0,1,2,4
1570179765881159,3,1,2,0,0,-2,-8,8
1570179765881159,3,0,0,1,-1,1,3,3
1570179765890139,-4,0,1,0,0,-1,1,-6
1570179765890139,1,-2,0,-1,0,0,1,1
1570179765905098,2,2,0,0,-2,-1,-14,5
1570179765905098,-1,-1,-2,-2,-3,-2,2,-2
1570179765906092,6,-1,-1,-1,0,0,0,8
1570179765906092,-4,0,0,0,-1,1,0,-2
1570179765927041,-3,-1,-1,-3,-1,1,7,-4
1570179765927041,-2,-1,0,0,0,0,-1,-5
1570179765929031,5,-2,-1,1,-1,-1,-3,6
1570179765929031,-5,-1,0,-2,1,0,0,-4
1570179765941003,-7,-4,-1,1,-1,-1,4,-8
1570179765941003,-1,-2,-3,-3,-1,0,-1,3
1570179765949975,-5,0,-1,0,0,-1,-2,-8
1570179765949975,-1,0,-1,-2,-2,0,0,1
1570179765964938,1,1,-1,1,-2,-1,2,0
1570179765964938,0,-1,0,-2,1,-2,-3,-15
1570179765966146,1,0,1,0,-1,-1,0,1
1570179765966146,1,0,-1,-1,2,-2,-1,12
1570179765986878,2,0,-2,-1,0,1,-2,-5
1570179765986878,0,-1,0,1,0,1,2,0
1570179765988871,-3,-1,-1,0,1,-2,0,-8
1570179765988871,2,-1,-2,-1,0,-1,1,1
1570179766000845,-3,-2,-1,-1,-1,1,5,-2
1570179766000845,-1,0,-2,-1,-1,0,0,-4
1570179766009818,-1,-1,-2,-2,-2,-1,1,0
1570179766009818,2,-2,2,0,2,-2,-8,0
1570179766023778,0,-1,-1,0,1,-1,1,3
1570179766023778,1,0,0,1,-3,-2,0,1
1570179766032757,0,0,-1,0,-2,-1,-1,0
1570179766032757,-6,-1,-3,0,-2,0,2,-10
1570179766047789,2,-2,-2,-1,-2,0,0,-3
1570179766047789,-3,-2,-2,-1,-1,-3,-3,0
1570179766048714,2,0,0,1,-3,2,10,18
1570179766048714,-2,1,0,1,-2,-1,-2,2
1570179766060961,-1,0,0,-2,0,-1,-1,-9
1570179766060961,0,0,0,-2,1,0,-1,8
1570179766069740,-3,-3,-1,-3,0,-1,0,-4
1570179766069740,4,1,1,1,2,-3,-14,7
1570179766083621,-2,-2,-2,-1,-1,0,-1,5
1570179766083621,9,-1,-1,0,-1,-1,4,10
1570179766092599,-10,1,1,0,0,-1,-5,-19
1570179766092599,1,0,1,1,-2,1,2,1
1570179766107602,-3,-2,1,-2,-2,0,-1,-7
1570179766107602,11,-1,-2,0,0,0,-5,29
1570179766109556,-2,-1,0,0,-1,0,0,-6
1570179766109556,0,-2,-2,-1,-1,0,3,2
1570179766120834,-2,-1,-1,-1,-1,0,0,8
1570179766120834,-5,0,-1,-1,-2,0,2,-8
1570179766130492,-1,-1,-1,-1,1,0,-2,-6
1570179766130492,-2,-1,-1,-1,-1,0,10,-7
1570179766145517,4,-2,-1,0,0,-2,-2,0
1570179766145517,-1,-1,-1,-1,0,-2,1,4
1570179766146660,1,-1,0,-2,-1,0,-1,2
1570179766146660,-3,-1,-2,-2,-1,-1,1,-12
1570179766167393,2,-1,-1,-1,-1,-1,3,8
1570179766167393,-1,-1,1,0,0,0,-1,-7
1570179766169389,0,0,-1,0,0,1,0,1
1570179766169389,0,-1,-2,-1,-1,-1,-1,0
1570179766189337,-5,0,0,-1,2,0,-1,-7
1570179766189337,-1,2,0,1,2,0,1,10
1570179766191333,-5,-1,0,0,-2,2,-2,-14
1570179766191333,0,0,-1,0,-1,-1,-4,10
1570179766204295,-2,1,1,-1,-1,-1,-1,-10
1570179766204295,3,-1,-1,-3,-2,0,0,1
1570179766206291,1,1,-1,1,-1,-3,-9,0
1570179766206291,10,3,1,2,-1,-2,-19,18
1570179766227316,-7,-3,-2,0,-1,-1,-3,-5
1570179766227316,-10,-1,-2,0,0,-1,-3,-21
1570179766229381,-2,0,-1,-2,0,0,1,2
1570179766229381,-3,-2,-2,-2,-2,1,5,-3
1570179766257814,0,0,-2,2,-1,-1,-1,2
1570179766257814,-2,-1,1,-2,-1,-1,-2,-8
1570179766258748,2,-1,-2,-1,-1,1,3,5
1570179766258748,-2,-2,-1,0,0,-1,4,-11
1570179766264771,2,1,0,1,0,-1,1,2
1570179766264771,-1,0,-1,2,-2,-1,1,-6
1570179766266731,5,0,0,0,1,1,1,2
1570179766266731,3,0,0,1,-1,-1,2,-1
1570179766287671,0,-1,-2,-3,-1,-1,0,0
1570179766287671,-2,0,0,-2,0,-1,-2,1
1570179766288668,-3,-2,0,1,-1,-1,-1,-2
1570179766288668,-5,1,-1,-1,1,0,-1,-13
1570179766310437,-3,-3,1,-1,0,1,-1,-4
1570179766310437,1,0,-1,-2,-2,1,1,1
1570179766311328,5,-1,-1,0,-2,-1,-1,3
1570179766311328,-11,-1,-1,0,2,1,1,-10
1570179766325297,-2,-1,-1,-1,-2,-1,-4,-4
1570179766325297,-5,-3,-2,-2,-2,0,11,-17
1570179766326201,7,1,1,0,1,-4,-14,11
1570179766326201,-5,-1,-3,0,-2,0,1,-7
1570179766347079,3,1,-1,-1,-1,0,1,7
1570179766347079,-5,-1,-1,0,-2,-1,-2,-12
1570179766349018,4,-1,-1,-2,0,1,5,6
1570179766349018,-2,-2,0,-1,0,-2,0,0
1570179766369855,1,-1,-1,1,1,-1,0,2
1570179766369855,0,0,1,1,0,0,-2,3
1570179766371850,-9,-1,-2,-2,-1,0,1,-4
1570179766371850,6,-1,2,-2,-2,-1,-3,-1
1570179766383968,-3,-2,-1,-2,-1,-1,1,3
1570179766383968,-2,-1,0,0,0,1,-2,-1
1570179766390951,0,-1,0,-2,-1,0,3,1
1570179766390951,0,-1,-1,-2,0,-1,2,4
1570179766406466,-1,0,0,1,0,0,0,-4
1570179766406466,1,1,-1,-1,-1,-1,-3,4
1570179766415421,-2,-1,-2,-1,-1,0,1,-4
1570179766415421,13,3,0,0,-1,0,-10,23
1570179766429820,-7,-1,1,-1,-2,-1,-1,-6
1570179766429820,2,-1,1,0,1,0,-3,6
1570179766431500,0,-3,-3,-3,0,-2,-1,-22
1570179766431500,2,1,0,0,-1,0,-4,0
1570179766444679,2,1,-2,-1,0,-1,-2,4
1570179766444679,8,0,-3,-1,0,-1,2,18
1570179766451206,-6,-1,-1,0,-2,-1,-3,-4
1570179766451206,-4,-3,-1,0,1,-1,2,-9
1570179766467168,3,2,0,0,1,0,-1,2
1570179766467168,-3,-1,0,-1,-1,-1,1,-6
1570179766469399,2,0,0,0,-3,-1,2,5
1570179766469399,-3,-1,-1,-2,0,0,3,-1
1570179766489777,-1,0,1,0,-1,-1,0,1
1570179766489777,-1,-1,-2,-2,-1,-1,5,-4
1570179766492119,-9,-5,-2,-2,-1,-4,-12,-20
1570179766492119,-2,-1,0,0,-1,0,2,-1
1570179766504522,1,0,-1,0,-1,0,2,6
1570179766504522,-16,-3,0,-1,-1,-1,-1,-36
1570179766511676,-5,-2,-1,-1,-2,1,-1,1
1570179766511676,-13,-3,-3,-4,-3,-3,3,-20
1570179766527593,-5,-4,-1,-2,1,-1,0,-18
1570179766527593,16,4,2,2,0,1,1,45
1570179766533550,6,4,2,3,1,0,-1,30
1570179766533550,2,0,-1,0,0,1,3,12
1570179766549881,-17,-2,-1,0,-1,-1,-3,-18
1570179766549881,-4,-3,-2,-2,0,-1,-2,-8
1570179766551879,2,2,0,-2,-1,0,7,7
1570179766551879,0,1,0,1,-2,-2,-2,6
1570179766564680,5,1,1,2,-1,-2,-5,9
1570179766564680,2,-1,0,2,1,0,-5,-1
1570179766571243,3,-2,-3,-1,0,1,9,7
1570179766571243,-6,-2,-1,-1,0,-1,1,-13
1570179766587201,5,-4,-2,-4,-2,2,4,7
1570179766587201,-3,-2,-1,-1,-2,-3,0,-3
1570179766589195,-5,1,0,2,2,-1,-9,-13
1570179766589195,11,3,4,4,4,-2,-8,8
1570179766609906,5,-2,-4,-4,-1,1,-1,2
1570179766609906,-2,-1,-3,-1,1,0,-2,1
1570179766611712,-2,-2,5,0,-11,0,11,6
1570179766611712,3,-1,-7,-3,2,1,14,4
1570179766624669,11,5,0,1,2,-4,-21,14
1570179766624669,-7,-1,-1,-2,0,2,3,-12
1570179766638631,13,0,4,-2,2,-6,-18,12
1570179766638631,3,6,-2,-2,-3,2,-6,-8
1570179766647610,0,9,-4,-5,-3,-4,23,16
1570179766647610,16,-1,7,6,2,0,6,13
1570179766648662,-10,-27,-25,-8,-2,-3,1,-6
1570179766648662,-3,-11,4,4,-2,1,1,-9
1570179766670235,-20,2,8,13,7,5,-6,-23
1570179766670235,1,2,3,-10,-4,-1,-4,2
1570179766671542,-7,19,9,2,-3,2,8,-2
1570179766671542,28,-5,-18,-6,6,-2,-8,4
1570179766683511,-19,-19,-8,6,3,3,7,5
1570179766683511,-4,-14,-4,0,4,0,5,-6
1570179766692488,17,7,-15,-4,1,1,-16,-7
1570179766692488,-21,-2,17,2,-6,-2,6,-5
1570179766707579,26,25,19,4,-4,-2,-19,-4
1570179766707579,-35,-29,-24,-4,-9,-2,8,9
1570179766709084,12,7,3,-10,-8,1,11,-2
1570179766709084,-9,4,-7,8,18,8,0,-3
1570179766730387,15,13,11,5,1,2,6,1
1570179766730387,10,3,-6,-10,-14,-3,-1,10
1570179766731385,-21,-17,1,10,16,2,-2,-16
1570179766731385,0,14,7,-7,-14,-4,6,6
1570179766743351,-10,-12,-8,-14,-7,-5,-22,-18
1570179766743351,13,20,-6,-13,3,-5,-32,-10
1570179766752327,-7,-26,5,12,10,10,71,3
1570179766752327,1,-3,7,12,-4,-9,-61,7
1570179766775266,1,-11,-19,2,-24,-17,-12,13
1570179766775266,1,19,7,-4,10,4,23,-13
1570179766776266,-5,7,-2,-5,-5,-9,-71,-30
1570179766776266,1,-7,-11,-22,-10,3,57,28
1570179766791224,-9,1,0,-5,8,6,40,-1
1570179766791224,10,-1,1,13,20,6,-33,8
1570179766791224,-6,2,4,1,-5,-12,-20,-4
1570179766791224,-11,-7,-5,-1,-3,0,-6,-20
1570179766804187,-3,-1,3,-11,-21,-3,10,10
1570179766804187,1,5,10,24,6,4,18,1
1570179766816157,16,15,2,8,22,16,16,12
1570179766816157,9,4,-17,-33,-25,-14,-19,-5
1570179766827126,-22,-29,7,40,33,13,8,0
1570179766827126,10,21,10,-8,0,1,-5,-6
1570179766829122,-14,-38,-36,-51,-24,-8,-17,-2
1570179766829122,-12,13,28,48,3,-6,7,4
1570179766850064,10,2,-17,-21,-10,-3,-2,-15
1570179766850064,7,18,19,15,-18,-17,-7,3
1570179766851062,12,8,-9,-19,-8,-5,4,7
1570179766851062,14,-5,-18,-26,10,6,6,-4
1570179766863704,-18,-19,11,10,1,1,-13,-12
1570179766863704,-47,-19,-8,6,16,5,-1,-8
1570179766872680,7,9,-2,3,-2,2,9,12
1570179766872680,16,13,15,36,21,14,16,14
1570179766887639,44,12,-11,-20,-28,-19,-7,-8
1570179766887639,-9,-1,-11,-34,-1,3,-36,-26
1570179766888636,-20,-5,14,45,11,5,8,15
1570179766888636,-38,-45,-18,-18,-17,-6,2,12
1570179766909582,-9,21,16,13,14,9,9,21
1570179766909582,77,28,14,34,1,-10,13,0
1570179766911614,-55,2,0,-18,7,-2,-8,-22
1570179766911614,32,20,3,-3,-5,-2,-8,0
1570179766923545,-46,-24,-10,9,1,-4,7,-24
1570179766923545,10,-20,-4,5,-14,-10,-9,11
1570179766938593,52,25,20,30,26,11,2,-12
1570179766938593,-3,21,-24,-53,-25,-13,-4,-8
1570179766946483,-54,-22,22,36,40,14,6,5
1570179766946483,69,65,25,15,-7,-1,0,3
1570179766953499,-94,-44,1,8,-13,-6,12,-6
1570179766953499,52,35,3,-15,-11,1,-11,-7
1570179766969444,-4,-29,-29,-36,-2,0,-13,0
1570179766969444,-51,-32,-16,1,15,10,6,3
1570179766971417,21,1,-3,-19,-30,-17,8,23
1570179766971417,-21,-21,-16,-39,-9,-2,-8,12
1570179766983385,57,39,15,23,4,-3,-10,3
1570179766983385,46,17,-14,-34,2,10,11,5
1570179766992471,-27,-26,6,28,-2,0,-2,-11
1570179766992471,0,6,5,12,-8,-9,0,-7
1570179767006458,16,13,5,-5,-21,-15,-14,-9
1570179767006458,-63,-50,-15,-18,-9,-1,0,-4
1570179767013307,40,24,3,-5,31,11,11,9
1570179767013307,-55,-51,26,70,48,23,-4,-14
1570179767030259,76,62,3,-7,-29,-11,3,11
1570179767030259,-18,4,12,14,-3,-5,4,2
1570179767031257,-3,-15,-19,-43,4,-1,-10,-10
1570179767031257,-5,-1,-2,6,22,7,0,-21
1570179767043224,12,6,4,-1,3,2,2,-5
1570179767043224,-2,6,-21,-35,-22,-3,-8,1
1570179767052201,-20,-26,-11,-6,-6,0,-8,-15
1570179767052201,15,19,11,6,3,5,23,16
1570179767067158,-31,-32,-12,-25,-1,7,-7,10
1570179767067158,6,15,12,11,-9,-5,13,-6
1570179767073260,15,20,-2,11,-13,-19,-12,5
1570179767073260,21,3,-17,-36,-37,-8,5,9
1570179767090101,-59,-26,-3,0,10,-1,-7,-18
1570179767090101,13,0,14,38,21,4,1,13
1570179767091134,0,-8,14,9,4,6,4,1
1570179767091134,54,40,6,18,-6,-14,-13,-12
1570179767103063,-6,-7,-21,-27,-2,1,0,-3
1570179767103063,-12,-12,-11,-12,-3,-3,-4,5
1570179767112084,15,8,9,4,-33,-2,4,-3
1570179767112084,-23,12,20,36,18,1,-4,-3
1570179767127056,0,-6,-6,-17,2,7,-1,-10
1570179767127056,-35,-18,-6,-11,-28,-7,7,5
1570179767141072,85,20,-4,5,4,-15,-14,-15
1570179767141072,-99,-74,-5,4,3,1,-2,-18
1570179767148940,34,16,-9,-2,5,0,0,1
1570179767148940,-18,-22,-3,1,8,8,5,6
1570179767157916,10,4,-7,-22,7,11,6,19
1570179767157916,20,-2,-10,-7,7,0,-4,-15
1570179767171878,-27,-28,-3,1,-6,0,1,-2
1570179767171878,-26,-33,-7,-17,-4,-13,-17,7
1570179767173874,35,65,8,1,-11,1,3,2
1570179767173874,-17,-8,1,-8,-8,-4,-3,5
1570179767195030,7,9,-2,-7,-7,0,1,-3
1570179767195030,33,29,-7,-1,1,1,6,10
1570179767196818,-40,-3,13,28,16,1,-3,11
1570179767196818,-31,-24,12,-5,-2,9,8,15
1570179767217792,42,3,-2,9,7,0,4,1
1570179767217792,-36,-1,2,3,2,0,1,-20
1570179767218758,-11,-8,7,18,3,0,2,1
1570179767218758,21,3,-18,-19,-4,1,-4,-16
1570179767232734,-25,-23,-1,-2,-1,3,3,12
1570179767232734,40,34,21,35,20,3,10,-3
1570179767233756,-24,-32,-12,-5,-7,-4,-21,-17
1570179767233756,14,18,10,10,18,8,14,19
1570179767246680,9,12,2,11,-3,-8,-1,11
1570179767246680,3,3,3,-8,-4,0,-2,-8
1570179767253734,-20,-9,-7,-19,-18,2,14,-3
1570179767253734,14,35,2,-4,1,1,6,5
1570179767268623,6,4,-11,5,13,5,14,11
1570179767268623,-21,-31,-5,1,-7,-5,-24,-9
1570179767277604,6,2,-11,-13,-9,-8,-7,3
1570179767277604,-11,-6,-7,6,6,-1,-2,-41
1570179767292560,6,22,25,0,50,32,16,30
1570179767292560,-12,-25,-17,-7,-45,-11,6,7
1570179767293554,5,16,1,0,-20,-20,-5,6
1570179767293554,6,2,8,-2,-5,-5,-30,-6
1570179767306230,-21,-16,-10,-9,8,-4,-3,3
1570179767306230,-6,-30,-10,-12,7,8,2,-2
1570179767314502,9,4,9,7,13,7,22,27
1570179767314502,-1,-2,-13,-3,-31,-13,16,-4
1570179767329461,8,20,21,12,2,6,-17,35
1570179767329461,8,3,-2,-18,17,9,0,-24
1570179767331454,17,-4,-1,2,12,22,34,23
1570179767331454,-10,11,-7,-9,2,-12,19,-14
1570179767352397,9,9,6,-12,-48,-32,-59,-41
1570179767352397,9,2,2,5,-26,-20,-8,-12
1570179767354422,9,4,19,53,29,23,5,6
1570179767354422,89,15,13,12,5,14,17,35
1570179767366362,-81,-44,-21,4,-13,-12,-5,-44
1570179767366362,37,42,0,8,19,-5,6,57
1570179767373340,-19,-30,-2,-22,11,2,15,-27
1570179767373340,-18,1,20,43,12,6,-53,-7
1570179767389301,-12,2,17,30,5,-2,3,-29
1570179767389301,13,6,-7,-3,-11,0,13,-25
1570179767391295,-8,7,1,12,66,24,-10,35
1570179767391295,-31,-20,-20,-33,-63,-17,-2,4
1570179767411568,46,24,-2,-16,-31,-13,13,32
1570179767411568,-65,-32,12,13,0,5,-1,-29
1570179767428200,10,11,-19,-29,-33,-15,-8,-59
1570179767428200,-28,-23,4,2,14,-7,-2,1
1570179767429191,45,26,-2,0,-9,1,-4,40
1570179767429191,-5,-14,-12,-24,-7,0,5,25
1570179767435175,-17,-14,-5,0,-8,-1,-21,-52
1570179767435175,-15,-1,-8,4,44,21,19,-6
1570179767450138,18,-7,-11,-25,-37,-19,-5,-18
1570179767450138,50,70,10,-6,6,8,12,-13
1570179767451132,-49,-80,-31,-2,2,-6,-18,-49
1570179767451132,-95,-47,-15,-31,-22,-12,2,-40
1570179767472076,51,20,-6,29,41,9,-1,-10
1570179767472076,3,-1,-8,-29,-38,-3,0,15
1570179767474072,80,53,23,0,-19,-11,-6,2
1570179767474072,-32,-41,0,26,11,-4,-1,-20
1570179767486038,-43,-43,-24,-19,24,11,17,-7
1570179767486038,-2,14,13,20,33,10,0,11
1570179767495264,-15,10,6,8,4,2,8,44
1570179767495264,61,21,5,-9,-11,2,-7,44
1570179767509977,-21,-10,-8,-18,-41,-26,-10,-28
1570179767509977,44,8,-13,-7,17,5,9,4
1570179767511033,-115,-47,-9,-17,-47,-20,-6,-8
1570179767511033,-14,-13,-2,3,18,0,-4,30
1570179767532007,26,30,9,5,4,15,18,30
1570179767532007,-17,-11,-8,-10,0,-11,-18,-25
1570179767533912,38,30,8,-11,6,10,-12,3
1570179767533912,21,11,3,1,-7,3,29,-21
1570179767545917,-76,-23,-5,-22,2,4,-10,-15
1570179767545917,-37,-30,-14,18,20,1,-7,19
1570179767555019,23,52,22,21,-3,0,3,42
1570179767555019,14,-16,24,19,1,0,3,5
1570179767569819,6,12,13,10,22,7,8,-16
1570179767569819,17,-1,7,17,17,7,-1,1
1570179767583804,-31,9,-9,-9,-13,-2,-1,-16
1570179767583804,21,20,4,-8,-15,-10,-1,26
1570179767592758,26,4,-3,-5,-25,-4,11,4
1570179767592758,-57,-47,-10,-20,1,-7,-19,-14
1570179767593755,31,22,-6,-12,5,2,1,19
1570179767593755,26,26,-9,-7,-5,-8,-9,5
1570179767606719,-23,-18,15,9,6,6,9,7
1570179767606719,-9,11,12,16,7,8,11,-4
1570179767613697,36,-2,8,-5,9,11,17,29
1570179767613697,-7,-6,-6,6,20,5,-28,9
1570179767629654,2,-4,-23,-25,-9,-3,2,-20
1570179767629654,17,8,10,9,6,6,-5,14
1570179767631650,14,-10,1,-6,0,-7,-17,9
1570179767631650,-7,-19,-15,31,28,17,-2,5
1570179767652835,-7,-6,9,3,-18,-17,-10,3
1570179767652835,41,34,5,-4,-9,-4,-7,-16
1570179767653592,-13,-15,-8,-8,-18,-4,13,-4
1570179767653592,18,15,2,-12,-17,-5,5,13
1570179767667606,10,6,7,1,4,11,-2,22
1570179767667606,8,2,5,12,-5,-5,9,0
1570179767674536,17,4,3,8,3,8,19,12
1570179767674536,21,18,-7,-25,12,-2,-12,-22
1570179767689725,-65,-25,-7,17,18,7,-23,-63
1570179767689725,-22,-15,12,4,-9,-2,11,1
1570179767691489,4,3,7,2,6,-2,-15,-34
1570179767691489,-1,2,-5,-11,-26,-7,17,0
1570179767712434,-4,6,-1,7,24,6,3,-9
1570179767712434,53,18,-8,0,-12,-14,18,-11
1570179767714428,-74,-39,-3,15,12,5,5,-2
1570179767714428,-6,12,17,16,-12,-7,11,-19
1570179767726401,50,8,0,-9,43,19,-10,20
1570179767726401,-26,-19,-10,-17,-35,-21,1,-20
1570179767734375,18,9,7,1,-10,-10,-8,37
1570179767734375,3,17,-12,-27,-22,5,-4,-38
1570179767750333,49,-4,1,24,5,-1,9,51
1570179767750333,-42,-24,-1,6,20,6,5,38
1570179767751330,-9,-12,-22,-27,-27,-15,-7,-32
1570179767751330,1,18,-1,-5,26,9,-2,5
1570179767772420,-2,3,-1,-13,-20,-6,-3,-16
1570179767772420,-83,-33,-10,-12,-16,2,-13,-21
1570179767774269,28,21,12,14,-1,-35,17,-10
1570179767774269,14,-13,8,37,28,22,5,37
1570179767786242,8,8,-2,-6,8,7,-3,-22
1570179767786242,32,-2,-11,-10,-15,2,-12,39
1570179767795212,12,16,-7,-11,6,9,14,-2
1570179767795212,-20,9,23,11,-4,-11,-2,13
1570179767810214,3,-23,-4,7,-3,-4,-3,16
1570179767810214,-1,14,16,2,40,38,1,-39
1570179767811173,0,-5,-15,12,-29,-23,-18,43
1570179767811173,-8,-9,0,0,-4,-9,0,45
1570179767832479,14,28,-3,-13,-20,-9,13,-23
1570179767832479,28,-2,1,14,11,1,-37,28
1570179767834108,4,2,1,13,12,17,20,-13
1570179767834108,-3,-11,10,-16,-6,-7,-43,-25
1570179767846076,-15,32,7,6,-9,-11,7,-24
1570179767846076,-60,-66,-24,3,16,1,2,-25
1570179767855055,32,33,5,-4,0,3,-9,-32
1570179767855055,-38,-44,-30,-33,-14,-3,6,-40
1570179767870014,-11,-2,10,2,14,10,3,32
1570179767870014,35,5,13,6,-13,-11,0,10
1570179767871012,9,-7,-13,-19,-7,0,-8,-23
1570179767871012,-31,6,-12,-21,-11,-5,-7,26
1570179767891957,-12,-32,3,-10,10,8,0,9
1570179767891957,4,14,7,9,-8,10,15,28
1570179767893950,2,-35,-29,-9,22,-1,-13,12
1570179767893950,38,37,27,21,-16,-10,3,-33
1570179767905920,13,30,5,7,14,21,19,9
1570179767905920,-14,-22,-7,3,-34,-25,-10,0
1570179767914897,-1,4,-1,-41,-24,-3,-12,24
1570179767914897,7,-19,-20,9,22,1,8,11
1570179767928856,-23,-39,5,18,-23,-6,11,-9
1570179767928856,71,35,-4,-17,9,-3,0,27
1570179767936840,-33,2,2,-7,12,10,-5,12
1570179767936840,-19,-17,-14,-15,-16,-7,-4,-34
1570179767951797,17,8,-5,-9,-3,-7,-7,-40
1570179767951797,-4,17,6,2,7,8,1,-40
1570179767952791,76,1,-1,-4,-7,1,-13,48
1570179767952791,-35,-8,-1,16,1,-4,-4,-9
1570179767974733,9,1,-22,-36,-32,-13,-11,-1
1570179767974733,-24,-13,5,-5,14,-2,3,-26
1570179767974733,-10,-1,14,30,16,13,11,-12
1570179767974733,27,8,-7,-19,-23,1,13,9
1570179767988892,-3,3,-2,-9,-31,-2,-1,56
1570179767988892,-13,11,3,14,38,9,9,-20
1570179767996677,-3,0,7,0,0,-3,4,1
1570179767996677,21,-6,6,11,21,13,22,5
1570179768011886,-9,10,9,30,18,1,-11,32
1570179768011886,14,11,-24,-43,-35,-13,-6,27
1570179768012631,-10,-30,-4,-10,-11,-8,-6,4
1570179768012631,21,28,-3,18,9,2,9,-38
1570179768034573,-45,-16,4,-18,-9,-10,-10,-34
1570179768034573,47,0,-8,13,6,4,-14,62
1570179768034573,-36,-20,6,1,19,8,-7,-25
1570179768034573,19,6,-5,-8,-13,-10,-6,1
1570179768048780,52,7,-3,3,-1,0,1,4
1570179768048780,-16,11,7,-2,-35,-13,-7,-13
1570179768056515,30,26,4,11,21,0,7,6
1570179768056515,-27,-10,2,-8,-9,0,-3,8
1570179768071473,-52,-19,0,15,15,5,9,-24
1570179768071473,-3,1,-2,1,13,-8,-3,-59
1570179768072474,9,3,6,12,-9,6,6,4
1570179768072474,10,-6,-4,-7,2,6,-4,-7
1570179768094420,-8,8,0,0,8,-1,3,15
1570179768094420,-32,-10,6,-1,-13,-2,2,1
1570179768101396,15,19,11,19,13,13,23,13
1570179768101396,62,17,9,3,7,3,-4,25
1570179768108376,5,-21,-11,0,0,-6,-5,-12
1570179768108376,-63,-13,0,5,-4,-11,1,-17
1570179768116398,-30,-23,-11,-9,-7,-6,-10,-31
1570179768116398,14,1,8,12,8,7,11,14
1570179768131317,64,36,1,-6,15,7,-2,49
1570179768131317,41,6,7,-2,-4,2,-4,52
1570179768132416,-26,2,-5,-2,-4,-4,-4,-7
1570179768132416,-27,-17,-17,-23,-18,-5,-5,-11
1570179768154426,-6,-13,4,8,19,-1,-3,7
1570179768154426,21,10,-6,-10,9,2,-1,-30
1570179768155252,-65,-14,2,8,-30,-14,-5,16
1570179768155252,18,6,8,6,16,9,3,19
1570179768169221,-13,-5,6,4,-9,-1,20,-19
1570179768169221,26,15,2,-11,-16,3,2,-5
1570179768170214,-9,7,6,14,32,7,-2,-28
1570179768170214,-20,-25,-7,-2,16,0,-4,1
1570179768192161,-5,9,3,6,-28,-12,-1,2
1570179768192161,7,-5,-8,-3,5,2,4,-13
1570179768192161,-6,0,-4,-5,-7,-1,-7,-17
