timestamp,emg1,emg2,emg3,emg4,emg5,emg6,emg7,emg8
1570178544393786.0,3.4273235292963387,2.924237559549279,6.704277235198189,0.5268579362184913,6.444255357648687,11.857989555874303,8.402538766056711,1.8020522404499466
1570178544393786.0,4.116075312679784,3.1778590894558483,5.165027281964123,1.038077496880146,4.818549105675078,8.565626689129896,7.184289785053397,1.7151209052924852
1570178544394791.0,4.192670417255794,3.2146988082457595,5.05426137377851,1.0909492072673042,4.622004649112922,8.236777106706093,6.994622473404282,1.9526584468726482
1570178544394791.0,4.448818148119722,3.310314313256874,4.58416167858184,1.2827519241529652,4.135281812560218,7.236067149226061,6.6002497293896765,2.995588348772948
1570178544399048.0,4.498343216753083,3.3293419635365957,4.498216572859069,1.3140828246487137,3.975882467369746,6.9782544688925245,6.469568337210229,3.131898104043896
1570178544399048.0,4.645943963970576,3.3786821540705554,4.232428411223414,1.4208523681566643,3.6885844210483145,6.409112790093601,6.234494055880425,3.700586295651356
1570178544400902.0,4.67100897081891,3.3815721665267757,4.169866500823617,1.4289595800254313,3.5529393173227812,6.197614216907996,6.111718601661473,3.716294789517693
1570178544400902.0,4.780580823402839,3.4126509356074295,3.994241253790475,1.495841329410975,3.3532012868646692,5.807823645262385,5.925089993201028,4.096560325708814
1570178544404800.0,4.808312685675891,3.417161235086589,3.9432136700031335,1.5033326122043333,3.240895819456222,5.637442303932812,5.81774553237241,4.147606895178526
1570178544404800.0,4.897133732983468,3.4455350102885802,3.8068669711458303,1.557971576618125,3.0896845153921544,5.352833679554019,5.67866584340746,4.476901448732925
1570178544418720.0,4.918769728911154,3.453228917607001,3.7465388787314877,1.5640612006796473,2.9912991864108545,5.208139081359672,5.5986187321938035,4.539438909669428
1570178544418720.0,4.983939711991425,3.480156903356849,3.622559765356107,1.603681133332309,2.869548266188743,4.98449819592568,5.4949899790566485,4.8108687141327655
1570178544426698.0,4.993915027528259,3.4887244900152647,3.556227371716788,1.6030501418163325,2.787930153280808,4.861936804533289,5.428002709774855,4.853465502745879
1570178544426698.0,5.0483099076106095,3.5096042151815388,3.4450334739912636,1.6319132516164794,2.693576387968817,4.682558705505119,5.334302854580936,5.057554906254698
1570178544435677.0,5.059802396540641,3.513083968782565,3.3761505637474136,1.628736080159072,2.6315019558433663,4.57775409165881,5.258302607268135,5.06035978152093
1570178544435677.0,5.107900246058885,3.528910071761807,3.2752800964805737,1.6523386696277855,2.559882676699509,4.4335054204805004,5.1674887615255924,5.20299325742858
1570178544443657.0,5.114745553492581,3.5302298331161475,3.2023952983801403,1.6510900856563655,2.508337263058809,4.343939943745599,5.112635084480964,5.204648469007472
1570178544443657.0,5.14733563102421,3.5398387909485063,3.0997817315217477,1.6708130480315995,2.445435845333672,4.224455180255791,5.060296647918524,5.333297930284402
1570178544466986.0,5.140588609924324,3.530982083260798,3.0192510400278962,1.6636422041970185,2.398429570299456,4.14877874307641,5.031260347658751,5.321967856791543
1570178544466986.0,5.159678649010806,3.525496385073431,2.923127882763192,1.6715356046377772,2.3458741268063497,4.050440082388532,4.985027478366968,5.421253445268773
1570178544469584.0,5.148168486534118,3.508303222560279,2.8529382504360834,1.656785928229308,2.3021894348024703,3.981261013783414,4.958926685431551,5.410445708006642
1570178544469584.0,5.159765211290401,3.5005006074309093,2.7699445778574683,1.6562391182778031,2.247000382887635,3.8808014209090946,4.931988646273505,5.503678012152526
1570178544486564.0,5.144361278408587,3.486001696563387,2.699325432638651,1.638009456364408,2.192852274252075,3.7772316158304964,4.920534637751564,5.498691013630027
1570178544486564.0,5.160140881115049,3.4884574534015975,2.6132019703460525,1.6382484910724344,2.1356896791139515,3.658872541779869,4.9031308857642015,5.594278804496528
1570178544521530.0,5.158681378659376,3.490395402466285,2.541332168299715,1.6254775855058978,2.0834308739006087,3.5618068583644282,4.905861074355516,5.611017240481814
1570178544521530.0,5.184616296088175,3.5048212582927203,2.462830786632056,1.628769919608506,2.025360578916629,3.468526078721033,4.91186125599705,5.722091106318559
1570178544522444.0,5.192018433380093,3.5140615084916007,2.4011446164614734,1.6171327272552347,1.967277720512246,3.3894654762945984,4.932315819723724,5.7559462111565844
1570178544522444.0,5.219609414714288,3.5306809245527244,2.332345664504223,1.616375055166972,1.9109220666654105,3.3071765840645746,4.927638966784322,5.8663110167618004
1570178544526834.0,5.226889558016518,3.536475201937135,2.2786148765718894,1.6026052282430971,1.8572074083863632,3.2279671468775026,4.899171617483977,5.897666547758436
1570178544526834.0,5.256136554273161,3.545768524182707,2.218532898199952,1.6025629298704889,1.803045534780458,3.149444193925271,4.85689862084869,6.006667281300961
1570178544527530.0,5.267586604862436,3.547495230286566,2.1774701899033735,1.592161194973394,1.752166526061969,3.0760173215709607,4.822787577798319,6.053944984015488
1570178544527530.0,5.2953218350965034,3.555700406205179,2.131368976511273,1.5943948993962256,1.7040776414676373,3.003481791128346,4.782531392102602,6.176615346932244
1570178544531552.0,5.303959835586412,3.56017294115883,2.1020055115530663,1.587607978230286,1.6625883873053913,2.9287530026020874,4.732535769282476,6.240801140201877
1570178544531552.0,5.331790932037878,3.5740278571632857,2.0655061126286327,1.5928461098371178,1.621602743057259,2.853000083985065,4.680770586050514,6.366131766456008
1570178544547377.0,5.346234580413621,3.5840502775928598,2.045393519791294,1.587541966702667,1.5838568172827372,2.7768203373671088,4.642990962581134,6.422341759142315
1570178544547377.0,5.376504694355978,3.6007001275355277,2.012920262760395,1.5916023199510112,1.543495395151342,2.704042076908462,4.616024971973971,6.526183415666144
1570178544554357.0,5.388034459158751,3.6089643368694704,1.9943457336811126,1.5821222436744333,1.507238121008805,2.626409723748605,4.592032510439104,6.573404302555475
1570178544554357.0,5.412268716304718,3.6181119854877424,1.9620539930702598,1.5766686500026401,1.469188649993986,2.551016710923191,4.561019912883104,6.670497897774708
1570178544563336.0,5.420590564622189,3.6214879808956355,1.9412801482487176,1.5613397900001642,1.4393095769989444,2.4747944637284984,4.52227822400018,6.708151979479566
1570178544563336.0,5.439161116574541,3.6308789746845185,1.9087967971120052,1.5561411021833296,1.404910028707363,2.4020395777378774,4.476413298943951,6.763727914395238
1570178544577296.0,5.434235397350783,3.6346585657488095,1.894311399531381,1.5437209074535423,1.379435558608135,2.328552285602875,4.416401054531077,6.713817644701689
1570178544577296.0,5.441703813759249,3.6450364241674817,1.8705536014549988,1.543762854180217,1.3518198988450991,2.2599785696467243,4.3479604533998835,6.656609664002432
1570178544592357.0,5.4451333090630945,3.652321094635804,1.8649137283634507,1.5402565839298294,1.3373389614643894,2.193862384158781,4.2787316866110965,6.569523709575633
1570178544592357.0,5.4675313840214,3.6626252146419254,1.8453658144204022,1.5476747708710314,1.3160530444986247,2.1324398094669963,4.223465764839797,6.540473138470438
1570178544593425.0,5.478482712468089,3.6683953662795497,1.8408161164303818,1.5488266745655364,1.305275430465003,2.0807255177756274,4.173617887026293,6.474445268444286
1570178544593425.0,5.502388689875322,3.6824465326265217,1.8237950926620912,1.5595329930754216,1.2835193628810977,2.033579722880795,4.124235109238623,6.444186489956506
1570178544615195.0,5.515742297027972,3.696890807086564,1.8236851489448607,1.5641715171738588,1.2757604249688423,1.993468627251923,4.068431882429214,6.389503388967737
1570178544615195.0,5.544835584877041,3.7197874087884553,1.8107410885446502,1.5783773427415106,1.2605924111313895,1.9469693300574789,4.016109505742933,6.376738710950586
1570178544616193.0,5.565215770733893,3.741065949288252,1.818082755193041,1.5856663721734146,1.2630578720810528,1.9114478909786086,3.9618169855630914,6.3356884185493225
1570178544616193.0,5.598701976663075,3.7672393120615735,1.8153293193994016,1.5995386318293003,1.2545167441892489,1.8724971222288684,3.913316977582062,6.332418506091099
1570178544629158.0,5.6214867256610095,3.7878921075109684,1.8286811432561048,1.6038054414760752,1.2635508494718144,1.8470025948762558,3.8707043533147103,6.3041792683038365
1570178544629158.0,5.654242894708802,3.8098442569844027,1.8236302846110906,1.6101104307114045,1.2586093097927198,1.8120026489057308,3.8377692039076394,6.307434343873809
1570178544638134.0,5.67447736149735,3.8278168144733873,1.8266775401979365,1.6072567074620256,1.2701014000012736,1.794958905248621,3.8052961638525304,6.279917547363101
1570178544638134.0,5.7052640201803815,3.851125208787924,1.8062536077269469,1.6137210654928753,1.2659470867755422,1.7691898893743399,3.7757333270753426,6.275974798423768
1570178544652099.0,5.727696385723114,3.8693508214821493,1.793674099215469,1.6161779351042576,1.2790718787055568,1.7661515723397148,3.7514627844897346,6.244085092592533
1570178544652099.0,5.761876786028139,3.8875293585712907,1.7632660956465414,1.62586693140521,1.2757614136384177,1.7515994498907566,3.738622580806317,6.242307799377927
1570178544653094.0,5.786194913080084,3.899388264788446,1.743911312718994,1.6304355418218583,1.289252515087568,1.7628288505328087,3.7337175028639873,6.214680723453186
1570178544653094.0,5.816702968122834,3.9132624634975963,1.7115579487811825,1.642592949716735,1.285745405581339,1.7576108461017328,3.7390119853455777,6.210630463713293
1570178544675156.0,5.828942298598581,3.9226398179181245,1.6933314574409408,1.6488466101302997,1.3022868245045702,1.7785988509926962,3.738904053921635,6.1723719215168416
1570178544675156.0,5.844862301138583,3.9351395425990563,1.6617760286143886,1.6595582020025095,1.303834918406427,1.7789485395006601,3.7220127450059435,6.154146178506283
1570178544676031.0,5.851490918377774,3.944644587956334,1.647487869286744,1.6607449140832449,1.3265057090069674,1.8027447786050284,3.7006223755527987,6.120829395827378
1570178544676031.0,5.868204045319031,3.956294041709052,1.623728135778955,1.6652653735343388,1.332015425992191,1.7996644654447227,3.6859468281068803,6.123792537778201
1570178544689053.0,5.879151279164506,3.963262297665293,1.6173171427529611,1.6646573045880264,1.3551240389088466,1.8168369354671812,3.6700150071854836,6.108892724598894
1570178544689053.0,5.905880571822211,3.976085088081155,1.6007483158527243,1.6733304941970668,1.3597967252742142,1.809926144779317,3.65565927459543,6.123096907400543
1570178544696974.0,5.927977319590874,3.9910422129666596,1.603359946380868,1.6808768556139984,1.3823474477485642,1.8285770353634838,3.644807691183902,6.129092242554943
1570178544696974.0,5.958694518026103,4.0131949906107165,1.5939589232522169,1.6969673040041309,1.387209992260939,1.818806230382765,3.644381371744735,6.174941200391466
1570178544711948.0,5.980909382940423,4.033807010948871,1.6032666224124108,1.7085446059643628,1.4070335727397631,1.827359372297703,3.6509272951272345,6.208892158435436
1570178544711948.0,6.012688658815812,4.058105380950612,1.6017582868758349,1.7259501495110132,1.4041967153746577,1.8082002611294017,3.652641744658887,6.269319101425674
1570178544712931.0,6.0367007402975075,4.079549007821917,1.6190977103817035,1.738748624661527,1.415570015317006,1.8086631709693384,3.6403257672690983,6.306222823284904
1570178544712931.0,6.06558776484582,4.1033270623016,1.621269302420694,1.7546117294672754,1.410658238957806,1.7875476864385051,3.622809955698667,6.360385039934178
1570178544735175.0,6.078918643849457,4.123893065178268,1.6388832605793033,1.7609899782167693,1.4260188128568305,1.793020648186234,3.604348075913983,6.390134278335887
1570178544735175.0,6.091019903575383,4.145699035555614,1.6372880397115972,1.770303484635124,1.4258127925888435,1.7755126671084127,3.5891505067675613,6.437570051327632
1570178544735870.0,6.090007329977611,4.164786196622041,1.6490943040992372,1.7751363760536318,1.4400747307781816,1.7826224602811687,3.565379133621401,6.44166577687269
1570178544735870.0,6.100320473392533,4.189912232354577,1.6473926046602732,1.7827836819151082,1.4338987503822853,1.7665443714014635,3.5320382489970132,6.436241228601401
1570178544757830.0,6.109796056170529,4.213841424121283,1.6650274660507418,1.7814230237003168,1.4410447571017657,1.775235343109948,3.487743497032764,6.414470388380994
1570178544757830.0,6.127731616542823,4.23866878292061,1.6679215734258994,1.783050563585986,1.4338687243452988,1.7604959180928503,3.4360620362116197,6.423151358997506
1570178544758809.0,6.136256634544186,4.257713791513577,1.6872982848138973,1.7824553610699332,1.4443040040250816,1.7709943605815475,3.3795886388241625,6.410645995370866
1570178544758809.0,6.15200712773365,4.278524683158964,1.69204430611748,1.7905487007576895,1.4392742790083006,1.7593362998382536,3.3290498821663372,6.397189749584092
1570178544772771.0,6.158036467246935,4.296623292563481,1.7125192101850297,1.7962712735401245,1.4487289854345262,1.7768824853021068,3.2800051191650605,6.346938737448088
1570178544772771.0,6.163206330260645,4.312854012395059,1.7147851476845999,1.806033519920575,1.4406168225804528,1.7724641459205417,3.2350676499417657,6.285711819399805
1570178544772771.0,6.16009306005397,4.321905415769877,1.7276817184934192,1.8111523531156082,1.4477680696984976,1.7935123564576696,3.1875673294565883,6.191258348545982
1570178544772771.0,6.170210993320677,4.332846933845741,1.7206766794598436,1.820978108344258,1.4419298110375731,1.7899940451664809,3.1443782673343246,6.1176473587554945
1570178544794712.0,6.175813481051716,4.339163197131153,1.7270068226335138,1.8254533404157653,1.4514035089907327,1.8083151494483374,3.102753785631422,6.048485524274674
1570178544794712.0,6.18762083190132,4.343938648561462,1.715528808738661,1.8305914507990264,1.4431244402677341,1.795348936265702,3.0632460167109534,5.992786038127589
1570178544795710.0,6.195772564693648,4.346478078214854,1.715086454494593,1.8296249963784605,1.4450685577350344,1.7991226596488754,3.021303636383281,5.907463229277869
1570178544795710.0,6.214246734645304,4.353409109483255,1.7011416401999933,1.8323229911906147,1.4299279361569506,1.7768606661637711,2.984540728871022,5.831888027890108
1570178544817652.0,6.2261936835414184,4.359570748171099,1.7050338192084304,1.8292435337453108,1.429080695101186,1.7786780817262706,2.9548999895141996,5.756238633327952
1570178544817652.0,6.2453682759529725,4.371750396934689,1.6954773929527478,1.8262835611414454,1.4155317012439026,1.7559453645541847,2.9332665939181926,5.69866823501235
1570178544824632.0,6.262011551432435,4.385067174649328,1.7024085914494573,1.8183765606223308,1.4182760151628588,1.755731238053405,2.9175479779920317,5.62631569996177
1570178544824632.0,6.28904407268982,4.401348867751544,1.6972200301547957,1.8147664243551451,1.4092027841482593,1.7356069006420682,2.909177545042248,5.568062396255968
1570178544832612.0,6.314172785372258,4.417192978146581,1.71009159619559,1.8060300319126885,1.415768064584421,1.7426162894553674,2.9103066069421395,5.504716420955965
1570178544832612.0,6.347741737301796,4.439771752201956,1.7122714568292499,1.7999638235829636,1.4076652575555808,1.7287926692177298,2.9198620742359074,5.463095721601228
1570178544833609.0,6.3738274946384745,4.464460479882366,1.7310874483982706,1.7912628431894855,1.4146253705045002,1.7381221601169314,2.9339303017063756,5.415661474207
1570178544833609.0,6.401730971674994,4.493056974022378,1.7347009270498708,1.786368418160955,1.4097984095906229,1.7212319367604814,2.9446045751470207,5.3853724865656085
1570178544863591.0,6.41885171513991,4.518678822506927,1.751126641893858,1.776667522844738,1.4216024427770901,1.730079154318766,2.9523741827468624,5.3404796494666185
1570178544863591.0,6.43971349740709,4.546336495659064,1.747963719134427,1.768372059895153,1.4196631978087149,1.7184188135135223,2.957044931893506,5.3050774292914715
1570178544863960.0,6.456046181691548,4.573262287385752,1.7524881860064607,1.754178395976134,1.4320294587464335,1.7325225801846438,2.9676763049588026,5.26586680539384
1570178544863960.0,6.481894397522972,4.602863681888357,1.7411667349438447,1.7375164868419022,1.4300245420700355,1.7252126083963315,2.9867981207804473,5.255139543947792
1570178544869513.0,6.505493357361413,4.629724192459087,1.7472947771822986,1.711362012992165,1.4412692903238926,1.7435869618234907,3.0173193816105726,5.244355655099407
1570178544869513.0,6.536051740948221,4.6586456617589045,1.7434924388892208,1.6862143168944537,1.4375410412111589,1.7390055749367266,3.0510178661336416,5.247710624363688
1570178544878489.0,6.559869621765708,4.686293686518351,1.7573990637057313,1.6592246385043599,1.4499230841893147,1.7571204445836364,3.088034757285535,5.233800511868739
1570178544878489.0,6.586932537997461,4.71566311435603,1.7593499383208588,1.6393382025512262,1.4504478535095635,1.7465453023031468,3.123586927686136,5.237110416765237
1570178544892452.0,6.606932296147758,4.742799064963923,1.7757655495904714,1.6215353165094664,1.4658006864610513,1.7537458951014078,3.1669014776410194,5.228905566742185
1570178544892452.0,6.630796768676381,4.772523483332085,1.7768172919709675,1.6112438765544097,1.4680310257924507,1.7342940800616635,3.2137485531101238,5.22942096201189
1570178544893449.0,6.645170866942021,4.801958075715428,1.7908357535363784,1.600988505617052,1.4850921927536196,1.7398183862445225,3.252171252996603,5.208714777100187
1570178544893449.0,6.661850776746453,4.834278745332572,1.790675359081474,1.5957111801422095,1.4861960552614364,1.7218395637859547,3.2667719081805897,5.1935028615724415
1570178544915500.0,6.672630433402596,4.862912274297497,1.8056566756111787,1.5895892469180584,1.49831050168233,1.722714266247822,3.2629182129147067,5.165490469438995
1570178544915500.0,6.690587014170847,4.8916731186910996,1.8085152040468087,1.5885856515567995,1.4933829061387351,1.6989315596507621,3.2413837583267613,5.154398100960764
1570178544915500.0,6.706403173411126,4.917176115785578,1.8276096141922071,1.5841365077885436,1.4987894974833593,1.6999670708931869,3.208875039502301,5.134574850167073
1570178544915500.0,6.729109551103647,4.942925361761151,1.8349590172525594,1.5835909613469876,1.4913562145427723,1.6808887893713786,3.17139322289201,5.12969992192741
1570178544929356.0,6.750500175041471,4.9665110636952745,1.857036329967883,1.5823239368102053,1.5007617824298762,1.6887706536295737,3.1375350240016826,5.117637417253437
1570178544929356.0,6.7795754906252546,4.991110744923935,1.8642587445822236,1.5857388075789278,1.4990166136267813,1.6774017176826574,3.1088611074675088,5.125718004707442
1570178544937594.0,6.801064327574499,5.011862749916879,1.8820416058019334,1.5879788342911136,1.5111659021884845,1.6952308704085812,3.084128172986945,5.119715805969904
1570178544937594.0,6.823993372803915,5.034994679069225,1.8852858779667452,1.5953186238243093,1.5096946647032685,1.6934615461716294,3.060341519878224,5.123238652635199
1570178544952297.0,6.839820961619496,5.058652588115536,1.9012330438996639,1.6000155278923798,1.5207410613298737,1.7178322871046725,3.0414664822476634,5.101616165301616
1570178544952297.0,6.861151962514717,5.084462132453019,1.8998502299647746,1.6086236671315217,1.5152639646719115,1.7177522954458861,3.0311849694921005,5.078176917627583
1570178544953508.0,6.880085203344,5.107801569923804,1.9088432481168796,1.6165560511051784,1.5219255286227558,1.7410685259155467,3.027436488217374,5.048027672617329
1570178544953508.0,6.906690109344735,5.1317211130436995,1.904298501063608,1.630736650283261,1.5181918026274086,1.7379989652024506,3.0249383234516807,5.046961803951452
1570178544975233.0,6.929598371662953,5.153301983766295,1.9122544785374884,1.6430074493115865,1.5296023434619699,1.7552206312560668,3.024045019625164,5.040343651556935
1570178544975233.0,6.957262524025195,5.176834234150387,1.9083342747341123,1.6583450720029695,1.529896374190229,1.7471247849045064,3.0234130555995673,5.050186544851943
1570178544976230.0,6.981835752411151,5.199740106696064,1.9179915053905818,1.6720318669146568,1.545194562212358,1.7642081051390217,3.0252153123525987,5.047712059052385
1570178544976230.0,7.010046913789605,5.2265148645064645,1.9147269795873243,1.6914669130171136,1.547660915311518,1.7576206054959573,3.018263906014182,5.052390267165692
1570178544998172.0,7.0333511459763205,5.253622891398159,1.9278996324667819,1.7093496342899066,1.5629645612166116,1.7756670752416839,2.9972659727361055,5.0394652544523675
1570178544998172.0,7.06569966464892,5.284355381985848,1.9334115449457154,1.7296779676025364,1.5653796234515163,1.7709841241374253,2.9722342295814093,5.041967011863624
1570178544999212.0,7.096021876348151,5.31597100034134,1.954412375980658,1.7450281618738015,1.5810684360913512,1.7905704847173338,2.9526202476479537,5.029793825140813
1570178544999212.0,7.131532674506828,5.350977093812227,1.9612685772943907,1.7619157670841157,1.5849932021289714,1.7856678553271768,2.9383513134309727,5.0266743474962405
1570178545012486.0,7.164684570113664,5.384980836589872,1.9790623627589758,1.7749039031785538,1.6017871671170967,1.8037902247773459,2.9271155589624214,5.0123946121316
1570178545012486.0,7.207092302875696,5.419849136455819,1.9844383250720694,1.7905552691475046,1.6054446409262244,1.799241700335022,2.9150970353537886,5.01578015599856
1570178545013355.0,7.2491654785357955,5.452884868032261,2.0025984520282334,1.8038934349928495,1.62190103321313,1.8200119621395627,2.901049702608446,5.0082817176883
1570178545013355.0,7.295049341018158,5.489970522850074,2.0103547722581467,1.820083683138719,1.6237857650913632,1.8165551730195468,2.8793559014847436,5.012245541144116
1570178545035074.0,7.335795399683008,5.5282263102362705,2.0335387528327433,1.8309282265452627,1.634626243145074,1.8354415582191623,2.852680160779113,4.994031846872931
1570178545035074.0,7.383478265141848,5.568525657802758,2.0444202761682773,1.842875689546714,1.6319148428360915,1.8318735729060789,2.828240316019008,4.981788748363141
1570178545036117.0,7.429706007174664,5.605529978134976,2.0646496233409435,1.8522342569044898,1.6427135361106295,1.8506774920594558,2.809383121230758,4.963211650252356
1570178545036117.0,7.481070965411574,5.641232674613233,2.0695690301621994,1.8654558559918304,1.6411176106637098,1.8440177443609858,2.795330991423406,4.96449970024748
1570178545059050.0,7.527694200729024,5.6734707271215035,2.0842226837411157,1.8775340088472043,1.648209048137219,1.8575086054666672,2.7806193576789364,4.952406468975351
1570178545059050.0,7.57495830741942,5.705445308050095,2.0841527785790555,1.8939121616096086,1.6398193568883033,1.8450311702911757,2.7597568740103564,4.94974525230296
1570178545059050.0,7.608120147617333,5.732272554506919,2.0915793403454037,1.9084777375559572,1.6402348749840183,1.8551376500467849,2.7332630424498805,4.9191800190516695
1570178545059050.0,7.639886619124577,5.757682344627229,2.0835553736954253,1.9265977929438605,1.6282955520041351,1.8438638293387097,2.6986453979726948,4.891053824026962
1570178545072970.0,7.67078590151897,5.780646743591671,2.0860210546580156,1.9400240924512742,1.6319958809258157,1.8577343832851974,2.660176027237435,4.8605457513732695
1570178545072970.0,7.70471920020692,5.801593768340214,2.07709515082888,1.953119904950495,1.6288592238052018,1.8528412541012818,2.6232519001626313,4.860241663099968
1570178545077517.0,7.728144074321016,5.813469565354874,2.0821951248189383,1.9621933385649017,1.6395729236009873,1.8716486643620314,2.59014934754952,4.858236066874644
1570178545077517.0,7.749968372061316,5.814984225012251,2.078754655968224,1.9725843214521201,1.637930876900294,1.8666585700464244,2.5581759619677396,4.8750057486196745
1570178545094912.0,7.75814429188128,5.799944436000911,2.0864419189105723,1.9772550271531182,1.6451286891121357,1.8842713615563589,2.526044379723197,4.876687316873977
1570178545094912.0,7.764992108609831,5.780999959766214,2.081289357460666,1.9832228713679871,1.6388162487606277,1.8795853944517484,2.496839394511469,4.887154504438098
1570178545095909.0,7.777242004315347,5.769329318376449,2.0884512596105425,1.9866575590387954,1.6458045943675033,1.8958747032841128,2.472447883661549,4.885760432625185
1570178545095909.0,7.805036336387827,5.765549449368071,2.084995972018337,1.99160285476202,1.644688449788305,1.8874330897908855,2.4495307305678358,4.907464557345177
1570178545117850.0,7.835593193749714,5.7621421146188,2.0933120784154116,1.9950445344161332,1.657992818216941,1.8998708375483786,2.432690379570981,4.917869574934393
1570178545117850.0,7.875814546034129,5.76350494064581,2.0923376992836777,2.003608152929078,1.6615845448819244,1.8912676131392059,2.4226039777611996,4.941277419229386
1570178545118847.0,7.916590996363709,5.766157012348457,2.1049573840795324,2.010615374202828,1.677192680134592,1.9088482068839152,2.416791690592063,4.955752215781412
1570178545118847.0,7.9646485565979015,5.771668866180122,2.109362283181776,2.0214306194381564,1.681999829163628,1.9083599867846595,2.4067936753140993,4.992104337027931
1570178545131812.0,8.013847693296505,5.778328783675847,2.12779494750233,2.030537695983657,1.7009313723185884,1.9307934918776724,2.390337772246226,5.020466079792878
1570178545131812.0,8.07059174532962,5.7869380156615025,2.134602272996812,2.0412592583308924,1.709865881272488,1.9304256741157555,2.3635700307942575,5.067902794777078
1570178545139791.0,8.123582547830228,5.792908813133726,2.150353646611572,2.0482784509252028,1.7301056128301189,1.9539950885561637,2.3356529556560868,5.103916683316914
1570178545139791.0,8.179870678661281,5.798755099047419,2.153802350087306,2.0564523469564424,1.7374365821265443,1.9576782307283365,2.3085230377210544,5.152962888334087
1570178545154750.0,8.231430559884844,5.803301947634583,2.1686592815981425,2.0596349845999873,1.753346036479457,1.9844694458036958,2.287100550561772,5.185333403385721
1570178545154750.0,8.284516749625078,5.813218599365641,2.1726386463587373,2.0623734536938394,1.755681549025538,1.9892919479898563,2.269563855920671,5.233916243569826
1570178545155747.0,8.333277588605744,5.82742177153638,2.1864888534271274,2.06181640064607,1.767857909287635,2.01355912457265,2.2560822173028865,5.268089847511206
1570178545155747.0,8.385302752766735,5.846759442994906,2.188383271013923,2.064364625781224,1.7686103371133248,2.014050454074238,2.2411120673723777,5.311633630767442
1570178545177690.0,8.43236361243503,5.868709188171599,2.2011702982996857,2.0643586512935386,1.7796209369327767,2.03635354352568,2.231884774060818,5.3319044353448986
1570178545177690.0,8.4825057922645,5.895558225510428,2.2042665708676825,2.0642949895273732,1.7794220395649274,2.035984501620421,2.222087439068736,5.355327005176352
1570178545179684.0,8.529382736332385,5.924391265553254,2.2197384916182012,2.0606497246929156,1.7897156173154356,2.052896897239899,2.212982362626618,5.366114261867934
1570178545179684.0,8.58107499184383,5.957997305173112,2.2261732739270506,2.061371851227268,1.7867055001658383,2.0416260232860717,2.2013279254932145,5.4047726129005405
1570178545192670.0,8.631840583268529,5.992846891933848,2.244186952422522,2.060073671381,1.7928085089279686,2.0450732920183996,2.1968355785513016,5.43987756978266
1570178545192670.0,8.688691440239202,6.029635801379876,2.2499488565420767,2.0608971346042013,1.78686087064709,2.029229086103507,2.1959708882643056,5.497780361837689
1570178545193646.0,8.742763698432007,6.0640088277451145,2.262971452822865,2.061428244548835,1.791441248708157,2.0398277852905906,2.2036949175588005,5.547775661885983
1570178545193646.0,8.800820787635077,6.099837146617157,2.260695222457299,2.064499278907379,1.7893424290649669,2.033540584228754,2.2078923974968685,5.611740090706009
1570178545214591.0,8.855560843357924,6.136605320778915,2.266000586867144,2.0632344613268434,1.8031770223497934,2.04988685097082,2.2141993623543184,5.655094512466162
1570178545214591.0,8.913342001105752,6.174827019448902,2.2608959865593095,2.064164394415611,1.8097056126620343,2.0449595119213035,2.22128502715972,5.709445368264687
1570178545215689.0,8.970511033386869,6.21088895375106,2.2687106481656056,2.064545406457402,1.8278825040483646,2.060735430545773,2.2391980615709755,5.755810134322717
1570178545215689.0,9.03671997971494,6.24818197755628,2.2694380726763783,2.0686722770652235,1.8352422784303104,2.056257803506213,2.2565639705237497,5.822243149249636
1570178545238525.0,9.102460035560808,6.285489702106169,2.284118304011167,2.0739765410105333,1.8512598241472782,2.071719170205826,2.2779326615394906,5.875822015659761
1570178545238525.0,9.17144551311176,6.3266155700840265,2.292043767338699,2.0858739528676478,1.8530963914058125,2.0667231817547687,2.2961898940718393,5.946379906336391
1570178545238689.0,9.237770666763556,6.369429236233378,2.3137234109036533,2.097935182795591,1.8634642188341157,2.082032240822155,2.322932024343435,6.0058703813806975
1570178545238689.0,9.30980765155356,6.414883829090347,2.327260636499333,2.1121120495232475,1.8633853108941478,2.077682878719659,2.3503723991708245,6.079309005956472
1570178545252488.0,9.380165680788657,6.459056119280439,2.3528635254393278,2.1220630742268263,1.8725573143328904,2.0950511046367732,2.386563566211556,6.132816342348204
1570178545252488.0,9.452295732550763,6.501849496543819,2.3686695599964995,2.1313941040346442,1.8701103590701273,2.0909566883424087,2.415124751073407,6.180036746331359
1570178545253486.0,9.519652318829456,6.539370389771051,2.3966927681351815,2.135988994141781,1.877082015687547,2.1057876446909263,2.443574501735003,6.19950241158572
1570178545253486.0,9.592478611577043,6.577159139601077,2.416135922580135,2.1430030058010017,1.8733853734143784,2.1005274650623162,2.468774587416117,6.243486679228145
1570178545274430.0,9.665332837512056,6.617137681745877,2.444840167713064,2.1506611337362505,1.8797292649731312,2.1144628131098284,2.5015258817870114,6.287058511392411
1570178545274430.0,9.745559235505736,6.662314165437488,2.4613394074437713,2.1624774482637865,1.876732474287074,2.1069705531076077,2.531030974998342,6.350527201787321
1570178545275681.0,9.827206537746786,6.709804820727387,2.488653968034428,2.1720800477236173,1.8867290403775885,2.121108525050226,2.5638219557740394,6.402287445867068
1570178545275681.0,9.9133648538113,6.761903933924287,2.507097620122505,2.1836057891350746,1.8888768703590764,2.117551778968373,2.5878196306038075,6.460620847432033
1570178545298366.0,9.993940295351072,6.815123376416376,2.535562229259789,2.1929599005741864,1.9007316963423253,2.1336554114661874,2.603717485703767,6.491328007661686
1570178545298366.0,10.076922159775416,6.870555876602166,2.5529634160807,2.204453231890494,1.9032201910782167,2.1297213401994948,2.596709400843281,6.524728001667519
1570178545299365.0,10.157589164000758,6.9266943917921076,2.5817348372268647,2.213491527137587,1.9178317034093693,2.1482974508422226,2.590958528837288,6.548567379299136
1570178545299365.0,10.239930650121126,6.985267746288127,2.6027519227545035,2.223612910165271,1.923134105167328,2.1486138791468634,2.5892470117229336,6.590303833990843
1570178545312329.0,10.317538471343056,7.042819255106734,2.635278005531787,2.2313500935198647,1.9389459255656931,2.1679741205850265,2.597837843903255,6.614470313254843
1570178545312329.0,10.39734358366986,7.09975440890097,2.6579264398676554,2.242671857268979,1.9463667227780375,2.1680217135419886,2.6002583030848223,6.645245143602524
1570178545313327.0,10.472313090520228,7.153482698984954,2.6915892769847716,2.2538278665738636,1.9647332753289033,2.189729968351689,2.60254195677084,6.653284479609484
1570178545313327.0,10.547228655067036,7.208726544722558,2.715448950730589,2.269593502927687,1.972225493849161,2.189269319826,2.5974119673656744,6.649280515153462
1570178545335267.0,10.61675582645618,7.264929222792025,2.747415481233199,2.2850325933588893,1.9875956040428124,2.2047612475450693,2.5973261875033815,6.609681743224224
1570178545335267.0,10.689648841106695,7.325458009832092,2.768958010508639,2.3031476668367574,1.9919989831441838,2.2008486160432077,2.5977647896590192,6.575415359122864
1570178545335267.0,10.76516466958234,7.388608608988764,2.8023670200698523,2.3202731120597178,2.0065507208675784,2.218919882620838,2.608175493362838,6.537001762490534
1570178545335267.0,10.8542096074575,7.455389052980234,2.8264981913276412,2.3399062808146676,2.011367732497864,2.218681926907603,2.6183828564464555,6.532798045127732
1570178545358271.0,10.948396981996261,7.522822540683759,2.8603826692653413,2.3583735509088126,2.0272354331419566,2.240855678504429,2.6364877211060453,6.537340422391855
1570178545358271.0,11.049480037439587,7.592481773553945,2.886538083990139,2.3815183254365917,2.0357158413223537,2.246961866332281,2.6487267046823275,6.570215069749102
1570178545359204.0,11.15032598416446,7.6616922289489615,2.9261317898665125,2.4036613269127542,2.0552158018634743,2.2754137642804095,2.6653785868977797,6.603079102331576
1570178545359204.0,11.255804067819838,7.731730645408024,2.959375386069944,2.4275830625938757,2.066951189925668,2.2877454926498175,2.682214271801402,6.659103081258789
1570178545372557.0,11.358714253596224,7.7988011071482966,3.003877644891674,2.4481230740610016,2.0908273170235003,2.3241986487099062,2.709424286624093,6.711466669337126
1570178545372557.0,11.46483335038677,7.864968997419057,3.040042606151549,2.469469690662553,2.105242150326205,2.344293409596085,2.733941674175148,6.779167361294885
1570178545373166.0,11.56783631380417,7.93116555440477,3.0876571584827306,2.4900757461764504,2.1277257701268852,2.386257820731601,2.765844252559538,6.834372934296385
1570178545373166.0,11.671719026238453,7.999685265807257,3.1260590678628697,2.514032863314351,2.1392043803573135,2.409966671418966,2.793926334871157,6.9000147380300385
1570178545395249.0,11.772380005663274,8.067712235283283,3.174284670496415,2.536204539447476,2.159068235258603,2.4532564010912363,2.8149725630931566,6.93961070726891
1570178545395249.0,11.881387603616743,8.136484031915385,3.2136746595948376,2.5594942463899666,2.1680085261278244,2.4747082978206594,2.8144769121627142,6.984110116803086
1570178545396108.0,11.99487382713067,8.20312274234495,3.2613545122683365,2.5779208530059132,2.1837708395292927,2.51383813864831,2.820410444974799,7.028389412215252
1570178545396108.0,12.114592803867506,8.27194401836039,3.2969973747305037,2.5962717768384,2.1875087873121344,2.535200539355017,2.8322511624532747,7.095246708610852
1570178545418047.0,12.230967142842061,8.342114079033744,3.3396904286658664,2.6122442830766417,2.2005076464443123,2.5780364889090492,2.852683179128076,7.151274479692663
1570178545418047.0,12.349443209140052,8.414490634354122,3.3729307064684133,2.629116478584544,2.2039392358108865,2.601317262340261,2.8670979221321002,7.219346967102014
1570178545419044.0,12.465913485391903,8.488146052243533,3.4157106735009153,2.643718080901097,2.2141238522050455,2.6423154415645844,2.888577510650135,7.275297043215521
1570178545419044.0,12.58520029778388,8.567132372790384,3.4477721266436916,2.661807896986391,2.213527071729804,2.663424821373876,2.910585937637122,7.3444999003984455
1570178545432008.0,12.699387523722546,8.648141108157647,3.4884423242016793,2.6775813969799906,2.220729552891347,2.703575877675969,2.9393076845845143,7.39222747844999
1570178545432008.0,12.812449358155526,8.729512095317542,3.5199399801642772,2.6930078649375746,2.218404731912215,2.725497281585005,2.9569083896529818,7.419170220647167
1570178545433006.0,12.922182369891596,8.80900994487983,3.5596830753712334,2.706545003668655,2.227561959156431,2.7681600164392597,2.974329630512111,7.409632311639514
1570178545433006.0,13.039492217161687,8.890295884048868,3.588217886427734,2.7239550059640707,2.2301562256471374,2.7933025448819526,2.9884591820141866,7.421831387625948
1570178545454946.0,13.159013504333032,8.97103008009394,3.623420920265469,2.741452572880738,2.243581480480392,2.837784855787739,3.0078668843576355,7.43454320212849
1570178545454946.0,13.284283453922368,9.051678767411069,3.6510682338273868,2.7632008111898667,2.249626832127137,2.8656564022792295,3.021799585321593,7.460964353911719
1570178545455945.0,13.412369828550922,9.130368801297724,3.6904827532036317,2.78447539521708,2.2666197592112263,2.915088575721669,3.0423632100348357,7.479558288540487
1570178545455945.0,13.551018772555029,9.210451607275639,3.7228901473289677,2.807648434098373,2.2775828605555946,2.9478867484973263,3.060069256611278,7.519738806123649
1570178545485867.0,13.69410124049942,9.291709611340444,3.7675780663856666,2.8294553986517523,2.300812361125675,3.000086041603583,3.085262758645723,7.5585384412130106
1570178545485867.0,13.84492172473143,9.378086627811191,3.808402977898494,2.852576336883506,2.3165827833497907,3.0341173053198713,3.1080260356435163,7.616196225808985
1570178545486864.0,13.996718543375483,9.469015139283037,3.860977964592249,2.8702366220429676,2.339615450025529,3.085647698327235,3.1371227657821996,7.666849913370157
1570178545486864.0,14.15318233284993,9.564310389179557,3.9050557566621724,2.8848333288153185,2.3486544240691427,3.116698534559347,3.1623994991608,7.7275609229228905
1570178545500825.0,14.30707657295612,9.657468464161328,3.956896093566586,2.89513909611425,2.3622980539353815,3.1635317119058626,3.1888258659858426,7.766051561160633
1570178545500825.0,14.461734075887318,9.748649756893434,3.99964978994365,2.9104483677309854,2.367012356763619,3.1889882515439187,3.1947588956356867,7.8045979310950875
1570178545501822.0,14.610836355285093,9.83939375449574,4.05096510568836,2.929470363212408,2.3817127578483994,3.223741215416609,3.181142754695744,7.829362395789465
1570178545501822.0,14.762544065741398,9.933203655133234,4.093985537600538,2.9542895741981283,2.38667248423521,3.2334855045807482,3.144579552698774,7.875868079446088
1570178545522766.0,14.91707771151712,10.026974093442492,4.145952041368585,2.979559362929192,2.4006192539536784,3.2626974785477474,3.109791490674577,7.925899225923995
1570178545522766.0,15.081282298984767,10.122524512230713,4.187489626745201,3.0078202250907764,2.4094741157959665,3.278305909596644,3.078357226520735,8.003656055841718
1570178545523934.0,15.248411180736515,10.220186479490177,4.233113842915868,3.036036111846999,2.4318236630464023,3.3121964939429978,3.0575286104853476,8.081250530143599
1570178545523934.0,15.424211101895656,10.324254667525242,4.268707816749733,3.067268688426367,2.4490754557720575,3.3277826322960347,3.0358248992071597,8.176969709444922
1570178545537726.0,15.605417234705143,10.434371667894398,4.3151053966543955,3.0960767471634036,2.478232817363196,3.3581313035775873,3.0186200508101,8.264753310649242
1570178545537726.0,15.795939221159248,10.552488638428203,4.356859937025257,3.125393407870335,2.501930986275658,3.3696491458091007,2.997171377296923,8.3686596476432
1570178545538785.0,15.989133449371408,10.675690441875092,4.4097609562188005,3.1532020324834074,2.536103251416138,3.4009590918182715,2.9881426100404536,8.464601691310502
1570178545538785.0,16.18862255911631,10.805037516265669,4.45463501678865,3.184775300683826,2.5602490861868294,3.4197217960827997,2.9844469118094716,8.573253634738277
1570178545560665.0,16.3892852615808,10.940716084463572,4.505649733830928,3.214474201300124,2.5915467766419695,3.4577155792244696,2.9942692896552594,8.67380471275278
1570178545560665.0,16.598060142002744,11.085622330179289,4.547722460596637,3.24616772115965,2.6150541203168634,3.4778866956256835,3.0050270866650632,8.792917520814608
1570178545561663.0,16.812203561312096,11.235854636327936,4.601532319426195,3.280587280577237,2.649251153214703,3.516927509831053,3.0239223418276815,8.904153931329432
1570178545561663.0,17.035140008685442,11.390542531671171,4.65287469315711,3.3214439358367303,2.6755683123409857,3.54410069010772,3.0422657168180964,9.028837595832647
1570178545583604.0,17.260323775257604,11.54731486162455,4.714207694197915,3.362273887542522,2.711798160810647,3.5902634761573124,3.0716436046774134,9.146969178928476
1570178545583604.0,17.49461866911958,11.708717446695786,4.764894464567069,3.405441101386934,2.7422945318048444,3.6191521005143983,3.1012435348929284,9.285840614538138
1570178545584601.0,17.734689056871748,11.874160470592992,4.819299243452842,3.448867126119874,2.7823605295485248,3.6660692140570017,3.1394152589633917,9.42380715003078
1570178545584601.0,17.984445932999375,12.046252723271968,4.866922231019991,3.4959447394986554,2.8131448889988664,3.7006853337975523,3.174827689357387,9.580661815684849
1570178545596569.0,18.2360517640315,12.222895978275805,4.929762602067574,3.5402473290734933,2.8522767038586374,3.7564405511265853,3.217447676650685,9.729983773626477
1570178545596569.0,18.49170891796291,12.40516545596226,4.991802025377532,3.5847416087319184,2.8833267936783202,3.7981767643980917,3.254231537771603,9.894143610622923
1570178545605579.0,18.749372035615867,12.590786138474515,5.068268239870616,3.6279572808453384,2.92383870404167,3.8566159063287775,3.294955262443478,10.051978115732293
1570178545605579.0,19.018410230983182,12.780683559106922,5.143007242274007,3.6736821431468547,2.9578639182254403,3.8979164536878015,3.331725310897479,10.224397921196418
1570178545620523.0,19.29314892254662,12.973736702818584,5.22903015568546,3.717635818719555,3.001310371001675,3.9554938676121254,3.380034747438224,10.381656386767162
1570178545620523.0,19.576264246324858,13.172653945394561,5.309681856920123,3.7619403449877056,3.035724040553832,3.9973825314919487,3.430171826262646,10.543768599744098
1570178545622500.0,19.86717591955708,13.376349602127538,5.401611440325199,3.8051415953834016,3.0799397386391516,4.056602979000782,3.4870695473515507,10.691842354856687
1570178545622500.0,20.175053587712654,13.585505148065174,5.489013619063177,3.8538973298495183,3.1192786852430854,4.101634986038161,3.536304329707728,10.859502732113178
1570178545643443.0,20.494914295878367,13.798953335490543,5.586226510818521,3.9053704592292107,3.1684098748309797,4.163496368690681,3.5918419684252796,11.032364502762006
1570178545643443.0,20.82773590619816,14.019129415052596,5.678848094478799,3.9634308250915966,3.2095487914123866,4.208105430231723,3.6436601739160674,11.225778173100675
1570178545644440.0,21.16678954198364,14.243421040909325,5.781327681387501,4.02501377461056,3.2580613733161723,4.268494476930138,3.704358326064389,11.408235940590746
1570178545644440.0,21.516497651066647,14.473492462836804,5.876576161135638,4.092083704086565,3.2977864394115763,4.314937026909953,3.7665026675593154,11.601281248698168
1570178545656444.0,21.873860164414193,14.708383194184076,5.980805606832157,4.159821943451716,3.3472098049129646,4.379169229661496,3.839765525909622,11.781635653038983
1570178545656444.0,22.245060423922865,14.94983574744806,6.081420554084074,4.229643471149388,3.3895339849289368,4.429834299446441,3.9073981123899344,11.967960411723004
1570178545665468.0,22.625787112031215,15.196810521294212,6.1938644521991435,4.29745139835993,3.440766979788919,4.4991930929239965,3.980525953041263,12.147768173541944
1570178545665468.0,23.020669570750073,15.45093699491803,6.3019070688842715,4.367174363386694,3.4861046168802186,4.55541117169943,4.05234691947719,12.353812443225543
1570178545680345.0,23.426424365583763,15.70865764097512,6.420736196934461,4.436578103739609,3.541107809535908,4.625841955269206,4.133290188089185,12.56186596663251
1570178545680345.0,23.846850688144126,15.972250056959874,6.53679883875302,4.509541813406615,3.58913863967805,4.678130542049025,4.210153068586953,12.787850948514443
1570178545682384.0,24.27480804536225,16.2434711102263,6.662275034889613,4.5816341140910115,3.6452457377493848,4.747823450459599,4.294673354591277,13.009944226893523
1570178545682384.0,24.71424931722445,16.524492156442204,6.782135629378021,4.655843176648298,3.692155518395718,4.807170908917041,4.37841599858154,13.25034380922061
1570178545703373.0,25.162897104898924,16.81392038729454,6.911095897658726,4.7316927096619175,3.745315323348043,4.883156570727226,4.472473897016891,13.486370212554624
1570178545703373.0,25.627528151348418,17.112468914472046,7.03448411773724,4.812252802630206,3.7906885837713062,4.944232638315091,4.561640765340212,13.736695969125421
1570178545704282.0,26.105109917801624,17.417300219508906,7.167096033421933,4.890784978666503,3.8411229440756682,5.0223532459713445,4.655041726371802,13.983810590266364
1570178545704282.0,26.59760647707739,17.730453110984996,7.2937753784659485,4.968985362927325,3.8791117555278194,5.087801134608888,4.74432253268536,14.249117642331722
1570178545717473.0,27.09953495872548,18.051887009819342,7.42974117271762,5.046510091157023,3.9238985757925735,5.1698449493683585,4.842820332310918,14.506861098036893
1570178545717473.0,27.615920696944514,18.38258877241746,7.564200287106721,5.128141063231454,3.9652179686172553,5.238221082389697,4.938990596362537,14.774853692221605
1570178545724227.0,28.141434988723656,18.71835026812041,7.711145472561668,5.210265964139742,4.017853893403526,5.323695250902894,5.036104262068635,15.025799106207947
1570178545724227.0,28.67954531587063,19.060386457993953,7.856840897858646,5.297358162024694,4.063652826088451,5.399446013285592,5.119286036720136,15.27468456583904
1570178545740761.0,29.22685368966603,19.407730995104973,8.013514201800218,5.38782095081884,4.117373940695481,5.494401965645054,5.204162321021799,15.51355139389328
1570178545740761.0,29.785990439594453,19.758891537849195,8.165098696750071,5.481920814744633,4.165703421958273,5.576165752204859,5.285113805041233,15.771180380866275
1570178545742180.0,30.352335183146536,20.107367550549988,8.325144654001816,5.573645619476895,4.222974014165932,5.670423526005839,5.367080115706376,16.02300675297698
1570178545742180.0,30.928991890472805,20.450644673400767,8.481132264498056,5.66597691750991,4.273030931866644,5.750278451375115,5.434865719579505,16.276662074805763
1570178545763124.0,31.515824195223264,20.79229400008864,8.643174924233103,5.758547780306954,4.32763736306536,5.849688008610216,5.499766049942079,16.499707349403373
1570178545763124.0,32.12104244153965,21.143187314622935,8.79852545065109,5.8552793585897875,4.373605567916011,5.942323929897216,5.5555905836926796,16.72353820806924
1570178545765118.0,32.73591345075678,21.501709748830486,8.963561959394873,5.95185926374641,4.428335469629447,6.054150051891729,5.61955660990694,16.957352565007348
1570178545765118.0,33.36187706060923,21.867989763865925,9.126673426994815,6.052989895405054,4.479671554933391,6.154829862964682,5.691415496465774,17.227893594031723
1570178545777086.0,33.998367529695294,22.24667855265446,9.300054586791138,6.159236912833742,4.542124999432343,6.271524670667953,5.782191137129071,17.512860519448378
1570178545777086.0,34.64937136976994,22.638882010112425,9.47237108618378,6.271666173575878,4.601140458566207,6.376015615268841,5.880982906780771,17.82404715691706
1570178545784501.0,35.30749236003403,23.03783351306838,9.654713336556037,6.383497009618348,4.671811401670889,6.493768561662481,5.995340516621982,18.140097971648295
1570178545784501.0,35.97038619725266,23.441155224210107,9.832930785234842,6.495882038613514,4.74034600564535,6.598796130567555,6.113941848128301,18.477912761854476
1570178545801047.0,36.62621873621496,23.84243029979652,10.01916344702045,6.606310585053472,4.8191793311268745,6.720485471113041,6.243270328012859,18.811252710090432
1570178545801047.0,37.25582800045772,24.232494014387537,10.202302040466632,6.717221368687834,4.894639111560613,6.831526375178401,6.37199001309926,19.152533081496586
1570178545802083.0,37.79171936299828,24.581953738811734,10.387596457413677,6.827321681148482,4.977306675454398,6.955716234275459,6.503503152101672,19.48425054474548
1570178545802083.0,38.15302533621873,24.84225392424178,10.555658390756802,6.936435201334365,5.0502932145172315,7.065627100322277,6.624738305092459,19.815743638448094
1570178545830943.0,38.349224490637916,25.024012511974494,10.723858843679556,7.035094431442927,5.127418648104226,7.1866321344364055,6.74462366697304,20.132803080808486
1570178545830943.0,38.47653792137716,25.19187795667352,10.891460011260865,7.124946841046241,5.198057885856455,7.291496354377817,6.855935374377796,20.456173378596734
1570178545831940.0,38.565709727043085,25.322268009726702,11.051731806986696,7.206881790372662,5.2722470235852,7.402283353802037,6.964255179464642,20.73982474639732
1570178545831940.0,38.636444944159464,25.410579584585054,11.18935452639646,7.287230098473249,5.337694887926193,7.497744103658012,7.061606764410865,20.97630111554138
1570178545837923.0,38.72740500165388,25.511541492906026,11.325683531433526,7.367354575649953,5.410846988851162,7.605170288225954,7.151382943695824,21.16666935161611
1570178545837923.0,38.798131041495104,25.564163422901597,11.427577720237412,7.440875302525469,5.476965190264348,7.695026346315532,7.223828148793055,21.321124102464648
1570178545844061.0,38.76459603167117,25.473340445400268,11.465428130508737,7.483314368595334,5.535721175819853,7.780721865257118,7.2881710029549795,21.410047215356304
1570178545844061.0,38.67940572960999,25.270232296151125,11.423860369739286,7.481987587548791,5.5639860267362575,7.831743516877608,7.324505456074863,21.45555196716325
1570178545860861.0,38.617672699563336,25.065293188243512,11.350054235337353,7.453394827219318,5.581071788643772,7.880917236375575,7.3409448823437815,21.479789509778147
1570178545860861.0,38.5691799461792,24.928922698650215,11.269895984228471,7.418392985978427,5.591782277871837,7.925103995828851,7.346372112829378,21.49388089633038
1570178545861859.0,38.56136933615065,24.853291125358385,11.177730609408238,7.360648199765106,5.601791850419687,7.987723681241224,7.32798824909967,21.391274719508548
1570178545861859.0,38.60092553560277,24.82671652002263,11.069759762544425,7.275994058799911,5.592484241078918,8.044638683100482,7.2783467922556495,21.203014659967426
1570178545882804.0,38.60048063156221,24.829356265118474,10.95231525984362,7.17575202941886,5.576996502420232,8.115784008237481,7.230840285159554,21.060500976004317
1570178545882804.0,38.520675945802616,24.777200884450394,10.812646472054983,7.0753431610320465,5.55282409749091,8.178988970185646,7.18315449121455,20.99902485725256
1570178545884799.0,38.34689216497818,24.594310103281526,10.685609440860617,6.98795241801145,5.5394061384604525,8.258450388103007,7.124055068803694,20.97010791997956
1570178545884799.0,38.07033946397604,24.332041330913185,10.569732654325145,6.911601399098292,5.5310664319431595,8.337147670672262,7.052968624481627,20.986191549887316
1570178545897798.0,37.68362978751847,24.064717031670085,10.443750208955871,6.8325164093150015,5.532394110174763,8.426669049460683,6.981491521888579,21.04396511500823
1570178545897798.0,37.17602552884514,23.814919419947497,10.31271596870156,6.748872496966143,5.519482393003589,8.491297599187892,6.909529970172285,21.13480828148261
1570178545904746.0,36.6034065137538,23.55186402490323,10.187111270100347,6.652594687606767,5.48285848714666,8.517340891940497,6.840657107637529,21.20729502715454
1570178545904746.0,36.03179767828741,23.22444196361551,10.055100903354568,6.5439602106879065,5.4236994264245,8.482012047359119,6.7609347705337255,21.21401882759792
1570178545920947.0,35.45599704710857,22.82865109374771,9.94279753268923,6.434728326470149,5.376529892137116,8.436556382396452,6.669001348814471,21.126919951593724
1570178545920947.0,34.88026056469373,22.37401691717582,9.84463054739057,6.33192120538083,5.3373241130622135,8.386119857586642,6.566587357562772,21.002320026779152
1570178545922697.0,34.32156374024424,21.89530867515809,9.743232777601428,6.235974290683146,5.308953077274235,8.347617169609437,6.459720126269606,20.864943969384434
1570178545922697.0,33.75711435365418,21.429419923925188,9.648525220000746,6.1522462038135135,5.281472761063859,8.294721796893965,6.3535726758624556,20.74165664850861
1570178545942646.0,33.19187695768177,20.993101123587746,9.575007575812938,6.0809343188655225,5.252203815978878,8.211706827642436,6.240508572279511,20.6378201125643
1570178545942646.0,32.693063596235284,20.616665662439804,9.506286843074642,6.022055796454015,5.209400480227522,8.095014728644323,6.116534738436374,20.515760663710363
1570178545944639.0,32.29061931668387,20.306357570780563,9.43633774362165,5.965098895052526,5.166081674815385,7.981916345209702,6.004676001132183,20.35525137588337
1570178545944639.0,31.96034129102462,20.054420601568257,9.358031763930995,5.896322817112112,5.118708031324113,7.846252767465041,5.90630767797453,20.200860469470253
1570178545956605.0,31.650100846949485,19.836403586465465,9.271544282725461,5.821036801845223,5.069473019215451,7.699004820022484,5.816744856359357,20.044839436309534
1570178545956605.0,31.29268336520061,19.597707393024372,9.180145404926462,5.756231533963675,5.003718345450262,7.557592749375545,5.741919961543203,19.873266223475472
1570178545965651.0,30.84848247271443,19.322709769027703,9.092536192617006,5.698639068572255,4.931726170606229,7.43678161960967,5.681771829739657,19.68184712419667
1570178545965651.0,30.351754450911244,19.06112182087236,9.009472371941728,5.643755296371205,4.861250315594949,7.32363895009276,5.628478184981428,19.489239707203012
1570178545980542.0,29.845095812369745,18.842679405413776,8.9364090799921,5.596060051832227,4.8027951576620165,7.225495400187332,5.584575023298571,19.2979327810791
1570178545980542.0,29.361177046371555,18.662369015717857,8.875238681104673,5.554879783863191,4.745646006204442,7.133031595911431,5.545853273046351,19.114516238494893
1570178545982537.0,28.92581723938651,18.527648539294287,8.83069501237509,5.513141880880059,4.69310557261546,7.059633252664798,5.511304749514128,18.945196866661696
1570178545982537.0,28.491300981179517,18.448980786996476,8.79932165382386,5.476716046612881,4.6408801586720845,6.9945379348772,5.480762004340348,18.812024636875364
1570178546003481.0,28.033837525289574,18.41384277725368,8.775249958851836,5.451073567888906,4.596705374081629,6.949618281374577,5.463125791497636,18.726428230730164
1570178546003481.0,27.626475582439486,18.387090503402263,8.74902570118901,5.4416742830168525,4.5583944149635025,6.913929463968588,5.460496846352862,18.687628416550655
1570178546004478.0,27.312412568925396,18.343418593651737,8.718037826466057,5.44205932550427,4.5339661203460935,6.880218043521113,5.475594043562029,18.677161107217803
1570178546004478.0,27.0753830816393,18.293480615360604,8.67798013173183,5.438188395172582,4.510858090001612,6.839191734191659,5.500933269802289,18.690644738543668
1570178546016447.0,26.84639151240773,18.23237883533996,8.619032455879276,5.42119912099377,4.483017599656481,6.803598289307126,5.531669951983663,18.65955912895365
1570178546016447.0,26.551094535796803,18.155177511012766,8.540954561298527,5.39893403443674,4.447959005686843,6.760440113639157,5.563087103182048,18.528553717716818
1570178546025422.0,26.22693592042648,18.087914445675693,8.472505582495584,5.385071060655579,4.425262754808815,6.727371527764041,5.596231506950149,18.35254566905294
1570178546025422.0,25.94173249876887,18.04602099736784,8.425861509224443,5.386503418056975,4.412117715223561,6.710192322928523,5.637278557983945,18.195930366817123
1570178546040405.0,25.710170509640736,18.035519111153544,8.388795784343834,5.393692713592273,4.410369234611291,6.715383958941607,5.690811672107253,18.064532818773802
1570178546040405.0,25.51250678746193,18.046603215849046,8.351945284791036,5.400544157863629,4.414977794113421,6.732173453840656,5.738387405396619,17.94137538055605
1570178546042377.0,25.335878380264592,18.0611634706938,8.324113903525356,5.414201540049969,4.43187817365412,6.757064774885292,5.760468683419431,17.80403956744215
1570178546042377.0,25.215893640880786,18.08938797742067,8.305693059754466,5.4347528001279555,4.4482579224323455,6.769124323303049,5.751723218147971,17.674083514247105
1570178546063321.0,25.133923171760788,18.12520342076323,8.286221345481735,5.450553827011724,4.459987243440426,6.776283210921386,5.727371236638822,17.53236694402932
1570178546063321.0,25.010512956857077,18.124714802851443,8.243001081580024,5.448799119612687,4.4499717325612655,6.7511961460189065,5.67429315004723,17.323282158335076
1570178546064318.0,24.812295316740165,18.068175057710686,8.167758847396456,5.424276536977946,4.423048463277678,6.666946038227709,5.580469737289985,17.049193842653214
1570178546064318.0,24.495775966558664,17.945492425977097,8.079539437595855,5.393510040076249,4.386261268909288,6.539099380500252,5.477198519150577,16.747988611679666
1570178546076514.0,24.043347035860748,17.743934066421758,7.981580309497126,5.362037197408445,4.350089758803416,6.3983619048102724,5.3923416645060875,16.433894135818154
1570178546076514.0,23.53093826416071,17.479325030511173,7.871109904893691,5.3332318163693975,4.313420640088713,6.249269192180198,5.322119425414352,16.122316863524272
1570178546086260.0,23.02987544659707,17.18743160511277,7.760297459021577,5.313033993633095,4.283479923891498,6.101937613235161,5.259722695136638,15.815959370214392
1570178546086260.0,22.555298522077518,16.908279068070815,7.662450454706878,5.306099692404988,4.257237944610631,5.954920297667586,5.198260274721156,15.511055062387003
1570178546102217.0,22.106858999929226,16.660776447513847,7.58828622909318,5.313035893906947,4.248770664293276,5.820203963595527,5.139813464779226,15.215088702121488
1570178546102217.0,21.697938922703766,16.440217694282474,7.535580104393934,5.333687233955106,4.255288483681283,5.7013185870868455,5.0892551311905585,14.916640081108088
1570178546108769.0,21.33495318697674,16.233772682581908,7.500516625945083,5.367466944513991,4.27956047433253,5.601995952512375,5.048009425987238,14.62731139649305
1570178546108769.0,20.99654730985166,16.048878319172374,7.48784184969308,5.414295793530727,4.3133803718413235,5.518242748006387,5.01305717912482,14.371893901591852
1570178546123161.0,20.68434339762214,15.900705044565814,7.501657833144047,5.472644081742608,4.359490708391711,5.450660660148568,4.989492010756479,14.127133691393476
1570178546123161.0,20.42370547126764,15.792606403298096,7.535164997554028,5.541389763519285,4.405863239518243,5.397387125994099,4.978450473906563,13.875274910156811
1570178546125166.0,20.230397815031882,15.721888136403411,7.582132587163372,5.617016197568651,4.453995099060215,5.359608283310155,4.978419687255024,13.636746071316544
1570178546125166.0,20.06670614817354,15.676313047526847,7.6481192628334895,5.702871239555835,4.500271417551038,5.32597385612347,4.981397640615979,13.423661409476308
1570178546146100.0,19.8581920352033,15.65629061807026,7.736334238187655,5.7976336094081535,4.5470914464071175,5.292554385223741,4.979268800111868,13.246069435297022
1570178546146100.0,19.60218145264918,15.68155201104011,7.837979702217922,5.8993442397540665,4.589974139659363,5.254930862664664,4.970209282010702,13.11974048297343
1570178546147097.0,19.346369883416088,15.753548646250985,7.954522202823267,6.009507080995863,4.641394249470386,5.226548014323563,4.965770508373156,13.048365600189447
1570178546147097.0,19.11294447667966,15.855633686114272,8.091977806793219,6.128820341001043,4.695545911448794,5.208124934956821,4.974890098492396,13.030739072388327
1570178546161095.0,18.907276132576055,15.974011152068773,8.245954575116768,6.2473338082269185,4.755750312390911,5.202577259898946,5.00151054291117,13.050507428143792
1570178546161095.0,18.722358420424218,16.10288849589665,8.40659773709098,6.359678250637109,4.812042762344094,5.1974164986889715,5.035591278574061,13.091053592432413
1570178546162058.0,18.55903254998876,16.25298292250975,8.575973154665391,6.467597299068984,4.8602317032919355,5.188685310515512,5.072387490330613,13.14857230057041
1570178546162058.0,18.416096773594756,16.43192127248749,8.757253353316907,6.573080926870684,4.8979322392304425,5.181512222814629,5.106727657191314,13.234022099603457
1570178546183001.0,18.28935881986805,16.632677652565636,8.945313546603288,6.660377196010856,4.927191521755794,5.186691192015997,5.141467456270438,13.355590419324152
1570178546183001.0,18.17951313365164,16.853280062455223,9.129303696156754,6.720616087103291,4.939040960656576,5.191507967356089,5.186577542819096,13.519134282125352
1570178546184996.0,18.097079937517567,17.094932403266746,9.319997526381904,6.773724319814556,4.953482059363862,5.197955949122593,5.251467437577453,13.718656052290964
1570178546184996.0,18.062738998503008,17.328109668563815,9.49006571359652,6.820147714091429,4.962809135841131,5.205508209933613,5.331502553811999,13.959156943146121
1570178546196963.0,18.075926182946123,17.519327090396203,9.59182975681718,6.840795877724599,4.9518012566683645,5.21840187918711,5.428150546504936,14.236631833143166
1570178546196963.0,18.125444312808412,17.676790006604048,9.656061634083539,6.854619626335493,4.926626191737698,5.2292611407464245,5.535748286485858,14.553920833040063
1570178546205939.0,18.213582815991803,17.80767362237872,9.709087651036132,6.87160926494938,4.902818405111305,5.2466958537613335,5.650393450921985,14.90601789606547
1570178546205939.0,18.333375392324264,17.92356192260068,9.734156781346178,6.878797378415269,4.876170005890286,5.268292245406964,5.765890720086992,15.28693801677011
1570178546219903.0,18.490796023994523,18.049315225422106,9.708186885183453,6.869043053527251,4.855778387449499,5.300547211872637,5.8751132153142125,15.671150023558049
1570178546219903.0,18.692489966860915,18.186700912402067,9.625973026670689,6.830210618654858,4.832301104251637,5.334435037997307,5.969863514361004,15.979235895437064
1570178546226884.0,18.936171596546956,18.348668443336123,9.519750180926348,6.769247053707923,4.797356377852967,5.371514538999381,6.054475846294187,16.147306769343082
1570178546226884.0,19.239902783790004,18.557881890564513,9.419200369376428,6.706413444960701,4.756062995713471,5.414472156193422,6.131797123135362,16.244234183492622
1570178546243838.0,19.57479702129283,18.76195022744918,9.31597601135163,6.644856584260595,4.713929692607995,5.471815161285081,6.2164225861214115,16.35022864017684
1570178546243838.0,19.836019671852206,18.83921649913675,9.211227527048802,6.584724356323518,4.674029241446561,5.533467645611162,6.303823498070132,16.473355623376236
1570178546245833.0,20.002224798552557,18.770096079638066,9.109603479998203,6.527218653713002,4.6474588519767535,5.601832036247448,6.382772387201897,16.583711001737917
1570178546245833.0,20.172731345916368,18.668307519018974,9.02574027097486,6.474709159497458,4.622571928975635,5.66820083869699,6.445565076548429,16.602691090323457
1570178546256803.0,20.359120361556286,18.591185767146452,8.958851773869776,6.424799987543429,4.592684333068055,5.737187906747025,6.472912709594722,16.482197768058764
1570178546256803.0,20.50000148206557,18.482423853026532,8.896043413743948,6.378863227720619,4.566842791909787,5.810633263942749,6.464075214686547,16.290099675259995
1570178546265779.0,20.59364587578934,18.30349182942505,8.821953573535424,6.3465455850445815,4.554141545885894,5.898135536100945,6.4494757210043065,16.078853695801325
1570178546265779.0,20.649239653806667,18.099881931955057,8.744059153307019,6.325086907318518,4.549153885689411,5.99005367154597,6.434884918815597,15.873259574835126
1570178546279741.0,20.688760929518033,17.927772787777965,8.651777401451595,6.305657261721352,4.549420681094942,6.085948610799664,6.4170658380301635,15.689581193760988
1570178546279741.0,20.73244632522931,17.808306073738457,8.550711999109625,6.290746325314036,4.555668263284174,6.183454759191405,6.406194781420833,15.52041727843828
1570178546286723.0,20.782137964492698,17.72990255630795,8.445609737727109,6.285665621268546,4.562818099011702,6.283907769820984,6.40881343548737,15.38753293328974
1570178546286723.0,20.853570431901478,17.666186684551008,8.345238778523877,6.289945162398407,4.556334897904705,6.381747677681182,6.428461761683746,15.274240843178845
1570178546302681.0,20.900369101010597,17.60866695956811,8.24670952412123,6.297974041372377,4.531451509268435,6.458665684365571,6.451441896048397,15.135861503645346
1570178546302681.0,20.86582596723206,17.55556985439817,8.140560044814842,6.295295632217677,4.483517678925982,6.48463021686621,6.456273216364345,14.97279416810462
1570178546304710.0,20.77942126669025,17.498660322866144,8.015273128326871,6.277674942052688,4.416327103923865,6.483010987433294,6.450490550415303,14.811917388294724
1570178546304710.0,20.648252935939507,17.423776825863808,7.8895724561960066,6.259858918626417,4.343668596186996,6.481949243644045,6.445998484832756,14.643120694221958
1570178546317015.0,20.50111511073182,17.340729438025473,7.761683878562951,6.246391989251138,4.267437245256145,6.461880105846772,6.409076655647804,14.445077458844109
1570178546317015.0,20.393856444294325,17.278910733799975,7.638653144629083,6.223701231722447,4.188222096581308,6.3897862742465765,6.31561680597561,14.225550283841477
1570178546326617.0,20.308822549187692,17.239032784874393,7.513201491743752,6.179375012171455,4.115681935749986,6.273357093672361,6.19616435152234,14.008146626384685
1570178546326617.0,20.224031370139265,17.179956930659888,7.378588292804118,6.1108634720356205,4.044859032329617,6.148517980883491,6.083282540804577,13.789525540754633
1570178546339736.0,20.13269446100345,17.081103881678562,7.227380297823547,6.0232365368855385,3.9589133596336996,6.024623779606447,5.97647249603001,13.569275698397005
1570178546339736.0,19.946676796659467,16.921159779156707,7.078904507688135,5.9164393256795975,3.867047160313278,5.903619994499694,5.879465201581881,13.340409708941882
1570178546346564.0,19.60250613040568,16.668387785403798,6.936802838813432,5.804890548594585,3.7721019302095864,5.782199382376493,5.783595801642779,13.111942908329219
1570178546346564.0,19.169233288983555,16.35164479045987,6.804595648309385,5.702834665651392,3.6676054011354773,5.66479780196757,5.6807409533682,12.904011312043528
1570178546363518.0,18.732839383755294,16.014143719767034,6.671951623225378,5.608166415845609,3.558611309286123,5.5518896131952875,5.57592512235453,12.730964283781814
1570178546363518.0,18.31675628454701,15.67530924523893,6.547224475807773,5.517847616398721,3.451326730715285,5.447337083454061,5.483743524317562,12.581736690056644
1570178546364516.0,17.931905337678238,15.34880426304571,6.42281262291773,5.432707071218757,3.3399246028259917,5.341547403879958,5.400518810314168,12.457373611255797
1570178546364516.0,17.578150944572748,15.031414841781036,6.304928384720218,5.351384514716271,3.229122657308595,5.234867942289943,5.319130840033791,12.363271223278735
1570178546376484.0,17.24436262206933,14.721812139451535,6.184571471417542,5.271071339409525,3.1222849077865122,5.12436633067462,5.232455366935525,12.295267713214612
1570178546376484.0,16.92280142286771,14.416064867833523,6.060674034469686,5.186164429610107,3.025370595850291,5.019543656161667,5.1465552242039045,12.221719851897662
1570178546385512.0,16.62174980295942,14.118874684315715,5.929586520011333,5.100935696773962,2.9329651287944913,4.917739999934255,5.062057859696421,12.133989027572953
1570178546385512.0,16.334692874358456,13.83048438860732,5.805366588047308,5.01334662418507,2.842556715870782,4.827842331546409,4.98682822537293,12.050276970946074
1570178546400420.0,16.038588222038925,13.540523446186748,5.6799050394701265,4.920046165211752,2.753166047776766,4.742200841449793,4.920693277875505,11.982235076588099
1570178546400420.0,15.743178467092914,13.251293037359735,5.559637211740749,4.829381052458823,2.6686845276786126,4.663440952142144,4.864489265118465,11.933857677138187
1570178546406429.0,15.482501215931599,12.968757105964398,5.441128788660627,4.746578066848211,2.589050084362385,4.589078405201147,4.813115642602044,11.909820335564703
1570178546406429.0,15.262626925652079,12.6910741350072,5.334285653753445,4.668507946733923,2.518427773716354,4.530396179209643,4.76542027225186,11.89197433183931
1570178546423358.0,15.074869446166124,12.419860586569962,5.23616024934805,4.60225261412596,2.4544645604716435,4.481895617988346,4.717829818544001,11.891039154260634
1570178546423358.0,14.906095412740955,12.157753541850076,5.14709499703977,4.546994664960068,2.397614929278893,4.443741384360252,4.664707840803638,11.91513523769633
1570178546424382.0,14.759644009711966,11.90112056480336,5.050119785037842,4.491194945816262,2.3465035505499143,4.407329057038518,4.587610763236611,11.94187338282318
1570178546424382.0,14.64740726672709,11.648643163364573,4.955246431119838,4.431222652142238,2.300260350167788,4.3768473115466335,4.4974143674036675,11.914238024714914
1570178546445300.0,14.571157044315308,11.413950947234214,4.865379696547537,4.372713245646449,2.2545542513197128,4.351383003896294,4.407775717477338,11.809221962851865
1570178546445300.0,14.509036444361378,11.205993212761223,4.791510632649936,4.317960268156776,2.2108141969014126,4.322692839114039,4.3236766824483155,11.677333291671452
1570178546447370.0,14.44209297989644,11.028018118328136,4.7242758100003766,4.2702512943641855,2.168329132689827,4.2545210497086785,4.243910601274765,11.554227514135532
1570178546447370.0,14.376141585529485,10.88010079328187,4.6596817604676435,4.229141028739935,2.125327960564931,4.1616746564609,4.175525126437151,11.434572555761145
1570178546460260.0,14.323301677858126,10.752656419568515,4.588975531244647,4.198184564858241,2.0834103766852383,4.0631340854733935,4.115790376077304,11.32599106309927
1570178546460260.0,14.266751941605387,10.620529633363796,4.524446294067559,4.181045417727503,2.0425912462898275,3.9690102399788803,4.068043102622975,11.224885628511904
1570178546467242.0,14.21424720301841,10.467570222358932,4.464894687452694,4.18017898248077,2.0020447056105994,3.8695922052170815,4.029574464498289,11.147902954706092
1570178546467242.0,14.178233245416905,10.30186638100539,4.412072374567801,4.1947653564730105,1.9655279622573887,3.7757014421810227,4.000510592891733,11.105945443444085
1570178546483198.0,14.12301224757485,10.140110165491015,4.3505674759390605,4.211664879811657,1.9344799559603352,3.6863082583743427,3.976270649652467,11.088698122957007
1570178546483198.0,14.029265579205008,9.98737481698971,4.291103561786863,4.213832751181857,1.9050778561143669,3.608982343343264,3.9572337740002417,11.079600829890836
1570178546485194.0,13.92713948535719,9.847198421929592,4.235720010852985,4.209649752379838,1.8808734474354192,3.531090635741859,3.9394016673470365,11.077966584705134
1570178546485194.0,13.835205099855493,9.720446255720743,4.188170833244731,4.213790545663653,1.864236959241645,3.4572276413628926,3.927505126706988,11.074794694716887
1570178546505284.0,13.743821743634188,9.602559202946352,4.144859937252975,4.230443425489832,1.8559263922058344,3.3819507470903867,3.9259428433928387,11.069355051859961
1570178546505284.0,13.623440940501998,9.480698993585733,4.114917398176497,4.254615149381372,1.8482311331801817,3.311370368268107,3.9290239637779725,11.069623258463565
1570178546507548.0,13.471623272001349,9.3478907781053,4.082013870026807,4.2779992102808695,1.8413800758802823,3.2377589204844406,3.9110895126091374,11.074606256591027
1570178546507548.0,13.318155498298953,9.207496757807464,4.043999078512602,4.291193937963154,1.8374135407154681,3.168511147260919,3.869120676147819,11.08937102748026
1570178546519102.0,13.185370979378614,9.067597055283008,4.003104583417778,4.288354065525117,1.8412603663243639,3.098021060171113,3.8135484859495166,11.137473322008352
1570178546519102.0,13.077415115806106,8.933268462131215,3.9711036407048765,4.270663972918206,1.8476274309338858,3.038298132848379,3.7551618670492104,11.219157097938274
1570178546528348.0,12.991468548116258,8.809523255151737,3.9391614499162064,4.251223301965974,1.8565820783065576,2.984322794814405,3.6944100482964113,11.319309686106461
1570178546528348.0,12.913256151802535,8.69375146182687,3.9117213141689846,4.231555293223105,1.8642314454641211,2.935000891744405,3.6397573558337344,11.422334932060618
1570178546543089.0,12.836786101803165,8.583513047373419,3.8873501184476917,4.198804869909983,1.876282033314441,2.8812159028767206,3.5935648535792764,11.532995505332535
1570178546543089.0,12.74492825444013,8.481927635452257,3.8667087542198724,4.150768248245842,1.8876088429523714,2.8299316874140676,3.556411063672121,11.669669632996737
1570178546545033.0,12.64268296972734,8.389318774292153,3.8372992648668434,4.101858232588119,1.8992739659704285,2.772338049711596,3.5250945985898063,11.847000858010185
1570178546545033.0,12.54751391666993,8.3010123811945,3.8089982474994706,4.05631103183144,1.9064538211395436,2.716132533837524,3.50217394888308,11.987042491328879
1570178546566012.0,12.45878505545408,8.210994262672589,3.7814012401849664,4.013547395500397,1.9178955888749771,2.6577546923347293,3.4858946099494847,12.008944523771508
1570178546566012.0,12.384070326005181,8.124118228512538,3.7575327267991376,3.9746291324825385,1.9311083971294265,2.602670002449172,3.4792152930863076,11.963659563017595
1570178546566974.0,12.304316708979027,8.047224640330962,3.7356809042979844,3.937083797275575,1.946207686848525,2.547381770816857,3.477184678809574,11.901941986134524
1570178546566974.0,12.181806021179979,7.9716482466938325,3.7194379649935687,3.893995266403855,1.956342997209556,2.4966669679985287,3.462931063319122,11.807631610478348
1570178546578963.0,12.02841575640142,7.890940700919909,3.6976020711316124,3.849936899927555,1.9711536297149153,2.443884500468454,3.4167769203659484,11.686989807835499
1570178546578963.0,11.849021133510828,7.795238584257295,3.678151987402952,3.80812406081287,1.9870274343509482,2.396602906384759,3.3579417093521586,11.559447271209047
1570178546588556.0,11.66032007951041,7.691144272425196,3.661171698607158,3.764165127827739,2.008226704661204,2.3508675860780457,3.3034572935534254,11.454247622057034
1570178546588556.0,11.474666932974001,7.590072793163282,3.6512692076457705,3.7135738400138574,2.027706502648529,2.309766869036191,3.255468388580159,11.362328309309063
1570178546602879.0,11.266021450873243,7.486937345092537,3.644510097802166,3.659170889374257,2.0504294516301607,2.2702971608551406,3.211696029907684,11.267007592982841
1570178546602879.0,11.040994655935515,7.383174312938026,3.6449296082362816,3.6031084954674557,2.070966397274599,2.237069732694655,3.170409629561154,11.177305460927458
1570178546604873.0,10.82842053444427,7.285989392422902,3.6469142382534834,3.5509371929340077,2.096125871986898,2.2081898658430323,3.128757733266579,11.104644358518616
1570178546604873.0,10.62565166830867,7.189925236728687,3.6571790870441263,3.5075479312657882,2.119535822917478,2.1846228918568875,3.093503368548945,11.019925792305592
1570178546625850.0,10.427886830520809,7.095078152723206,3.6739059039955713,3.4746531584576887,2.144282701881823,2.1626716485518176,3.064752733277056,10.901645057995374
1570178546625850.0,10.230069268680442,7.006892252275232,3.6973070859503543,3.447822822677091,2.162407350122765,2.1452577350957505,3.0446196585120706,10.762208262044338
1570178546626815.0,10.038549614197548,6.9275980571949685,3.7251243216514136,3.4297215318016354,2.181022741741095,2.1297267530344595,3.0273005681319294,10.630985856049374
1570178546626815.0,9.860449910415195,6.854915280997987,3.7603910890451697,3.419534239895039,2.1960993763716403,2.1161415020236016,3.007183544241538,10.500501640441348
1570178546639781.0,9.699134281295363,6.7865924595470375,3.7909335967756896,3.4076621164109397,2.216138152701828,2.1045152529001343,2.9870413674279996,10.378771783468876
1570178546639781.0,9.559238238753313,6.723510055085386,3.8236661410547392,3.3910698418568397,2.235844302897298,2.0973265462007,2.9742975334677473,10.278698637138698
1570178546646762.0,9.446260241291538,6.672693110079712,3.865986094882484,3.3779006400149516,2.2614861834273037,2.095409974758579,2.971525587431527,10.202388211821031
1570178546646762.0,9.348437983703588,6.6299983920611725,3.9239265463527504,3.3718195093222336,2.285816659670255,2.0993120413091484,2.9801943889849296,10.126229764890432
1570178546662720.0,9.251341073913137,6.580393468305071,3.985914980880941,3.370025886943517,2.3110769909930653,2.107207452831466,2.99277509271147,10.038997410168697
1570178546662720.0,9.146009008660444,6.523927427565367,4.046554736779544,3.3641831169985785,2.327176284117495,2.1119792425781427,3.0034711970264363,9.946639616321066
1570178546664759.0,9.038344008219621,6.477644290854962,4.104249678664678,3.3577845984590335,2.344858087089751,2.114852255835088,3.010438614570728,9.859136226345322
1570178546664759.0,8.934945035262492,6.444054973166519,4.155163610965362,3.354230132189597,2.356277564137884,2.1152850994883803,3.0120259072764872,9.731484807898475
1570178546685659.0,8.826349295470635,6.410257953304862,4.1866850036697265,3.3476746372970445,2.365895084655662,2.112615708631096,3.00656337811644,9.53546403836727
1570178546685659.0,8.702509604209293,6.3696993565111475,4.213353733160063,3.3300728473777412,2.3753852687353203,2.101201305573508,2.997241119430029,9.297898440451258
1570178546687654.0,8.575707967131901,6.327139439265223,4.243024343141686,3.3061906122900013,2.3969515398580032,2.079364434140124,2.9877388467897608,9.058706079307596
1570178546687654.0,8.461576981040528,6.2828381609333315,4.273588079932955,3.2859953488118796,2.422295704141313,2.0518309641567605,2.9794374558651175,8.82376573287902
1570178546700504.0,8.374259033870567,6.2371410136057435,4.286808085818527,3.2734706189172647,2.4576124067529976,2.0241661750058353,2.9731761841286595,8.606569919512134
1570178546700504.0,8.305543419202571,6.191706734629851,4.280848984221074,3.260485989696562,2.4934053010237798,1.9934521038771182,2.9721434529233304,8.408539255588202
1570178546706697.0,8.23592400819989,6.140388252795912,4.257521445053816,3.2414407008250046,2.53444709731952,1.9652782550259473,2.9733433305383223,8.232368340619502
1570178546706697.0,8.171047543453271,6.082081372118289,4.230341446936822,3.215910058219544,2.5731320726220948,1.9399470774034788,2.973789195946603,8.073799309047473
1570178546722561.0,8.125526336420846,6.028302278973085,4.203661203941557,3.1883008787478015,2.616773372704717,1.920037129270984,2.9787374667875297,7.93640420696899
1570178546722561.0,8.097644965690666,5.98762694525646,4.187179916115718,3.163116787057082,2.6580171677088007,1.9013705018228617,2.991917004519526,7.811347820136623
1570178546730538.0,8.091574636814457,5.963362949702948,4.17586706651258,3.143816820924278,2.704419268583726,1.8885770031203235,3.0134694124588193,7.705159887207713
1570178546730538.0,8.11067164068885,5.955448070209586,4.166408287737795,3.130214890307777,2.746482542109853,1.8763610108918307,3.0396356554163426,7.621078687166282
1570178546745497.0,8.154081581934488,5.9681771892563,4.151082637217265,3.126948114224519,2.788259155338781,1.8688668371453143,3.063972089433148,7.560872295510744
1570178546745497.0,8.204692634755917,6.006236558169444,4.138943027667013,3.129986640470426,2.8210720844095465,1.8645792205271856,3.0864579579851417,7.516776433194945
1570178546747493.0,8.24309424406008,6.064400031428144,4.129308769666677,3.1291777265857235,2.8552381612894497,1.8703211593607285,3.1147153627095854,7.491480059162835
1570178546747493.0,8.266405245235589,6.126573363926376,4.123009433683458,3.1213203548507753,2.886816375533356,1.8806361473825688,3.1485531769673587,7.489999264896241
1570178546760457.0,8.279639418454936,6.1894906855184475,4.112768973887775,3.110047077798576,2.923096692064254,1.9014440022460717,3.186542185069642,7.5196465689167615
1570178546760457.0,8.287939519338384,6.259875456265364,4.10495625571433,3.097919771535783,2.954424081065728,1.922246751179986,3.2273340797383527,7.575269107249349
1570178546766537.0,8.295669718280983,6.3385898913145775,4.098924913070495,3.0861407796693996,2.986876172261803,1.9449539243476734,3.2545002076711924,7.629623528914072
1570178546766537.0,8.310396693083957,6.421680376949998,4.101519012945181,3.066106714139431,3.0157717322587554,1.9619163522942722,3.25287135823051,7.656687870606392
1570178546783418.0,8.343816983464198,6.500421257665151,4.098423248287624,3.033581046791366,3.052957173555626,1.9836674454271475,3.242373921534523,7.682232277880694
1570178546783418.0,8.39675459808129,6.5593936461583,4.084692231983335,2.990530460849812,3.090188587461887,1.99892968862103,3.2372232587642595,7.724947245374028
1570178546785160.0,8.45522890121462,6.59386838808677,4.06042438552415,2.941493894266566,3.1320979157763458,2.0138227825799824,3.2355116835974362,7.7747293541393985
1570178546785160.0,8.511671287268477,6.622134392839008,4.038632993930472,2.88986682724276,3.1721512844260484,2.023592825093054,3.2364920781076782,7.820462623667683
1570178546806422.0,8.57628355382443,6.655787912742815,4.0154337289940605,2.841478629624038,3.2192328620070936,2.038690530396065,3.2387650270134527,7.861363278263521
1570178546806422.0,8.64298028340624,6.688070725739827,3.989551742214009,2.7984443158897045,3.2643029685707665,2.051106441045686,3.243783684939983,7.904775737528231
1570178546807333.0,8.69953028351341,6.717777207543879,3.9613466157426247,2.762108549696394,3.314546348560919,2.069689371063834,3.2528337835528056,7.955499396699111
1570178546807333.0,8.746317751500401,6.74266086778195,3.940608827346824,2.726876447266069,3.3624161660767404,2.0858449968543757,3.2612604039051654,8.012369500064354
1570178546820335.0,8.77936838397016,6.763723913655859,3.9128650721791223,2.6881334473894083,3.415451844514888,2.111071071013921,3.270949893024387,8.080778890732546
1570178546820335.0,8.803705252148253,6.786766597764595,3.8790510420939985,2.6473570363294208,3.4683916634438403,2.135750538585502,3.2809223615795964,8.163781639853239
1570178546827282.0,8.842615187735607,6.8166130708736725,3.8383577505766637,2.6105190585491473,3.529386500987841,2.170352258708967,3.287088630406844,8.256653138309503
1570178546827282.0,8.910424659514922,6.8610091407066935,3.8013563415162497,2.5763893205159514,3.5877450786686267,2.2037485157025625,3.290398755021587,8.359529268069107
1570178546843238.0,8.988520797323883,6.916152350183608,3.766711397294668,2.5442514269646685,3.6508790764513446,2.24310412953545,3.3013962211059975,8.467702159063588
1570178546843238.0,9.040747096839262,6.951773529999172,3.7398301514993135,2.515264454841506,3.7122728415109583,2.2753826894004647,3.3209449064542307,8.57377525785224
1570178546845290.0,9.06516799875168,6.955658859269053,3.715041476927687,2.490739997853516,3.7783204672887196,2.3111144686776934,3.331287461484646,8.681527213494899
1570178546845290.0,9.085415920337597,6.950569065809383,3.6961716404672544,2.466981526580466,3.8402856215107253,2.3414656613827725,3.3158235200279216,8.745319594309619
1570178546865178.0,9.11206321657484,6.943534397463677,3.673579868798569,2.4441189299530524,3.9072674054722047,2.380999110054616,3.2866108793037534,8.715343868262757
1570178546865178.0,9.138487117317254,6.920332586110939,3.647385120369175,2.420716808246385,3.9741909827393394,2.419671868051967,3.2604798771470844,8.635187846495784
1570178546873227.0,9.158882946479647,6.877369332250366,3.612383345893092,2.394783955059742,4.048087245967709,2.4667039984482,3.2440234516862616,8.560441183876138
1570178546873227.0,9.18047645548083,6.831582970425534,3.5742392340318387,2.365264469438411,4.119327076010684,2.5045388437404634,3.231869754061033,8.503066230393976
1570178546880143.0,9.214745800262612,6.798097912524602,3.525888080952076,2.3331489285525238,4.197768197994057,2.5447034510991418,3.2157830449326736,8.462164296010052
1570178546880143.0,9.273172418564647,6.775069019920882,3.4757639886199847,2.2995206708908627,4.2765856561400835,2.5811390690663205,3.1956109474036936,8.436347554899633
1570178546887122.0,9.357808755315286,6.762714605745409,3.4240490780066053,2.2699392920698505,4.360841711183209,2.627752233933839,3.1740402954885005,8.429487456656796
1570178546887122.0,9.46278951299554,6.765645258228304,3.377855776935965,2.243637944713729,4.440090130840191,2.6739621971274006,3.1526539944634377,8.425594447865702
1570178546903202.0,9.588177524474345,6.787648958869753,3.3306738643381966,2.2177332922594037,4.519718060100733,2.731762654570025,3.138062460113466,8.413594396372343
1570178546903202.0,9.738832393887431,6.829706737660928,3.287463115634165,2.1932841836363566,4.597013452801018,2.7876200949903973,3.1300229712129046,8.407714764930127
1570178546905073.0,9.912567732611276,6.885364842726501,3.2436520622652787,2.174955642302574,4.685101632522114,2.85256055439893,3.1282580310096,8.42149199317938
1570178546905073.0,10.090549381681932,6.939530226784678,3.20308170485839,2.1624934009948364,4.774955681010586,2.9127282478324226,3.131601749327373,8.459005220426866
1570178546926042.0,10.23688698691205,6.97224241484176,3.1592246349088913,2.1553397186987326,4.872419210388631,2.9795631915091456,3.1390495084508765,8.518580214259236
1570178546926042.0,10.336952944920625,6.971927643404325,3.1170887721102423,2.149421569681556,4.967519805108127,3.036624066138186,3.1516846450278573,8.591276853725601
1570178546927017.0,10.423975821032194,6.957048063064842,3.0705504326612063,2.140155194317275,5.066982993822968,3.0956563102274024,3.1720599288671676,8.667357669171258
1570178546927017.0,10.529314134699876,6.948497461064334,3.0278354506208194,2.1271263829091502,5.166177799800265,3.1497408275243024,3.197315444626059,8.741151049205122
1570178546947957.0,10.660636853299772,6.955652190655741,2.9842556406515066,2.114577653704876,5.272987290893268,3.211074520426606,3.22414457117205,8.812035273334553
1570178546947957.0,10.812075311152501,6.982933157755506,2.9444774796369764,2.10474974670095,5.376105298375794,3.2638804444608835,3.246618260768928,8.889240838755253
1570178546949956.0,10.96676860355663,7.026756450062669,2.9049980352268596,2.0970803864279777,5.477787092457612,3.317022282256433,3.2643869859452828,8.974562271871635
1570178546949956.0,11.119085099470052,7.075274496971525,2.8705247683909034,2.088705040010997,5.572618806166957,3.3608240063327304,3.272618497553871,9.050377321453546
1570178546963001.0,11.262885195808156,7.11293414590683,2.8334811086213807,2.0800027446464298,5.672593521484072,3.416528780997755,3.2707518877722377,9.09000307615525
1570178546963001.0,11.400177302857394,7.145621517469087,2.7970960567079746,2.0680387950959513,5.77136376553811,3.4738894619026848,3.261722922459742,9.067639053914474
1570178546965224.0,11.548167238638602,7.187214265318386,2.75764281202438,2.055245584855913,5.8787877422945725,3.5409621968844704,3.254936088220622,8.991263262873698
1570178546965224.0,11.708385951774744,7.238771437843239,2.7221676701008217,2.044704238720699,5.989458884689863,3.6046719625542725,3.2532905215367567,8.884936676932798
1570178546985857.0,11.871240809221755,7.30290370783361,2.6853566881768667,2.037034591382586,6.107714062625263,3.6785554623813717,3.25841809555192,8.772494770823574
1570178546985857.0,12.03298222243062,7.38140901707122,2.6540630286832667,2.0350645957539584,6.226089917144322,3.7503458259485556,3.2680798288811297,8.670996035963242
1570178546987851.0,12.191717072026536,7.474257521720432,2.6255329343206744,2.041132468863191,6.35356680787108,3.831786807390363,3.2772387154315985,8.576498724774613
1570178546987851.0,12.357864827210332,7.5789700782813,2.6065328046162906,2.052645742459773,6.480942181650465,3.91055220939467,3.2825171110013422,8.483957539762812
1570178546999924.0,12.55221030890486,7.6969305799684005,2.5919480746183554,2.063844295688883,6.611094329139561,3.995554113812969,3.287395347684887,8.406545359774206
1570178546999924.0,12.778976127998417,7.830471633539736,2.5815900711873327,2.071413170895979,6.7369369989180194,4.075122552309617,3.28764536068825,8.335658254931321
1570178547008794.0,13.019688785596278,7.9700849837928205,2.567825809473183,2.0802466756428206,6.870564796035715,4.165834880734896,3.287032000934747,8.254556585258246
1570178547008794.0,13.269513704236239,8.110430745436398,2.5567699544230824,2.09163398549772,7.010589108859628,4.254529982580982,3.2920213578567594,8.16629615737747
1570178547023755.0,13.53648233572631,8.258638921050352,2.5471353273809805,2.103819175581729,7.165440161113957,4.348534735020053,3.3056419531817456,8.08147803242541
1570178547023755.0,13.795981830092872,8.407634845536116,2.5462707778626434,2.117478044312222,7.326571763287005,4.434805615144102,3.3223891043820735,8.008958101273068
1570178547024753.0,14.001893825185007,8.537778460380945,2.5466299851560943,2.1349119341566105,7.498237782381732,4.525317570873185,3.3388712295103917,7.9578526769637525
1570178547024753.0,14.13364641460099,8.635865297311064,2.5490290982854242,2.1571701439743074,7.673736500416218,4.610466633263104,3.3526696617811758,7.91608349836243
1570178547046269.0,14.212322927870636,8.698184817869631,2.5499211000142274,2.1856303633556333,7.857774788449253,4.70168135756979,3.370428833199902,7.8771737066411935
1570178547046269.0,14.273503366871346,8.74586883340499,2.5507826890227303,2.214483909773481,8.038334931014322,4.781725563906181,3.3871350382550314,7.829524577792292
1570178547047695.0,14.336092646939703,8.808228747683613,2.54081693177945,2.2355365803393448,8.222131569150653,4.855432351221192,3.398878822046716,7.754576266550381
1570178547047695.0,14.414889334538708,8.891917725386548,2.526478768769705,2.2543310868103563,8.407252209985186,4.905715081429042,3.4114889335428886,7.667604894244011
1570178547059830.0,14.505796329885577,8.985561722767867,2.511352941488658,2.2781931831727964,8.60140996032775,4.944848515782176,3.430832593702995,7.5886650978310275
1570178547059830.0,14.593473796429945,9.075350992871913,2.502628693591579,2.30335881507,8.797493270520098,4.978549824754527,3.448364786765168,7.5206471101218595
1570178547068649.0,14.694667440219664,9.166518155801281,2.495499390305529,2.3258727985902214,8.994505065548063,5.017772241477255,3.4649895071051224,7.475476796198345
1570178547068649.0,14.832056687845302,9.268793188086008,2.493267042863502,2.348696258087025,9.172602768392746,5.04151145146907,3.4797732411841835,7.456445003556223
1570178547083797.0,15.00839656146661,9.38065141752206,2.491970338355128,2.372987665109972,9.339139517006348,5.062273681919127,3.49317063952098,7.452721513938273
1570178547083797.0,15.193842809275958,9.49429368492538,2.4958709486683577,2.398826483699005,9.510807291491748,5.075795009914585,3.5082768857736712,7.4550672803780484
1570178547085590.0,15.358838796329856,9.61329983436037,2.502429950262817,2.4303101325282928,9.703142819959421,5.0780457946064335,3.520830728049851,7.462293032889558
1570178547085590.0,15.49286358374493,9.741142022429484,2.517295493149628,2.4665396184136865,9.90553425330893,5.04333359318336,3.5186242397015706,7.475839326181023
1570178547105656.0,15.557904927997127,9.838924850848134,2.5296672035441383,2.504618884492235,10.113066606931659,4.988694621031011,3.5134878841922177,7.50346478966894
1570178547105656.0,15.542672790502294,9.874926377552061,2.534437552616152,2.5436887096121206,10.304623292097038,4.933351724988838,3.516955862889162,7.551303737151072
1570178547107610.0,15.507699857130435,9.881733208624443,2.532540508751048,2.5819119865534756,10.485563883415622,4.894994209632152,3.5330339316997663,7.614757515482436
1570178547107610.0,15.49019463353952,9.888120895928676,2.5339448005561556,2.622483604839118,10.660356348243933,4.8639379997135865,3.559864070073303,7.679902413499908
1570178547119713.0,15.470546943928378,9.888883963557722,2.533700895933451,2.6694293477122604,10.830676065235975,4.847443128603233,3.5992920318143513,7.730848323168407
1570178547119713.0,15.43810101659499,9.888303017418147,2.536820701525784,2.7218937182309193,10.993531034991209,4.831319009998269,3.6469100261157603,7.77424107368472
1570178547128670.0,15.430476521101172,9.907063456351635,2.5428381988290285,2.7790344772046636,11.1545493113627,4.816834041865543,3.7000376135357667,7.819578049791897
1570178547128670.0,15.477769795568678,9.958293056867749,2.5564794723764415,2.837197406028072,11.278633531216249,4.800636087162808,3.752294727786932,7.8771918848481635
1570178547143659.0,15.55855154033497,10.028125195951883,2.573360945831295,2.8908892407496483,11.330085239387408,4.798358363967969,3.8066169396823626,7.950035036059804
1570178547143659.0,15.584804488000424,10.068365521375076,2.590435406998618,2.9424641387306227,11.32740748503168,4.799896205391602,3.86552834308206,8.034387301394828
1570178547145031.0,15.491276490415732,10.04402839027502,2.5964532090614685,2.9981928926983086,11.323174854381806,4.811392133729962,3.9344702549434047,8.133587394501914
1570178547145031.0,15.321102131104329,9.971125919848904,2.6002155655495125,3.0557628827870973,11.324897142764309,4.832566825671188,4.011899701933247,8.258198806533397
1570178547165384.0,15.138575049647768,9.885352600689123,2.6056727992199447,3.1082416611025807,11.315404530506568,4.872243268342101,4.097741008880487,8.403432040423656
1570178547165384.0,14.95660227290408,9.800624822405393,2.6158695799284573,3.148537086626534,11.263503703444568,4.918289268898032,4.187675908616955,8.558235664103295
1570178547167541.0,14.7816003734566,9.712368516829466,2.6236395329291735,3.171965781209165,11.180968366122583,4.972418742680086,4.283854573392601,8.715006400596355
1570178547167541.0,14.60190084251718,9.608502092762187,2.6289603966134423,3.180876547893674,11.10140200080972,5.0118514374338545,4.375823611500526,8.876673233066501
1570178547179338.0,14.381197275869182,9.473176431212543,2.621830440347622,3.175856087832689,11.033541000365462,5.039632942367966,4.458014921842814,9.034043378378817
1570178547179338.0,14.122456963304494,9.307577597970289,2.607953613425741,3.159053906138601,10.97678317027644,5.061378839669805,4.526020745999136,9.169956840600467
1570178547188315.0,13.860426864264008,9.131962822465159,2.592381608910763,3.13869926330973,10.928074478357399,5.078512809660066,4.570079542211451,9.263725827384455
1570178547188315.0,13.608039728114605,8.958518787084436,2.5804497660132357,3.117496470794558,10.862694090065764,5.076887116256567,4.588743063004279,9.310288507453194
1570178547202671.0,13.36844708150037,8.78990331436565,2.5632503915182454,3.097478609391617,10.779742177802762,5.071724135047507,4.603389109122586,9.325154266063779
1570178547202671.0,13.139726162368051,8.6254790610774,2.5416297161807275,3.080637575555435,10.699361322811978,5.05642076672606,4.611128934983127,9.33946117102129
1570178547209468.0,12.920939929526385,8.469714960880797,2.5110582580877625,3.065768982990404,10.636498131586585,5.039775772149508,4.602300688633387,9.365945294787553
1570178547209468.0,12.706827105132385,8.324344204912107,2.4804618858543974,3.0509436594616206,10.597486798997817,5.028490439772651,4.589443113048661,9.404948103972663
1570178547225277.0,12.501916113283105,8.189736456798434,2.449799745640321,3.040236092812766,10.584561876334048,5.030631527470355,4.584129379203837,9.437288200426057
1570178547225277.0,12.305388774407657,8.064602266912042,2.4232270328670675,3.0342912269036844,10.584670909645752,5.021782150536342,4.579196673055406,9.445414424864921
1570178547227212.0,12.116852493744847,7.948937785520479,2.3952653465099734,3.031492508853226,10.572994143608184,4.99720050686319,4.577093292465539,9.433665761697934
1570178547227212.0,11.939179358059171,7.846110400637936,2.3716307086938033,3.033921236286122,10.53890425533964,4.966051417367858,4.582942597069705,9.411437907588283
1570178547239188.0,11.777946089270296,7.757828986558801,2.3471240703644356,3.0383730766965424,10.486056733701526,4.943256120221836,4.591632013435852,9.391675600792496
1570178547239188.0,11.615530405820989,7.681835979025131,2.3211757342420114,3.0393216117207427,10.416639457184862,4.92268890983981,4.595056377872969,9.38103351121179
1570178547248207.0,11.420910253741859,7.61414968597095,2.2910012213505855,3.0417272901898427,10.342029755457672,4.9126266903575635,4.587289229685133,9.380759804603764
1570178547248207.0,11.181548330272587,7.532677809197189,2.2625527227488713,3.043976669787346,10.277080522585926,4.903800457693077,4.5454906400212955,9.375122513917852
1570178547263116.0,10.919285027344111,7.430409260430565,2.2291540141950685,3.0396169336376295,10.221764015768771,4.902879322666848,4.466668609095469,9.343685060683123
1570178547263116.0,10.656336708970533,7.327390574702591,2.1972065396881493,3.030298493370803,10.170992387864192,4.9073180680321755,4.381857990239623,9.306262631288838
1570178547269278.0,10.401419213277203,7.229161011317514,2.1633798056413465,3.019916103532904,10.115879537782064,4.917520643963707,4.309220414351715,9.270224763607661
1570178547269278.0,10.152309910097816,7.12318360963747,2.131564047526907,3.007154682656081,10.057672864796585,4.924245784476052,4.249861486137684,9.223522469766683
1570178547286244.0,9.906114800011725,7.008693217094382,2.09941202376373,2.993270703593169,10.000799828955756,4.9306909567561625,4.205421413654784,9.178690074083452
1570178547286244.0,9.659506703294076,6.890722057814217,2.07265100947538,2.9785164472004864,9.92670262450432,4.92589140489012,4.169660478128106,9.155310518829022
1570178547287125.0,9.420803961146106,6.769062746999735,2.0432976394465765,2.9602106085889095,9.817911616021995,4.912880226103001,4.135590581146704,9.154330678521402
1570178547287125.0,9.195335748474825,6.640768742963592,2.013895940699672,2.932324231955204,9.69564847061546,4.891747720736968,4.103067243626298,9.168825237088964
1570178547300073.0,8.984604953139089,6.507627394245743,1.983038632412423,2.8949489377618445,9.556999631366201,4.87349567873333,4.071970333496799,9.201737639905916
1570178547300073.0,8.783455682243847,6.370774628311961,1.9552509003709668,2.8538403126817893,9.397070741267612,4.849470203492666,4.042171564758962,9.241305447817926
1570178547307998.0,8.587111484006591,6.233344337413149,1.9258493151428497,2.8139267270701382,9.231644052493198,4.815239062227495,4.015499713284565,9.267994819350124
1570178547307998.0,8.392295499825913,6.099867541956899,1.8998581984602139,2.7742939248110257,9.078169930426771,4.766161397049913,3.994839601798589,9.292837347559233
1570178547322956.0,8.205701482579213,5.976958406722648,1.8714758826209221,2.735595583497573,8.938212639999751,4.718084945537755,3.984082746701704,9.335675165934672
1570178547322956.0,8.031479259210485,5.865255731305943,1.8428272390073877,2.6975163306747816,8.805411256397647,4.666945216654286,3.9735848838189423,9.395744307253759
1570178547329936.0,7.8642204818888475,5.75588656786981,1.8089055731708559,2.6592757107450176,8.663237769627564,4.615708222394368,3.946549959137088,9.468565433311511
1570178547329936.0,7.69400304735659,5.643944429824463,1.775654558003498,2.6167471141822114,8.515410609452282,4.567199685958221,3.9076213981264614,9.56085440977408
1570178547345899.0,7.52411369177479,5.535886447489746,1.7418893277380267,2.5721286950027937,8.37107320355408,4.527505220114565,3.866241841515074,9.638523647928999
1570178547345899.0,7.350202019418266,5.433794991041663,1.7119168419048383,2.5300605296461542,8.240755748572308,4.491933448052299,3.8225267663283535,9.649157804273006
1570178547346896.0,7.175120956568903,5.336322283639567,1.6815767111391682,2.4935724499286547,8.102037308802226,4.468289020882132,3.775100718422958,9.620081553435867
1570178547346896.0,7.000083330184368,5.239418249290273,1.6555258605885363,2.4593250960568325,7.944376345512119,4.454109532707385,3.718075092741702,9.562401284779494
1570178547367844.0,6.812257088672238,5.140442702388184,1.6290279513215884,2.424872517627784,7.777645014577904,4.457278444752816,3.6501725082436494,9.446306049465749
1570178547367844.0,6.606791383497046,5.035920159468463,1.6056951469014038,2.390435947569343,7.617228271117593,4.472353362230557,3.5829762776635383,9.309019712605501
1570178547369835.0,6.4001834493958665,4.924350765393714,1.581528737450616,2.358383049577164,7.461299162801397,4.502420923120894,3.523227998155205,9.195797326983302
1570178547369835.0,6.198928472838906,4.808331798815739,1.5608671474681617,2.3267567859092217,7.310681434131228,4.536893395156122,3.4714414345151954,9.105070579678108
1570178547383793.0,6.002868237708143,4.692347553882372,1.5413971144727816,2.294236833888792,7.159333524757666,4.576401326520372,3.426334740241095,9.026829834794048
1570178547383793.0,5.810331497593626,4.577006381913057,1.5281652680424975,2.2617343192174615,7.012879518494336,4.608547127537637,3.3880935408867296,8.95318101031107
1570178547390774.0,5.626643576079061,4.46441489226074,1.5191691664432856,2.229011436565604,6.866843949400224,4.632198471215203,3.359470134007021,8.891992584327298
1570178547390774.0,5.453266062120214,4.353809862893644,1.5168893208977319,2.191755201806251,6.726998870199244,4.642646730974259,3.341630610574402,8.838207827864153
1570178547405783.0,5.289986033114595,4.24367809628402,1.515852634855659,2.1514614882770684,6.584355299328661,4.651452151028926,3.3293892195441934,8.783998584751686
1570178547405783.0,5.1369097419672745,4.1309415674684145,1.514760339172472,2.110738512786978,6.436567767833879,4.655319803611406,3.319613725467651,8.741452970232489
1570178547407729.0,4.995796705620716,4.01688124839582,1.5067297215846183,2.0742092364987936,6.2878489905764345,4.659329462485264,3.3111649246452886,8.710236546464932
1570178547407729.0,4.856747182868178,3.902563664349156,1.4942943029503402,2.043067309075385,6.1475944708946315,4.660586866277619,3.2989536047040127,8.67343678181896
1570178547428672.0,4.721541464945803,3.7890397266793028,1.478681160981575,2.017474765314292,6.005725413808272,4.6661463934804726,3.280010709987321,8.645350611367501
1570178547428672.0,4.591837392355589,3.6784453489016564,1.4659464056012719,1.9944084759206302,5.8673761961742565,4.670106947462019,3.253253803557279,8.60611031027755
1570178547429670.0,4.459583333431094,3.570529609411174,1.4529246486938032,1.971893146792801,5.731513352747277,4.677778563489906,3.221647481555556,8.512698190210077
1570178547429670.0,4.324376843716374,3.4625530682552554,1.4432329055713777,1.9486151830879652,5.604269233385795,4.680298867704089,3.1879760790457605,8.381737696376359
1570178547442635.0,4.196061469461606,3.3574363307369897,1.435191477835315,1.9239460995522257,5.482643480092526,4.688195768599365,3.1512559578329293,8.251553619116702
1570178547442635.0,4.076096494939459,3.2541177696217822,1.4294532295821407,1.8958216883279773,5.369803136421513,4.705420837297782,3.1163116295234365,8.119764695817521
1570178547449617.0,3.9636806488720064,3.1497823349705465,1.4230625669300434,1.8667688906297206,5.261156487802003,4.739464167802675,3.0870551076074753,7.9825913147859575
1570178547449617.0,3.8565709528428807,3.0447491376549807,1.420310312299608,1.838621895517262,5.164819713043886,4.781615330288618,3.059074416364103,7.8468311730058735
1570178547465856.0,3.7607761860427957,2.938646115961535,1.4188173463809723,1.8122829824624909,5.074740900451794,4.839057906846898,3.026564132360059,7.722926067586012
1570178547465856.0,3.680401550973206,2.8301470052953825,1.4191629172046736,1.7890546319694813,4.989546922633636,4.903048791080441,2.98845954797406,7.610128425745877
1570178547467572.0,3.6175628646920384,2.723185819111952,1.4214373051277258,1.7720531697091475,4.904945584394366,4.972200095633043,2.94920652596993,7.510614342781661
1570178547467572.0,3.5706403103840323,2.618204922706138,1.4280794309430687,1.7591781465506604,4.824585230842234,5.036038452489783,2.912552623049626,7.4206427674743995
1570178547488666.0,3.531468547682329,2.5151555991337324,1.4347552188293888,1.7469168683106988,4.741703165541701,5.102433280418181,2.88291507982444,7.334018422151261
1570178547488666.0,3.4913782598211456,2.4154723610285607,1.4403217706909097,1.7321108964084873,4.663355485705669,5.164778999620288,2.8605357949754886,7.2403375380122865
1570178547489510.0,3.455114228791018,2.322531454772461,1.444773496826814,1.7173774834414826,4.591960162240911,5.228458821069138,2.844842566477266,7.139455470920439
1570178547489510.0,3.4285916490022634,2.2371578426148115,1.4525923802502534,1.7039417474504286,4.535062055142276,5.278131476406931,2.8339790235142988,7.031450102132337
1570178547501565.0,3.4100894967667696,2.160185156238449,1.464220557127542,1.6906492821798487,4.478815201358744,5.316013688181651,2.8287554296419453,6.9135603028440595
1570178547501565.0,3.399325242251227,2.0910322418238145,1.4783260400640708,1.6752028289168803,4.418548590838901,5.348854848988364,2.8286634628624765,6.792951747054895
1570178547510456.0,3.4033858989334904,2.0259598873115086,1.488662457529365,1.6590139520022031,4.355305851272259,5.394063511009953,2.8282417178357293,6.6874445512465295
1570178547510456.0,3.4240514459801585,1.9626116405816993,1.4944390236118226,1.6456731696531401,4.298209948157401,5.447024876210629,2.8240675909924673,6.603882377455087
1570178547526462.0,3.4584345263053695,1.906219292715646,1.4973202788986144,1.6378874087287094,4.241497608429739,5.510729357909054,2.826514592304853,6.537228795275166
1570178547526462.0,3.506826797241852,1.861128974877931,1.5022314984555365,1.6348928423233877,4.188270928639792,5.56912691484535,2.839312602110988,6.480595877159951
1570178547527411.0,3.5711758956902715,1.8290567813901382,1.5108836397003733,1.6366026777630867,4.132452971271849,5.613457870777018,2.863564256992688,6.44363212693569
1570178547527411.0,3.6533494898627064,1.807690640341592,1.523294142940231,1.6407568135270243,4.071014034479831,5.631955485657088,2.89331090606093,6.431660391762856
1570178547548484.0,3.7519276166303426,1.795666658586091,1.536993192290578,1.6466320739336842,3.9972810940096823,5.647047387712849,2.9256760628516068,6.441746814278722
1570178547548484.0,3.8652389951357473,1.7959627514648426,1.5494476294313055,1.6517551082024584,3.9220116648526253,5.670642812224285,2.9615680804740916,6.471684374271469
1570178547550356.0,3.990632735554888,1.8117285303913668,1.5599784771922767,1.6556534387976274,3.846524922029687,5.712900893142293,3.002665105947986,6.517639229961028
1570178547550356.0,4.126632372930504,1.843129414925852,1.5710340812144339,1.6609640217963222,3.7787641425710947,5.767081076702282,3.0439565140337854,6.579551524124149
1570178547563318.0,4.269536007409167,1.8886508016542811,1.581337757097391,1.6676944795385698,3.7165812288131828,5.835304317580604,3.0870342737779537,6.648735918961578
1570178547563318.0,4.417411948402832,1.9429741574051982,1.5921647900500637,1.6733228104153797,3.6620751212909886,5.908626615018648,3.131432781604129,6.716847760252756
1570178547569503.0,4.57131435582986,2.000860348508563,1.6043771403388767,1.6788781865774054,3.611008519158595,5.990481212377764,3.1817083059650537,6.795990262677585
1570178547569503.0,4.733295743501441,2.059877188193363,1.6152465915096235,1.6843702253757977,3.567336340965549,6.062777444259911,3.234411840733571,6.897703523717012
1570178547586417.0,4.901263126386503,2.121271032964108,1.6245581720846503,1.6879702004661585,3.525441543782395,6.1303333888982054,3.2905472901069666,7.014407218947785
1570178547586417.0,5.072663855062767,2.1893500222873095,1.6364594620014938,1.69082505744856,3.4924857118548567,6.198002504220748,3.347997340462284,7.13194945114571
1570178547587255.0,5.247422315703689,2.2654068572057398,1.6519574254853882,1.6958526830351863,3.4642297075706083,6.258637873406454,3.397923594712839,7.231494010711166
1570178547587255.0,5.4297031372517255,2.3488735355438575,1.6691106802525386,1.7001894360380803,3.437832427379974,6.297985151736426,3.4307693007886684,7.318098374502399
1570178547608351.0,5.609479124196165,2.438402438243205,1.6859459008683744,1.7040887856923261,3.412406485269898,6.343431962636695,3.4498319642296877,7.391009838756056
1570178547608351.0,5.778582481951192,2.5288800976584245,1.695574780132819,1.7040933178471924,3.3909958048407702,6.396864616076783,3.448221639952733,7.440790758745291
1570178547610191.0,5.945418445902986,2.6151912110447917,1.6941342721547328,1.693321468845248,3.3563504209631474,6.461820847297371,3.43341400253032,7.4783683335037585
1570178547610191.0,6.122183345870801,2.6997913709327617,1.6895122264600446,1.6756144388891783,3.3052692000563404,6.537286089953109,3.419658963679525,7.526569684423581
1570178547622253.0,6.309806697952357,2.7863530642788827,1.686680782052961,1.655933719596103,3.241674399995082,6.625493579510208,3.415885448534654,7.586252328749147
1570178547622253.0,6.506642390622303,2.877398133478018,1.6836404906977238,1.630064666082451,3.1804218987136386,6.711673845692781,3.4188836155919495,7.6480329331551165
1570178547631130.0,6.707459518570079,2.9747686448695494,1.6795162447736183,1.5976874715871352,3.1236529515764766,6.79646858195809,3.4294336933646052,7.7048592784486605
1570178547631130.0,6.917947955801658,3.079759929664384,1.676254455343114,1.564868401497314,3.0716719419400467,6.872699915907463,3.441118278275419,7.76609579617955
1570178547646099.0,7.142545881522524,3.1892585673020446,1.6750316747082654,1.535965185014169,3.0159106383583705,6.94623990630848,3.451556696806563,7.830690406993801
1570178547646099.0,7.376778784663737,3.3032095930639604,1.6746918678547567,1.510251851857861,2.9624519264517515,7.020793577379363,3.4629865149706296,7.8899165094358334
1570178547648085.0,7.614970865963348,3.4250256333832856,1.6766433510041165,1.4891842451408905,2.9135237729361454,7.109215307288069,3.4824572484359706,7.94933558192841
1570178547648085.0,7.860848053789313,3.555913237729892,1.6815297362903534,1.4740203206862594,2.873584917158495,7.202802749166205,3.5099639774120694,8.02300418849366
1570178547668121.0,8.11183084317027,3.6951053647627004,1.6898483405903002,1.4654327862515881,2.8384270706383377,7.306366777663515,3.5485850732236894,8.101472251350076
1570178547668121.0,8.363240171568961,3.843606674597354,1.7020144162410473,1.4625660384203552,2.8101373158764305,7.4168431246534166,3.595746895515047,8.164903478263941
1570178547670030.0,8.618812748799481,4.000975441812066,1.7174458190390616,1.4626148392194227,2.7862670384780195,7.537556878174574,3.6519344592534626,8.208766740179918
1570178547670030.0,8.88487189410561,4.1666152944180075,1.7336333757221616,1.463105631112679,2.767234267789058,7.658912695925528,3.7099532390836463,8.249399190631861
1570178547681999.0,9.153327161730576,4.338925600223248,1.754524192818626,1.4659561033802502,2.7478858212393966,7.77545472892588,3.7711017455863836,8.269840356710702
1570178547681999.0,9.4167467948747,4.515370407668601,1.7794335158040375,1.474242810567297,2.7334383240632576,7.87148974246686,3.831593200674183,8.258457469071304
1570178547690971.0,9.66837951369389,4.69340070209436,1.803048395322742,1.4871368789247876,2.72222996007019,7.944195600918249,3.8923294466003893,8.231976636316555
1570178547690971.0,9.902762874041912,4.869436275335702,1.8222941587153532,1.5014926170996805,2.7158845787041255,8.00327524839665,3.9545154343645583,8.201993680054828
1570178547705937.0,10.124746068794469,5.041458785001515,1.8417831289089293,1.517224515175628,2.711015794652037,8.078996396941553,4.018831593393429,8.177357323196171
1570178547705937.0,10.345799135175932,5.208870644965758,1.8631255357108731,1.5352534719701132,2.7105270942513617,8.17619944120077,4.080145855066871,8.172713032893737
1570178547707760.0,10.567978424860605,5.369503606350164,1.8858093727958178,1.5514530944604128,2.7121697462477257,8.285988991154722,4.144469991565937,8.182490376410046
1570178547707760.0,10.801477035274544,5.528703686336998,1.9038503231715713,1.5620394109405928,2.713184186604085,8.383942167289936,4.206459292704227,8.200037370867404
1570178547727872.0,11.04013356053947,5.686542083781838,1.9177460534855626,1.571198268335905,2.714088797699881,8.454651851720644,4.266205399188289,8.228619474096432
1570178547727872.0,11.271453017381678,5.843382609103787,1.9311928800972293,1.5829566408006766,2.7243418207340606,8.482972862872975,4.323246892061895,8.261021823150616
1570178547730003.0,11.50769229112794,6.000562460379475,1.9503420257212336,1.596170195084383,2.7453292306837898,8.478891107520662,4.367585254819879,8.266732320183758
1570178547730003.0,11.768410100456132,6.158019056729918,1.9752078246517553,1.6100710872924162,2.7739578688514834,8.463592427220618,4.393901972800113,8.239915236730402
1570178547742504.0,12.054099109848286,6.324634815816492,2.006669738662287,1.6266557255832736,2.799392315011956,8.45277212037788,4.424965263106489,8.210516405853683
1570178547742504.0,12.353452361017942,6.50684207868572,2.0418549431687985,1.6468202842084083,2.8202878292619413,8.442180256992584,4.465744388300862,8.20466737892091
1570178547750954.0,12.66273323062627,6.70384400981785,2.0812014611106298,1.6683238588039897,2.8393699409290503,8.426458951400885,4.511910013019797,8.220657769241747
1570178547750954.0,12.992800465541245,6.916016024410008,2.121922195605375,1.6903483096372005,2.852372946215222,8.379895967812962,4.554848700996562,8.259232062108467
1570178547765987.0,13.341929438905975,7.140668095372111,2.1639304745491184,1.7108494962594598,2.853187524439372,8.291251904927867,4.598941594409062,8.317723347018672
1570178547765987.0,13.704037328239217,7.373100509909961,2.206118411348684,1.7305163617845631,2.854904763167311,8.18925984389117,4.64953349218757,8.395885510449897
1570178547767772.0,14.06458641068892,7.604983187030033,2.2511122905453167,1.753180744691663,2.863351096490337,8.098495995524829,4.707316711135521,8.486546167539686
1570178547767772.0,14.415162377754482,7.830702941232929,2.2959925222058204,1.7784716014622886,2.87312052689023,8.016318023523448,4.755339789885517,8.581128670971076
1570178547789001.0,14.755711539139414,8.040519799988331,2.341018366690679,1.8023061530675604,2.8827113017809687,7.940727202336166,4.7892555659513425,8.682181877122497
1570178547789001.0,15.087353852648304,8.228731749872999,2.385346716087147,1.8255188935062472,2.897072513667062,7.881518967236559,4.823897456210974,8.803221196820916
1570178547790122.0,15.424411182865883,8.412359628553046,2.433142193165814,1.850777874881638,2.917894314511825,7.846249787656291,4.87406434080667,8.934473079030548
1570178547790122.0,15.769697253117563,8.609314755269244,2.4845132823889546,1.8760035367148038,2.94819156403476,7.830968716687774,4.936493435210242,9.057441734726535
1570178547802891.0,16.107000921945023,8.813558972303557,2.541856687550428,1.8995584855387433,2.9888371456114116,7.8339586044417056,5.010124790328154,9.166767622211006
1570178547802891.0,16.419643546166725,9.004757885595724,2.6033702557991467,1.923967931083944,3.040501125305212,7.853602110937132,5.088145411182616,9.26225652435315
1570178547809657.0,16.704515850977884,9.174504922638798,2.6727621809921316,1.950057196245225,3.1000083026769287,7.883343595070465,5.165436410319035,9.335058984409047
1570178547809657.0,16.99741751477417,9.34177504796895,2.7491776224783093,1.9801389608423372,3.1635600578496574,7.9162540691791845,5.235532637041657,9.40987841591567
1570178547825609.0,17.316673798546542,9.51933695484817,2.8320076138987202,2.015532735436796,3.229026700728414,7.958895446731365,5.302790692154594,9.504629231720479
1570178547825609.0,17.611744189480966,9.681705215169215,2.9129816868276084,2.055090793049422,3.2936465650024527,8.009062032144556,5.365832178128446,9.602671990578603
1570178547827604.0,17.825601901044525,9.813225727980301,2.987260663299344,2.097404150039514,3.359455985682688,8.06152470084323,5.427384724321581,9.691998102253656
1570178547827604.0,17.95338234027745,9.938582483285426,3.049683115556612,2.139585202747605,3.431711658270411,8.121439597660462,5.491812692806118,9.790259241807156
1570178547848553.0,18.015578160219455,10.066979947495472,3.103464586321605,2.178035661807741,3.5106509202792977,8.192267427467335,5.567382129423045,9.891891434740181
1570178547848553.0,18.062783528096727,10.199472818632696,3.154030381117131,2.2127397878557096,3.5966344249804623,8.27675068753804,5.649829860245082,9.983107795684717
1570178547849550.0,18.153758460692554,10.355536980843446,3.2050341167983563,2.2448165679096976,3.6911357035315095,8.363607943785274,5.730285215415836,10.064501234257564
1570178547849550.0,18.30613429612821,10.544710256074161,3.2534533098830423,2.272462803092379,3.782517672439685,8.418904518063014,5.800877042080509,10.133426781307797
1570178547861514.0,18.493231326243713,10.748688103779182,3.3033482689127847,2.291443078518675,3.8462729264191218,8.423366076047298,5.864388646832155,10.192497340231
1570178547861514.0,18.667190406435026,10.931875238956406,3.359978490392775,2.30764930937985,3.879341112138852,8.397130852520624,5.926530885873877,10.263900397277732
1570178547870513.0,18.79898453014334,11.077950428604575,3.4202543720156315,2.3253470914041303,3.897096426595147,8.35713774169287,5.990043331970446,10.348205131482041
1570178547870513.0,18.910553059344508,11.21024783050954,3.476638202734604,2.342658316480624,3.909428253181776,8.301432008130226,6.0444386505766685,10.44505664160091
1570178547885503.0,19.02195339621881,11.351121381086084,3.537041122082611,2.362553171343218,3.9226329295451166,8.238787023531318,6.0956718754097565,10.560903809427083
1570178547885503.0,19.1116816769152,11.502544033809682,3.605966597899435,2.3869005372386423,3.9389389259077334,8.188315662210194,6.156955562450281,10.698935683304526
1570178547887446.0,19.19039978864563,11.660381143054433,3.67807698613063,2.416441075523794,3.9539366222602204,8.151368819222919,6.232580877032572,10.856085723630336
1570178547887446.0,19.302810189822626,11.804966092471236,3.740652140905295,2.4453037935674677,3.968105367454845,8.131318129610289,6.315316432557627,11.017676493201447
1570178547908479.0,19.463866200161306,11.930884550886523,3.792317228606387,2.4653973665484923,3.9847220490424844,8.126826027490287,6.401581817446309,11.174661441215395
1570178547908479.0,19.628454956775077,12.052134340060181,3.84088013605479,2.4802625307682478,4.0049567501547205,8.133684509342944,6.478686474902381,11.326962569355699
1570178547909388.0,19.691864609335166,12.112490932444043,3.864052485014439,2.481411009575008,4.015635272268967,8.137565823588195,6.514855665160084,11.423158882674015
1570178547909388.0,19.573656246620477,12.046452747648507,3.8425756761084457,2.460921758799641,4.0122955106112155,8.13813099834744,6.495603630623041,11.424482273718466
1570178547922359.0,19.312665094878234,11.904686071346726,3.798854752143718,2.4353927622977323,4.008512264393154,8.141952151234994,6.441587471380893,11.353395990551077
1570178547922359.0,19.01172291722496,11.754334546121353,3.7525435114780454,2.417317690993812,4.008627001758541,8.133998756179743,6.371857954497441,11.244861043825816
1570178547931441.0,18.724662307381976,11.608519638484655,3.702468522308135,2.4030748529875225,4.000890951408552,8.081082599780363,6.293189930178235,11.135841902940873
1570178547931441.0,18.463963803814774,11.467525601985516,3.648136616748826,2.3874483091093737,3.994411690747632,7.986703980409394,6.205762655281589,11.039447276870774
1570178547945293.0,18.237206506345693,11.323086267825344,3.5931413944693356,2.373136229902438,3.997043864256822,7.873727680295189,6.120512312257836,10.956299740830493
1570178547945293.0,18.033625968866538,11.17274988536339,3.5417486220210304,2.3621707031938803,4.002837147876816,7.764915634995511,6.050501488101799,10.895935088796964
1570178547947292.0,17.838788085924822,11.032789522320503,3.490451946549743,2.3526994275159763,4.005374561481882,7.663855020281925,5.987742220038031,10.821604073381943
1570178547947292.0,17.644709900130252,10.916864466795511,3.4425861243644578,2.345559890018118,4.000123233676117,7.575554084335701,5.923113739282876,10.689987377079307
1570178547968474.0,17.42809836012266,10.811746440578013,3.4003561771007025,2.3401562422670783,3.979182233480911,7.49589557589363,5.859632065401333,10.524061557095305
1570178547968474.0,17.159902122306853,10.691186301488036,3.363160859321484,2.332418586095913,3.9521017238135263,7.432077965912464,5.794793097672996,10.337117593141373
1570178547970225.0,16.853344350433733,10.54934009272488,3.3263167342349025,2.321023451192846,3.9274691581888534,7.379985391886274,5.723244225772534,10.131252185263754
1570178547970225.0,16.539637168559253,10.391629522593178,3.2898141384781825,2.308355331200518,3.903393703313707,7.335604586773194,5.648318312866096,9.93017482577848
1570178547982368.0,16.238200076034417,10.224952169017167,3.2520143115450812,2.2984251121253845,3.874470018018281,7.291091464101694,5.574419943014497,9.751317094983312
1570178547982368.0,15.955174838836873,10.063943211718149,3.218303607624129,2.2945054613221076,3.850463753257491,7.256215396214107,5.5090537593791815,9.595913593877421
1570178547991170.0,15.697940081966468,9.90997914437128,3.1882738640683956,2.294694972730595,3.832884116505639,7.236456528862489,5.452433876840873,9.463344572825292
1570178547991170.0,15.457616288990627,9.749277924879335,3.1602584170006054,2.291035237246193,3.819768185271903,7.235393320145238,5.399811024262977,9.347890463632451
1570178548006261.0,15.202168561443068,9.590543260632005,3.1297017744878888,2.2817632630104794,3.80875083244026,7.237703015055758,5.347229951626683,9.246755213979268
