timestamp,emg1,emg2,emg3,emg4,emg5,emg6,emg7,emg8
1570181837938209,-2,-1,0,-2,0,1,0,1
1570181837938209,1,-1,0,-1,-1,-2,-1,-2
1570181837942715,-1,-1,-2,-1,-1,0,-1,0
1570181837942715,-1,-1,-2,-2,0,0,0,-1
1570181837944667,-1,-1,-1,-1,1,0,2,1
1570181837944667,-1,-1,-2,0,0,1,1,5
1570181837946765,-1,0,-1,0,0,-2,-2,-2
1570181837946765,-1,-1,0,1,-1,-2,-2,3
1570181837948762,0,0,-1,-2,-2,-1,-2,0
1570181837948762,1,-1,-2,0,-1,0,0,0
1570181837960617,-2,-2,1,-1,-1,-1,0,-5
1570181837960617,5,-1,-1,-1,0,0,2,8
1570181837972587,-2,-2,-1,1,-2,-2,1,-1
1570181837972587,-3,-2,-1,0,0,-1,-2,-3
1570181837980564,2,-1,-1,-1,0,1,-1,0
1570181837980564,-1,0,0,0,-2,-3,-2,-6
1570181837987657,-1,-1,-1,0,-1,-1,-1,1
1570181837987657,1,0,-1,-1,-2,0,0,1
1570181838009647,-1,-1,0,0,-2,-1,1,-1
1570181838009647,-1,-1,0,-3,-1,-1,1,-1
1570181838010484,-2,-2,-2,-1,1,-2,-2,-4
1570181838010484,-2,-1,-2,-2,-1,0,0,-2
1570181838057358,-3,-1,-1,-1,-1,-1,-2,-5
1570181838057358,2,-1,-2,-2,-2,-1,0,4
1570181838057804,-1,0,-1,-1,-1,0,1,1
1570181838057804,-2,-1,-1,-2,0,0,0,-3
1570181838058355,1,-1,-1,-2,-2,-1,-1,-1
1570181838058355,-2,0,-1,0,0,-1,-1,-1
1570181838062700,1,-1,0,0,-1,1,-1,0
1570181838062700,-1,-2,-1,-1,-2,0,-1,-1
1570181838068475,-1,0,-3,0,-2,-2,0,1
1570181838068475,-9,-1,0,0,1,0,-4,-16
1570181838077306,6,-1,-1,0,-2,0,3,13
1570181838077306,1,0,0,0,-1,-1,0,3
1570181838083288,0,-2,0,-1,0,0,-2,-6
1570181838083288,0,-1,0,-1,0,-1,0,6
1570181838100541,-6,-1,2,-1,0,-1,-2,-15
1570181838100541,5,0,-2,-3,-2,-4,-3,21
1570181838106297,1,-1,-1,-3,-1,0,2,6
1570181838106297,-1,0,1,0,-1,3,-1,-1
1570181838129280,0,0,-1,-1,1,6,-2,-10
1570181838129280,0,-3,-1,-2,0,-9,-3,2
1570181838130417,-4,0,0,-1,-4,1,-3,-7
1570181838130417,1,-1,-1,-1,-1,-9,2,3
1570181838144134,0,0,-2,0,-2,-8,-2,0
1570181838144134,-3,1,2,1,2,11,2,-11
1570181838145133,-1,-3,-1,0,2,2,-3,2
1570181838145133,1,0,-1,0,-3,2,0,0
1570181838167066,-3,-1,-2,-2,-1,-3,-2,-2
1570181838167066,-2,-1,-1,-1,-2,-4,-2,-3
1570181838167066,-2,-1,-1,0,-1,-3,0,1
1570181838167066,1,1,-1,-1,-2,2,2,4
1570181838189007,-3,-2,0,-3,1,-1,-2,-2
1570181838189007,-4,-1,0,-1,-1,1,0,-3
1570181838191001,-1,-2,1,1,-1,-1,-1,-6
1570181838191001,0,-2,0,-1,0,-2,1,10
1570181838203974,0,0,-1,1,0,-1,-1,-10
1570181838203974,5,-1,1,-1,-2,-2,-1,7
1570181838204970,2,1,1,1,0,-1,0,3
1570181838204970,0,-1,0,0,-1,1,-2,0
1570181838226906,0,0,-1,-1,-2,0,0,5
1570181838226906,-4,1,1,0,0,-1,-1,-11
1570181838226906,0,-1,-3,-1,1,2,1,2
1570181838226906,-1,0,-1,0,-1,-1,-3,-4
1570181838249848,3,-2,-1,0,1,0,3,9
1570181838249848,-4,-1,-1,1,0,-1,-2,-10
1570181838249848,2,-1,0,0,1,0,0,5
1570181838249848,-1,0,-2,1,0,-1,0,-13
1570181838271797,-1,1,-1,0,-1,1,0,5
1570181838271797,1,-3,-2,-1,-2,-1,-1,1
1570181838272782,0,0,1,-1,0,-1,-2,-2
1570181838272782,-1,-1,0,-2,0,-2,-2,-1
1570181838286796,-1,0,2,-1,0,0,-3,-2
1570181838286796,-1,-2,-1,0,-1,1,0,-5
1570181838287750,0,-2,-1,-1,0,1,0,-1
1570181838287750,1,-1,2,-1,0,0,-1,0
1570181838309171,-2,-1,-1,0,-1,-3,0,4
1570181838309171,-2,1,-1,-1,-1,-1,-1,-1
1570181838309685,0,-1,-1,-2,-2,0,0,-2
1570181838309685,0,-1,-3,-2,-1,0,1,1
1570181838323644,-1,-1,-2,-1,-1,-1,-1,-2
1570181838323644,1,1,-1,-1,-1,-2,1,1
1570181838325409,-1,1,0,0,-1,-2,-1,3
1570181838325409,0,0,-2,-1,1,-1,-1,0
1570181838346789,-1,0,-1,0,0,0,-2,-6
1570181838346789,3,0,0,-1,-1,-2,0,5
1570181838347591,8,-1,-2,-1,-1,-2,4,21
1570181838347591,-3,-2,-2,1,0,-1,-2,-1
1570181838369555,0,-2,0,0,-2,0,-2,1
1570181838369555,-2,-1,-1,-1,1,0,-1,-4
1570181838369555,0,1,0,-1,-1,-2,0,-3
1570181838369555,-4,-3,-1,-1,-1,1,-2,-7
1570181838383521,-2,-2,-2,0,-1,-2,-3,3
1570181838383521,-1,-1,0,1,-1,1,-2,-9
1570181838391608,-1,0,0,1,-1,-6,-1,0
1570181838391608,0,1,-1,-2,-1,3,1,-2
1570181838406462,-1,-1,-1,-1,-1,0,1,1
1570181838406462,-6,-2,-1,0,-1,-3,-2,-13
1570181838407427,7,0,-1,-1,2,0,3,12
1570181838407427,1,-1,0,-2,-3,-8,-2,2
1570181838428707,1,0,-1,0,2,6,0,1
1570181838428707,-1,1,0,0,-1,2,2,-1
1570181838430359,-4,-2,0,0,-1,1,-4,-10
1570181838430359,-3,-1,0,0,-1,-3,1,6
1570181838443561,0,-1,0,-2,0,0,0,-6
1570181838443561,1,-2,-2,-2,-1,-1,-2,3
1570181838451310,-3,-1,-1,-1,0,0,-2,-7
1570181838451310,1,0,-1,-2,0,1,0,3
1570181838467264,-1,-1,0,-1,-1,-3,-2,-1
1570181838467264,1,-2,-2,-2,0,0,-1,5
1570181838467264,-1,-1,1,-1,-1,-2,-2,-6
1570181838467264,0,0,-1,-1,-3,-1,-4,3
1570181838489210,-1,0,-1,-1,0,-2,-1,2
1570181838489210,0,0,-1,-2,-1,0,1,-1
1570181838490200,-3,-1,-2,-1,-1,2,-5,-6
1570181838490200,-1,-1,2,1,-1,0,2,0
1570181838503284,2,-1,-1,0,-2,-3,-2,-4
1570181838503284,1,0,-1,-2,-1,-2,0,5
1570181838511145,-4,-1,-2,1,-1,-1,-2,-3
1570181838511145,0,-1,-3,-2,-1,1,-1,-2
1570181838527110,-2,1,0,0,-2,-2,-2,-1
1570181838527110,-1,-1,-1,1,0,0,1,2
1570181838527110,-1,0,0,-2,1,-2,0,-3
1570181838527110,-2,-1,0,0,1,-1,0,-3
1570181838549049,0,0,0,-4,-2,-1,1,2
1570181838549049,-1,-1,-2,-2,0,0,-2,1
1570181838550043,-1,0,1,-1,-2,-1,0,2
1570181838550043,-1,-2,-1,0,0,0,0,-2
1570181838564251,-1,0,0,0,0,-2,1,-1
1570181838564251,-2,-1,-1,0,-1,2,0,0
1570181838571365,-2,-1,-2,-1,-1,0,0,-2
1570181838571365,0,0,1,-1,0,-1,-1,-4
1570181838587139,-1,-2,1,0,-1,-1,0,6
1570181838587139,2,-1,-1,-1,-1,-2,-3,0
1570181838587942,0,-1,-1,0,0,0,0,-1
1570181838587942,-1,1,-1,0,1,0,-1,-5
1570181838609021,-1,-1,-1,-1,-2,0,2,8
1570181838609021,-2,-1,0,-1,0,-2,-1,-1
1570181838609963,-3,-2,-1,0,-1,-1,-1,-7
1570181838609963,1,0,1,0,0,-1,1,1
1570181838623854,-1,0,-1,1,1,0,-4,-6
1570181838623854,-1,0,-4,2,-2,1,1,2
1570181838630921,-1,0,0,-1,-1,1,1,-2
1570181838630921,0,0,-1,0,-2,-1,-3,-2
1570181838646787,-1,-2,-1,-1,-1,0,-2,-6
1570181838646787,1,2,1,-1,0,1,0,3
1570181838647868,-1,-1,-2,-1,0,1,-3,-4
1570181838647868,-1,-2,-2,-3,-2,0,0,2
1570181838677709,-4,1,1,-2,-2,-2,-4,-8
1570181838677709,2,1,0,0,0,0,1,3
1570181838678147,-1,0,0,-1,1,-2,-1,1
1570181838678147,0,0,-2,-2,0,-1,0,3
1570181838691705,-2,0,-1,-2,0,-1,-1,-8
1570181838691705,-1,0,-1,0,1,-2,-1,0
1570181838692658,-1,-1,-1,-2,0,1,-2,-1
1570181838692658,1,1,0,0,1,1,2,6
1570181838706629,0,0,0,-1,1,0,1,3
1570181838706629,1,-1,-2,-2,-1,-1,1,4
1570181838707620,-1,0,-2,-1,-2,-1,0,-2
1570181838707620,0,-1,-1,0,-1,-1,-1,-1
1570181838729726,0,-1,-3,1,0,0,-1,1
1570181838729726,-2,-1,-1,0,-1,0,-1,2
1570181838729726,-2,-2,0,-1,-1,0,1,2
1570181838729726,-3,0,1,-2,-2,0,-2,-1
1570181838743574,0,-1,-1,-1,-1,-1,-1,1
1570181838743574,0,0,2,-1,0,0,-3,-3
1570181838751503,-2,-1,0,-1,-2,-1,0,0
1570181838751503,-2,-1,0,1,-2,-2,-5,-9
1570181838766465,7,0,-1,0,0,3,2,13
1570181838766465,-4,-1,0,-1,-1,-2,-4,-18
1570181838767692,2,-1,-2,0,-1,0,0,2
1570181838767692,-1,-1,-2,-1,1,-1,0,0
1570181838789600,-1,-1,0,-2,-1,-2,1,0
1570181838789600,-1,0,0,1,-1,-1,-2,2
1570181838790398,2,1,0,-1,-1,0,1,4
1570181838790398,-2,-2,-1,1,0,-2,-4,-7
1570181838811342,-2,-1,-1,-2,-1,0,0,-1
1570181838811342,3,1,-3,-1,0,0,1,7
1570181838812339,-1,0,-1,-1,2,-2,-1,-3
1570181838812339,0,-1,-1,0,-1,-1,1,1
1570181838826303,-1,-1,-1,-1,0,0,-1,-1
1570181838826303,-2,-1,-1,0,-2,-2,2,0
1570181838827299,-3,-1,0,-1,-3,-1,-3,-11
1570181838827299,4,0,-3,-3,-1,0,0,6
1570181838858217,-2,1,2,1,0,-3,-1,-3
1570181838858217,-2,-2,0,0,-1,1,0,-4
1570181838859216,-1,0,-2,0,0,0,-1,2
1570181838859216,0,-1,-1,0,0,0,-1,0
1570181838871218,-1,0,-1,-2,-1,-2,-3,-4
1570181838871218,-2,-1,0,0,1,1,-1,-2
1570181838872515,0,-2,-1,1,-2,-2,-3,-5
1570181838872515,0,1,2,0,-2,-2,0,0
1570181838886178,0,-1,-2,0,-1,0,2,3
1570181838886178,-1,-1,0,-2,-4,-2,1,0
1570181838887141,-2,-1,-1,0,-1,0,-2,-13
1570181838887141,0,-1,-2,-1,0,2,0,-7
1570181838909079,-3,-2,-1,1,-1,-1,-3,-9
1570181838909079,1,-1,-1,-4,0,0,0,-6
1570181838910172,0,1,0,-1,0,-1,0,15
1570181838910172,-1,0,0,0,0,1,3,1
1570181838932021,-1,1,0,0,1,0,0,0
1570181838932021,3,1,-1,1,1,-1,1,10
1570181838933017,0,-1,-1,2,-1,0,0,3
1570181838933017,-1,-2,0,-1,0,-1,-2,4
1570181838946984,0,-1,-2,-1,-2,1,-1,0
1570181838946984,-2,-1,0,-1,-2,0,-2,0
1570181838946984,1,1,0,0,-2,-1,0,3
1570181838946984,0,-2,-1,-1,0,0,0,1
1570181838969104,-1,0,0,0,1,0,-2,-1
1570181838969104,-1,-1,-2,-1,0,0,-1,-1
1570181838969919,-2,0,1,0,0,0,0,3
1570181838969919,0,-1,1,1,-3,-1,-2,0
1570181839000011,0,-1,0,0,0,-1,-1,-7
1570181839000011,-1,-1,1,1,-1,-1,-1,-6
1570181839000836,0,-1,-2,-1,-1,0,-1,2
1570181839000836,-3,-1,-1,-1,-1,-2,-2,-4
1570181839006821,0,-1,0,-1,-2,-1,-1,2
1570181839006821,2,0,-1,-2,-1,-2,-1,4
1570181839007817,16,4,0,1,-1,-1,1,0
1570181839007817,-25,-9,-3,-1,-1,-4,-2,-3
1570181839028761,6,2,-2,0,0,2,0,3
1570181839028761,-13,-8,-2,1,0,-1,0,-7
1570181839036836,8,3,1,-1,-2,-1,0,7
1570181839036836,11,3,-1,-1,1,0,2,1
1570181839051698,-7,-2,-2,0,0,-1,0,0
1570181839051698,3,2,-2,0,0,0,-2,3
1570181839052696,-6,-4,0,-1,0,0,-1,-6
1570181839052696,4,3,-1,-1,-2,-2,0,-1
1570181839074723,0,0,-1,-2,-1,0,-1,3
1570181839074723,19,6,1,-1,-2,1,0,4
1570181839075636,-43,-15,-3,0,1,-4,-2,-4
1570181839075636,-1,2,1,-2,1,1,-1,-1
1570181839088600,14,-2,-2,-1,1,1,-1,2
1570181839088600,-2,-2,-2,-1,0,0,0,-3
1570181839096581,5,1,1,0,0,-1,-2,-2
1570181839096581,1,1,0,-1,0,-1,0,-1
1570181839111540,-8,-2,-2,-2,-1,-1,2,-1
1570181839111540,-1,1,1,-2,-1,0,0,-1
1570181839112535,2,0,-1,-2,1,2,0,0
1570181839112535,1,-2,0,0,-1,0,-1,1
1570181839134661,2,1,1,0,1,0,-1,-1
1570181839134661,-3,-2,-2,-1,0,-2,-1,0
1570181839135476,3,3,1,-2,-2,-2,0,-9
1570181839135476,1,1,0,0,-1,-1,-2,3
1570181839148530,-3,-1,1,-1,0,-1,1,-1
1570181839148530,-3,-2,-2,0,-3,-1,0,-3
1570181839156504,3,-1,-1,-1,-2,-1,-1,4
1570181839156504,3,0,-2,0,-1,0,0,-2
1570181839171390,-3,0,2,1,-2,-2,-2,-8
1570181839171390,-1,-2,0,-1,1,-1,2,10
1570181839172383,3,1,-1,-1,1,0,0,1
1570181839172383,-3,-1,1,-1,1,-1,-2,0
1570181839195367,-1,-2,-2,-2,-3,-1,-2,-1
1570181839195367,-6,-2,0,0,-1,-2,-5,-9
1570181839195367,3,0,1,1,0,0,1,1
1570181839195367,0,0,-1,-1,0,-1,1,1
1570181839208406,-2,0,-2,0,0,1,0,3
1570181839208406,-2,-1,0,-1,0,-1,-2,-5
1570181839216941,1,-1,-2,-2,-1,0,-1,-2
1570181839216941,0,-1,0,1,-1,0,-2,-4
1570181839232217,1,0,-1,-1,-1,0,0,0
1570181839232217,0,-1,-1,1,-1,-2,1,-2
1570181839232217,-2,-2,0,0,-2,0,-1,-3
1570181839232217,3,0,-2,-2,-2,-1,1,4
1570181839255158,0,0,0,-1,0,-1,-1,-1
1570181839255158,-4,0,0,-2,-1,-1,-1,-6
1570181839255158,2,0,-1,0,2,0,2,6
1570181839255158,0,-1,0,-2,0,0,-2,-4
1570181839277293,1,-1,-2,-2,-2,-4,2,3
1570181839277293,-3,1,-1,0,1,1,-1,-5
1570181839278416,1,-1,-1,-3,-1,-1,-1,6
1570181839278416,-1,0,-2,-1,1,2,0,-2
1570181839292149,-3,1,-1,-1,-1,0,1,1
1570181839292149,0,0,-1,0,-1,-1,0,5
1570181839292149,-3,0,0,-2,-1,-1,-1,-9
1570181839292149,-1,-1,-1,1,0,-1,-1,-3
1570181839315208,-2,-2,-1,0,-2,-1,1,2
1570181839315208,1,1,1,0,-1,-2,0,6
1570181839316000,-2,0,1,-2,-1,0,-1,-1
1570181839316000,-2,0,-1,0,0,-1,0,-2
1570181839337936,-2,-2,-1,1,-1,1,-2,-3
1570181839337936,0,-1,-1,0,-2,-2,-3,-10
1570181839337936,1,0,-1,-1,0,-1,0,0
1570181839337936,1,-1,0,0,-1,0,-1,1
1570181839352088,-1,0,-1,-1,1,1,-1,-2
1570181839352088,-1,-1,-2,-1,0,0,0,1
1570181839359001,0,1,-1,1,-1,-1,0,3
1570181839359001,1,0,0,-1,-1,0,0,-2
1570181839374970,0,-1,0,0,0,-1,-2,0
1570181839374970,0,-2,0,-2,-1,1,1,5
1570181839376053,1,1,0,1,0,0,0,-2
1570181839376053,-2,-2,0,-2,-1,0,-1,-2
1570181839397774,2,0,-1,0,-1,-2,0,8
1570181839397774,0,0,-1,-3,0,0,1,6
1570181839397885,-1,-1,-1,0,-1,0,-1,1
1570181839397885,-1,-2,-1,-2,-1,0,-1,0
1570181839412008,-2,-1,2,-2,0,-2,-1,-4
1570181839412008,2,-3,-1,1,1,0,0,1
1570181839412744,-1,-1,-1,0,-1,0,1,-2
1570181839412744,1,3,-1,-1,0,-1,-2,-3
1570181839442889,-2,0,-1,0,0,2,-1,-1
1570181839442889,-1,-1,0,0,-1,0,-2,-2
1570181839442889,-1,-2,-1,-1,-4,-1,-1,-3
1570181839442889,0,-2,-1,0,-1,0,0,1
1570181839457906,0,0,-1,-2,1,0,3,-1
1570181839457906,0,1,-1,-1,1,-1,0,2
1570181839457906,-4,-2,-2,-1,-1,-1,-1,-6
1570181839457906,0,-3,0,-1,0,-1,0,1
1570181839471602,-1,-1,1,1,-1,-2,-2,-3
1570181839471602,-1,-1,1,-1,-1,-2,1,0
1570181839472582,0,-1,1,-1,-1,0,0,0
1570181839472582,-4,0,-1,0,-2,0,-1,-4
1570181839494727,2,0,-1,0,-1,-2,-3,3
1570181839494727,-1,-2,-2,0,-1,-1,-2,-12
1570181839495514,1,-2,0,-2,1,-1,-3,-4
1570181839495514,3,2,1,2,1,0,2,11
1570181839517666,-6,-5,-4,-2,-3,-2,-2,-2
1570181839517666,0,1,1,0,-1,-2,0,0
1570181839518464,0,0,-2,-1,-1,1,0,0
1570181839518464,0,-2,-1,0,0,0,-2,-8
1570181839531632,-1,-1,-1,0,0,-3,-4,-9
1570181839531632,-3,-1,0,0,0,3,1,2
1570181839532419,3,1,-1,-1,-1,-3,-2,8
1570181839532419,-3,0,-1,0,0,0,0,-1
1570181839554370,2,0,-1,0,2,2,-1,0
1570181839554370,-3,-3,-1,0,0,-1,-2,-3
1570181839555453,-2,-1,-1,0,0,1,0,-1
1570181839555453,0,0,-1,0,-1,-5,-2,-1
1570181839576298,0,0,-2,-2,0,1,2,0
1570181839576298,-2,3,1,1,-1,1,-2,-2
1570181839584493,-8,-6,-2,-2,0,0,1,0
1570181839584493,1,-5,-4,-1,-3,-1,-2,0
1570181839591399,-2,-1,-1,0,-1,1,0,-1
1570181839591399,2,-1,-1,1,0,1,-1,1
1570181839592255,0,1,1,1,0,0,0,-2
1570181839592255,-2,2,0,0,0,-1,-1,-2
1570181839615376,-2,1,0,-1,-1,0,-2,2
1570181839615376,0,-1,-1,-1,0,-2,2,0
1570181839615376,-2,-1,0,0,0,-2,0,-1
1570181839615376,-1,-1,-1,-2,-1,0,1,0
1570181839637319,0,0,-1,0,-1,0,-1,2
1570181839637319,0,-1,-1,-1,-1,-1,1,-1
1570181839638133,0,1,0,-2,1,1,0,0
1570181839638133,-1,0,-1,1,1,-1,-2,-1
1570181839652205,-2,0,2,-1,-1,0,-1,-2
1570181839652205,1,0,-2,-1,-1,0,-1,2
1570181839652205,-1,0,-2,0,-3,-1,0,-2
1570181839652205,-1,-1,-2,-1,-2,1,1,-1
1570181839675252,1,-1,-1,-1,1,-1,1,0
1570181839675252,0,-1,-2,-2,0,-1,-2,-1
1570181839676035,1,-1,-1,-1,-2,-1,-1,1
1570181839676035,-1,0,0,-1,-1,-1,-1,-1
1570181839696975,0,-2,-1,-1,0,0,0,-1
1570181839696975,-3,-1,-1,0,-1,-2,-1,-3
1570181839697971,0,-1,1,0,0,1,-1,4
1570181839697971,-1,-1,-1,-1,-1,0,-1,1
1570181839711932,0,1,0,0,0,-1,1,9
1570181839711932,-1,-1,0,0,0,-2,-2,8
1570181839711932,-1,-1,-1,1,0,-1,0,2
1570181839711932,1,-2,0,-1,-1,0,-2,-6
1570181839734877,1,0,0,0,1,2,-2,-2
1570181839734877,0,0,-1,-1,-2,1,-1,-3
1570181839736866,0,0,0,-2,-2,0,0,-4
1570181839736866,0,-1,0,-1,-1,-1,0,-1
1570181839757857,0,0,0,-1,-1,-3,0,-4
1570181839757857,17,5,2,1,-1,-1,-1,-1
1570181839759058,-40,-15,-3,0,-1,2,-1,-7
1570181839759058,7,3,-1,0,-2,0,0,2
1570181839771776,-5,1,1,0,-1,-2,-1,-3
1570181839771776,-5,-9,-3,-1,-1,-2,-2,-5
1570181839779764,10,4,-1,0,-1,-2,0,-1
1570181839779764,-5,-3,-1,0,0,0,0,-1
1570181839794719,1,-1,-2,1,-2,-1,0,-1
1570181839794719,-1,4,2,-1,0,2,0,-2
1570181839796792,5,0,-2,0,0,-1,-2,-8
1570181839796792,-27,-13,-3,-1,0,0,-1,1
1570181839817652,11,3,0,1,0,-1,-2,-1
1570181839817652,0,1,-1,1,2,1,0,-6
1570181839818761,17,14,3,-1,-4,0,-2,2
1570181839818761,-28,-27,-11,-8,-13,-3,-7,-24
1570181839830699,7,9,1,-2,0,-1,-3,-4
1570181839830699,-26,-13,-2,6,19,0,0,-5
1570181839839649,16,2,0,-3,-1,-2,0,2
1570181839839649,13,7,4,3,4,-2,-2,-6
1570181839862568,-2,1,2,0,-6,2,0,-4
1570181839862568,5,1,-5,-5,-9,-1,-1,-2
1570181839863806,-6,-4,1,2,4,-1,1,-1
1570181839863806,9,8,0,0,-2,0,2,5
1570181839877712,-4,-5,-2,-1,-1,-2,0,3
1570181839877712,1,3,1,-1,-4,1,2,5
1570181839878907,-6,-4,-2,-3,-1,-1,-1,-4
1570181839878907,9,6,3,0,-2,0,2,7
1570181839891548,-1,-3,-2,-1,-1,0,0,1
1570181839891548,-1,-2,1,-1,-2,-2,1,4
1570181839900436,1,1,-1,-1,-3,-1,-3,-8
1570181839900436,6,3,1,0,3,1,0,3
1570181839914430,16,4,1,1,1,2,0,0
1570181839914430,24,14,0,-3,-4,-1,-2,0
1570181839916387,-79,-44,-7,-1,0,0,-2,-6
1570181839916387,25,10,1,1,3,1,1,7
1570181839937348,-7,-7,-2,-1,-1,-1,-2,-9
1570181839937348,14,7,1,-1,-2,-2,0,10
1570181839939326,21,1,-5,-4,-1,-4,-4,0
1570181839939326,-3,1,-2,-1,0,-1,1,-3
1570181839951404,-9,-7,-2,-3,-2,1,2,6
1570181839951404,6,2,1,1,-4,-1,-1,-1
1570181839960276,6,8,1,0,0,2,0,3
1570181839960276,-9,-4,0,1,0,0,0,2
1570181839975406,5,2,-1,-1,-1,-3,-2,-2
1570181839975406,-16,-8,-2,-2,0,2,1,2
1570181839977016,25,9,0,1,-1,-1,1,9
1570181839977016,-15,-5,-3,-1,-2,-2,-3,-2
1570181839997552,10,10,3,1,2,-1,1,2
1570181839997552,-13,-15,-4,-2,-1,-1,-2,-6
1570181839999170,11,3,1,0,-2,-1,-1,2
1570181839999170,6,6,3,1,0,0,0,-7
1570181840011217,14,2,-2,0,2,1,0,2
1570181840011217,-7,-5,-1,-1,-1,-2,-1,0
1570181840020115,5,5,-2,-1,0,-1,0,3
1570181840020115,1,1,-2,-2,0,0,0,3
1570181840035212,-7,-4,-3,-2,0,-1,0,1
1570181840035212,-5,-1,-1,-1,-1,-2,-6,-21
1570181840036073,-4,1,1,0,-1,1,-3,-4
1570181840036073,5,1,2,0,-1,-1,0,4
1570181840057242,-13,-7,-2,-1,-1,-2,-1,-6
1570181840057242,1,0,0,-1,0,0,0,4
1570181840059005,3,3,0,-1,0,0,2,5
1570181840059005,-1,0,-2,-1,-2,-1,-2,-2
1570181840070977,-8,-2,-2,-3,-2,-1,-1,-1
1570181840070977,-3,-2,-1,0,-1,0,0,-3
1570181840079958,4,1,-1,-1,-1,0,1,2
1570181840079958,0,-2,0,-1,0,-1,-1,2
1570181840094914,-8,-5,-4,0,-1,-2,-1,0
1570181840094914,2,2,0,-1,-1,-2,1,7
1570181840095909,2,1,-1,1,-1,2,1,0
1570181840095909,1,-1,-2,-1,-1,-1,2,0
1570181840116852,-9,-2,-1,-1,0,0,-2,-9
1570181840116852,0,0,-1,0,0,-1,1,3
1570181840119356,0,1,1,1,-1,-1,0,-1
1570181840119356,1,1,-1,0,-1,0,0,2
1570181840139924,-3,-2,0,0,0,0,-2,0
1570181840139924,1,-1,-1,-1,0,0,0,5
1570181840141793,1,-1,1,-1,-1,-2,-1,-8
1570181840141793,-4,0,0,-1,0,-1,-1,-13
1570181840154911,2,0,0,0,0,-1,2,13
1570181840154911,-4,-1,0,-1,-1,-1,-2,-6
1570181840156743,1,0,-1,0,-1,0,0,4
1570181840156743,-2,0,0,1,-2,-1,-2,-2
1570181840177876,-1,-1,-1,0,-1,-2,1,-1
1570181840177876,-1,-2,-4,1,-2,-1,-4,-14
1570181840178689,-1,1,-1,-2,0,0,-1,-3
1570181840178689,-2,-3,-4,-3,0,1,-1,4
1570181840199632,3,0,1,1,0,-1,-1,-3
1570181840199632,0,-1,0,-2,0,-1,0,2
1570181840201626,-3,0,2,-1,0,-1,-4,-10
1570181840201626,2,-1,-3,0,-3,-1,3,9
1570181840214590,-4,0,-1,0,-2,0,0,-6
1570181840214590,0,-3,-1,0,-1,0,1,7
1570181840216592,-1,1,-2,0,0,-1,-1,-2
1570181840216592,0,0,0,0,2,-2,-1,-1
1570181840237569,-3,-1,-2,-2,0,-1,0,1
1570181840237569,0,3,2,0,1,0,0,-2
1570181840238525,2,-1,-1,-1,-1,0,3,12
1570181840238525,0,0,0,0,-2,0,-2,-2
1570181840260504,-4,-4,-4,-2,-2,0,-4,-16
1570181840260504,-1,-2,-1,-2,0,0,2,3
1570181840261465,0,0,1,-2,-1,-2,-1,-2
1570181840261465,-1,-1,-1,-2,1,-2,0,0
1570181840275428,-2,0,0,2,0,0,-1,-3
1570181840275428,-2,0,-3,-1,0,2,0,1
1570181840276432,0,-2,-2,-1,-1,1,-1,1
1570181840276432,1,-2,-1,-2,-3,-1,-1,-2
1570181840297514,-2,-1,0,-1,-3,-1,0,4
1570181840297514,1,1,0,-1,-1,-1,-1,-2
1570181840299365,-3,0,-1,0,-1,-1,-3,-5
1570181840299365,-1,0,0,-1,2,1,0,0
1570181840320309,2,0,-1,-1,-2,-2,0,12
1570181840320309,1,-1,-2,-2,-2,-2,0,0
1570181840321304,-1,-1,0,-2,-1,-1,0,-3
1570181840321304,-1,-1,0,1,-1,-1,-1,5
1570181840333273,2,0,-1,-1,-2,-1,-1,3
1570181840333273,0,-1,1,0,-1,-2,-1,-2
1570181840342250,0,-1,-3,-2,-1,0,1,1
1570181840342250,-1,-1,-1,0,0,0,-1,2
1570181840357207,-3,-1,1,0,0,0,-1,-1
1570181840357207,-4,0,0,1,0,-2,-1,-4
1570181840359202,2,1,-2,0,-1,-1,1,4
1570181840359202,-2,-1,0,-1,0,-1,-3,-7
1570181840380286,0,-1,-1,-2,1,0,2,0
1570181840380286,-2,-1,-1,0,0,2,0,-2
1570181840381614,-4,-1,0,-2,0,-1,-1,-2
1570181840381614,1,1,-2,-1,0,-2,1,2
1570181840394113,-1,1,0,-1,-2,1,-1,1
1570181840394113,2,-1,-2,0,1,0,-1,-4
1570181840401437,2,-1,1,1,-2,0,0,1
1570181840401437,-1,-1,1,-3,1,1,-2,-1
1570181840417238,0,-1,-1,1,1,-2,-1,-3
1570181840417238,-1,0,-1,-2,-1,-1,1,-4
1570181840419096,-1,-1,-1,1,1,-3,-4,-2
1570181840419096,-2,0,-2,0,-1,-1,-1,-6
1570181840440144,-1,-2,-2,-3,-3,-1,-3,-14
1570181840440144,-1,-1,-1,-1,-1,0,0,0
1570181840440982,0,1,0,-2,-1,0,0,1
1570181840440982,0,1,1,2,-2,-3,-2,2
1570181840453954,-1,0,-1,1,-1,-1,-1,-4
1570181840453954,2,-1,-1,0,0,-1,-2,4
1570181840461966,0,-1,0,0,0,0,-1,-2
1570181840461966,1,-3,0,0,0,1,0,-3
1570181840476895,-1,0,0,0,1,0,1,2
1570181840476895,-1,-1,-1,-2,-2,-3,-2,2
1570181840479131,-1,-2,0,0,0,1,1,1
1570181840479131,0,0,0,-1,-1,0,0,-3
1570181840500041,0,-2,-1,0,-1,1,0,4
1570181840500041,0,0,0,-1,0,1,-1,-10
1570181840501828,-1,-2,0,0,-1,-2,-1,-11
1570181840501828,0,-1,-1,-1,-2,-1,1,-4
1570181840514014,-4,-1,1,-1,1,-1,0,-7
1570181840514014,4,-2,-2,-2,-2,0,0,14
1570181840522768,-2,0,-1,1,0,-1,-2,1
1570181840522768,-1,-1,-2,-1,0,0,-2,6
1570181840537965,0,-1,0,1,0,-2,0,6
1570181840537965,0,0,-1,0,1,1,2,8
1570181840538726,0,-2,-1,-1,-1,-2,2,4
1570181840538726,-2,-1,-1,-1,-1,0,0,2
1570181840560664,2,2,1,0,-2,1,0,4
1570181840560664,-3,0,2,-1,0,-1,-3,-2
1570181840561662,2,-1,-1,-3,0,0,-1,2
1570181840561662,0,-1,1,0,-1,-2,-1,4
1570181840574669,-1,-1,-2,-2,-1,0,-1,-2
1570181840574669,-3,-1,-1,0,-1,0,1,0
1570181840580965,2,0,-2,0,-1,1,3,12
1570181840580965,0,1,1,0,-2,0,-4,-14
1570181840597747,0,-1,-1,0,-1,-2,-4,-13
1570181840597747,0,0,0,0,0,-1,-1,-5
1570181840598607,2,0,-1,-1,0,-1,1,3
1570181840598607,-1,0,0,0,1,-2,-1,-1
1570181840619677,0,-1,-2,-1,0,1,0,3
1570181840619677,-2,0,-1,1,0,-1,-2,-4
1570181840621595,-2,0,-2,-1,1,0,0,0
1570181840621595,3,0,-2,0,-1,0,2,6
1570181840634475,0,-2,-2,-1,0,0,0,2
1570181840634475,-1,-2,-1,0,-1,-1,-1,1
1570181840641539,0,0,2,0,-1,0,-2,0
1570181840641539,-1,0,-2,0,0,0,-1,-2
1570181840656537,-2,0,0,-1,0,-1,-1,-1
1570181840656537,2,0,0,1,-2,-2,0,2
1570181840665458,-1,-1,-1,0,-1,-1,-1,-4
1570181840665458,-1,0,-2,-1,0,0,0,-3
1570181840680272,1,-1,-1,0,0,-1,0,2
1570181840680272,-3,1,-2,-1,0,0,-1,-5
1570181840681427,0,-1,-1,-2,-2,0,-1,2
1570181840681427,-3,-1,0,0,-3,0,1,1
1570181840694568,2,0,0,-1,1,-2,0,5
1570181840694568,-2,-1,-1,-1,0,-2,-1,-5
1570181840701468,1,1,-3,0,-1,-2,3,4
1570181840701468,0,-1,-2,-3,0,-1,0,-2
1570181840717381,-1,-1,1,-2,-1,-1,-2,-4
1570181840717381,1,1,1,1,0,0,3,10
1570181840719239,-2,0,0,1,0,0,-2,-5
1570181840719239,0,0,0,1,-1,-1,-2,2
1570181840740416,-1,0,-2,-1,-1,0,0,0
1570181840740416,-1,-2,0,-2,-2,0,-3,-9
1570181840741185,0,-1,1,-1,0,0,-1,-3
1570181840741185,0,-1,0,-2,2,0,0,-1
1570181840753757,-1,-2,-1,0,-1,1,0,1
1570181840753757,1,0,-1,-1,-1,-1,-1,4
1570181840762124,-2,-1,0,2,-2,0,-2,-3
1570181840762124,-5,-1,1,0,0,-1,-4,-12
1570181840777139,4,-2,1,-1,0,0,1,9
1570181840777139,0,-2,0,-2,-1,0,0,-1
1570181840779078,-1,-1,0,0,-3,-2,-1,-6
1570181840779078,-1,-1,-1,-2,0,0,0,4
1570181840800216,-4,-1,-1,0,-1,-2,-5,-21
1570181840800216,1,-1,-2,1,-1,0,0,3
1570181840801149,0,-1,0,0,-1,0,2,-1
1570181840801149,1,-1,0,0,-2,0,0,-1
1570181840814036,0,0,-2,0,0,0,2,6
1570181840814036,-3,-1,-2,1,-1,-1,-2,-6
1570181840822965,-2,-2,0,-3,0,-1,0,5
1570181840822965,3,0,0,0,-2,-2,2,4
1570181840837930,-2,-2,-1,-1,-2,0,1,-2
1570181840837930,0,-1,-1,0,0,0,-1,1
1570181840839252,0,1,0,1,0,-2,-1,-3
1570181840839252,1,0,-1,-1,0,0,-1,1
1570181840859913,0,0,0,-1,0,0,-1,1
1570181840859913,-1,-2,-3,-1,-1,0,-1,4
1570181840861023,-1,-1,-1,-1,0,-1,-2,-3
1570181840861023,-4,0,2,0,1,0,0,-5
1570181840873926,0,0,0,1,-3,0,-1,2
1570181840873926,0,0,0,-1,0,0,-1,-3
1570181840882987,-1,-2,-2,0,0,-1,-2,1
1570181840882987,-1,0,-2,-1,-1,-1,-3,-1
1570181840897814,-2,-1,-3,-2,0,2,1,3
1570181840897814,1,-1,0,0,-1,-1,-2,-1
1570181840898762,0,-1,-1,0,1,-1,0,-3
1570181840898762,0,0,-3,0,-1,0,0,1
1570181840919706,-1,0,0,1,-1,-1,0,0
1570181840919706,2,1,0,-1,-1,-3,-2,-4
1570181840921784,0,-2,-4,-1,0,-2,-2,-1
1570181840921784,0,-1,-1,0,-2,-1,1,2
1570181840933985,1,-1,0,-2,0,1,0,2
1570181840933985,-2,2,0,0,-1,1,-1,-3
1570181840942687,0,-1,1,-1,-1,-1,-2,-1
1570181840942687,0,-2,-1,0,-1,-1,2,0
1570181840957855,-1,-1,-1,1,-1,-1,-1,-3
1570181840957855,-1,-1,0,1,-1,0,-1,0
1570181840958603,0,0,0,-3,-1,1,-1,2
1570181840958603,-2,-2,-1,-1,-1,-1,-3,-2
1570181840979775,0,0,-2,-2,-1,1,2,4
1570181840979775,0,-1,-1,-1,-1,0,0,1
1570181840981650,0,-1,-1,-1,0,0,-1,-1
1570181840981650,-1,1,0,0,-2,1,4,17
1570181840993779,-2,0,-2,0,0,-1,-1,-1
1570181840993779,4,0,0,-2,0,0,0,2
1570181841002484,1,-1,-3,1,-2,-1,1,2
1570181841002484,-2,-2,0,0,-1,-3,-2,-10
1570181841017614,-2,-1,-1,0,-1,-3,-1,-5
1570181841017614,-1,-1,0,-1,1,0,-1,1
1570181841018611,0,-1,1,0,-1,0,0,2
1570181841018611,1,0,0,0,1,-1,-1,-3
1570181841040410,0,-1,0,-1,-1,-1,0,0
1570181841040410,-1,0,-1,-2,-2,-1,-3,-10
1570181841041508,0,-1,-1,-2,-1,-1,0,4
1570181841041508,0,-2,-1,-1,-3,-1,-2,-3
1570181841053347,0,-2,-1,-1,-1,-1,0,-1
1570181841053347,0,-1,-1,1,-1,-1,0,5
1570181841062762,-1,1,0,-1,-1,0,-1,-7
1570181841062762,-4,0,-3,-1,-2,0,-2,-9
1570181841076424,6,0,0,-1,-1,-2,-2,13
1570181841076424,-3,0,1,1,0,-2,-2,0
1570181841085270,-1,-1,0,-1,-1,0,-2,-10
1570181841085270,0,-1,-1,0,0,-1,-2,-4
1570181841100290,-1,-1,-3,-2,0,1,1,2
1570181841100290,-1,-3,-1,-3,-1,1,-1,-2
1570181841101899,0,0,0,1,1,-1,-1,2
1570181841101899,1,-1,1,-2,0,0,4,1
1570181841113195,-1,3,1,1,0,-2,-1,-5
1570181841113195,1,-2,-3,0,-2,1,-5,-7
1570181841122195,0,-1,0,1,-3,-4,-1,6
1570181841122195,4,-2,-1,-1,-1,-1,1,13
1570181841137299,-7,-3,0,0,5,1,1,-19
1570181841137299,3,0,-1,-2,1,3,5,5
1570181841139118,0,1,0,0,-5,-2,4,4
1570181841139118,0,2,-2,-3,-3,-4,-4,2
1570181841160139,-4,-2,-1,-1,-8,-5,-5,-2
1570181841160139,3,0,-1,2,2,1,3,7
1570181841161319,-2,0,0,-2,6,3,-12,-13
1570181841161319,2,-1,2,1,1,1,3,2
1570181841182246,3,0,-3,-3,-2,-1,-1,8
1570181841182246,-4,-1,-4,4,10,4,3,-1
1570181841184110,0,2,4,1,10,6,8,2
1570181841184110,-3,-3,-5,-2,-16,-9,-3,-3
1570181841197961,2,-4,-5,-10,-21,-10,-7,5
1570181841197961,-10,-2,0,-5,-11,-8,-7,-6
1570181841199149,0,3,-3,2,3,1,3,-4
1570181841199149,-3,2,12,10,17,8,2,-11
1570181841219989,14,11,6,8,15,9,9,19
1570181841219989,-7,-8,5,3,7,1,0,-9
1570181841221053,-1,7,2,-3,-16,-10,-8,-9
1570181841221053,3,-6,-8,-9,-8,-4,-1,9
1570181841241845,-15,-23,-18,-6,-14,-5,4,-21
1570181841241845,3,-12,-10,-2,6,3,-9,10
1570181841249823,-2,-1,0,0,5,4,12,-7
1570181841249823,1,9,11,4,3,-1,-3,-1
1570181841257031,0,12,2,1,3,1,-18,-3
1570181841257031,12,26,1,0,9,0,-2,1
1570181841264036,0,-21,2,-1,-17,-5,-1,19
1570181841264036,-8,-21,-12,-8,-11,-6,-8,-3
1570181841279748,-7,2,9,3,7,2,8,-13
1570181841279748,-4,-7,7,3,-1,-1,-3,-7
1570181841281739,12,33,0,-12,0,1,10,11
1570181841281739,1,19,-4,4,8,4,13,-6
1570181841302688,3,-17,-4,7,11,7,4,5
1570181841302688,-3,-10,20,5,-9,-4,-1,4
1570181841304319,-10,-15,-7,3,6,4,-10,-6
1570181841304319,-6,10,-1,-6,-7,-11,-15,-19
1570181841315732,-4,-4,-18,-7,-5,-9,-39,-12
1570181841315732,6,15,-4,-4,-8,-4,12,0
1570181841324743,5,-9,-4,-4,3,3,-1,4
1570181841324743,3,-5,-2,1,4,8,18,1
1570181841339804,12,43,19,6,1,2,22,12
1570181841339804,-6,-8,10,-1,-6,-2,-4,-6
1570181841341574,-20,-37,-21,-3,-5,-4,-1,-11
1570181841341574,4,-5,2,2,7,3,-3,4
1570181841362722,4,6,-3,-9,-2,0,2,0
1570181841362722,7,13,-3,-10,-8,-3,-8,5
1570181841363975,20,30,23,15,5,-1,11,3
1570181841363975,-34,-39,-14,1,2,0,-7,-9
1570181841375568,-1,-9,7,3,-1,-1,0,1
1570181841375568,-4,-3,-16,-5,-1,-5,-14,-8
1570181841385463,8,-1,-6,-8,-3,-1,-8,9
1570181841385463,13,29,3,-4,-1,3,-5,5
1570181841400420,-10,-1,7,6,3,-3,15,5
1570181841400420,-1,-31,-16,-5,-5,-2,12,15
1570181841401576,-6,-18,-4,1,0,-2,-5,-5
1570181841401576,7,20,7,0,-4,-4,-32,-2
1570181841422496,10,22,-8,-5,3,4,33,16
1570181841422496,-2,12,19,11,4,3,-8,3
1570181841424354,-18,-39,-23,-11,-7,-4,-14,-12
1570181841424354,3,0,-6,-4,-1,4,3,2
1570181841436352,1,-4,10,2,-2,-3,-3,-7
1570181841436352,13,34,3,0,3,3,19,3
1570181841444850,-38,-64,-14,1,4,4,-2,-6
1570181841444850,1,6,8,1,-4,-4,1,-1
1570181841460261,18,32,6,4,1,1,5,7
1570181841460261,-4,-18,-7,-6,-2,0,-15,-6
1570181841461258,9,23,8,0,-1,-1,7,-12
1570181841461258,-6,-16,-8,-7,0,2,5,10
1570181841482581,-3,6,11,4,-1,-4,-5,13
1570181841482581,-4,15,-2,1,1,3,10,-4
1570181841484409,-15,-52,-11,1,2,-1,-18,-3
1570181841484409,0,6,-4,0,-3,-1,33,0
1570181841496170,-7,-18,-5,0,-1,1,-4,-2
1570181841496170,6,20,4,-5,-7,-7,3,-5
1570181841505151,22,35,15,4,4,1,-2,8
1570181841505151,-4,-16,-10,-1,3,0,14,1
1570181841527087,-10,-25,-8,-5,-5,5,-3,-3
1570181841527087,1,-2,0,-1,-1,-1,-29,-8
1570181841529073,16,24,12,3,0,-9,-22,-4
1570181841529073,7,8,6,1,0,3,25,13
1570181841542075,3,1,2,0,-5,-7,-29,-11
1570181841542075,-2,-14,-10,-2,1,3,13,-6
1570181841544042,-22,-8,-3,-4,-3,-1,-4,5
1570181841544042,11,6,0,-6,2,5,-6,4
1570181841556113,-12,-18,-7,-5,-5,-6,15,0
1570181841556113,19,1,-6,-1,-5,-7,-9,5
1570181841565046,7,42,5,4,9,7,26,6
1570181841565046,-11,-25,1,1,-1,-8,-31,-8
1570181841579943,-15,-14,-3,-5,-11,-4,-2,2
1570181841579943,-13,-15,3,1,-6,-2,0,9
1570181841581933,64,50,1,-1,-3,-3,5,20
1570181841581933,-46,-32,-8,-3,1,-3,-3,3
1570181841601891,-40,-7,-4,-6,7,15,2,4
1570181841601891,-3,-13,5,11,3,-1,3,-6
1570181841603879,-13,20,12,4,6,17,10,-6
1570181841603879,60,19,-3,-3,-11,-22,-10,12
1570181841616062,6,-1,-1,1,0,-3,-7,6
1570181841616062,-50,-15,-7,-3,-1,0,26,17
1570181841624833,9,-7,-2,-4,-5,-5,-22,3
1570181841624833,-9,3,12,6,1,-3,-11,-3
1570181841639918,30,27,3,-1,2,2,-1,2
1570181841639918,-27,-20,-5,-2,2,5,13,-10
1570181841641779,0,0,-1,3,-1,-1,13,-14
1570181841641779,36,26,-11,-11,-5,-5,-24,-4
1570181841662770,-23,-36,4,6,5,-1,-2,-27
1570181841662770,65,25,-5,-5,-1,4,-1,-3
1570181841663716,-42,-9,2,0,-4,-1,17,5
1570181841663716,17,16,4,6,3,5,-6,-38
1570181841675683,-58,-23,-11,-6,-3,-4,-7,7
1570181841675683,10,6,-4,-7,-3,-5,-2,-24
1570181841684708,-15,-15,-5,-4,-1,2,17,-22
1570181841684708,-16,-8,7,5,2,1,-16,11
1570181841699831,54,27,1,-1,2,7,18,-3
1570181841699831,-22,-14,0,0,-1,-6,-26,-10
1570181841701621,34,8,-15,-10,-7,-13,-9,-9
1570181841701621,4,7,7,8,12,8,18,0
1570181841722876,-20,-28,-8,-6,-11,-6,-6,-8
1570181841722876,2,16,9,4,3,5,11,9
1570181841724243,2,0,2,2,7,3,-4,10
1570181841724243,-32,-27,-9,-5,-4,-5,-6,-8
1570181841736561,4,8,3,3,2,-5,-23,-3
1570181841736561,-20,-7,2,-2,-2,2,18,0
1570181841744926,16,-2,-10,-4,-3,0,-2,-6
1570181841744926,45,22,6,0,-5,-3,-2,10
1570181841759463,-48,-13,3,2,3,1,11,-8
1570181841759463,26,16,7,4,0,7,-1,22
1570181841761455,-56,-38,0,5,1,-6,-2,-21
1570181841761455,-57,-29,0,2,4,19,42,-18
1570181841782625,113,53,-15,-14,-14,-17,-31,4
1570181841782625,-14,-14,4,6,8,3,-25,7
1570181841783406,19,16,0,-1,-3,5,25,20
1570181841783406,-21,-6,0,-2,-3,-2,-4,5
1570181841796547,-18,-9,10,10,5,5,33,6
1570181841796547,9,5,-10,-6,-2,-1,-21,-20
1570181841805336,-1,-3,-2,-6,-6,-12,-36,-14
1570181841805336,17,12,0,1,-3,-1,6,-1
1570181841820398,-30,-21,-4,-2,-3,-8,-1,-41
1570181841820398,15,7,0,3,1,-4,13,13
1570181841821295,-20,-6,1,-2,-1,1,-11,6
1570181841821295,-13,-7,-1,2,2,6,0,3
1570181841842427,18,18,1,-1,0,1,7,3
1570181841842427,-19,-15,2,0,-2,-9,3,-8
1570181841844233,17,22,-6,-4,-2,7,14,3
1570181841844233,5,-5,-5,-1,-2,-5,-14,2
1570181841856351,-3,-6,4,3,6,-3,-4,10
1570181841856351,-3,-4,-5,-5,-1,8,-12,-8
1570181841865179,-5,-1,5,2,0,-7,5,15
1570181841865179,1,3,2,-2,-3,3,5,5
1570181841879139,8,2,-2,0,-1,0,19,5
1570181841879139,-7,-4,-5,-2,-2,-7,-9,4
1570181841886130,1,1,-1,-6,-15,-4,9,-9
1570181841886130,-13,-13,-11,-3,7,-10,-31,-16
1570181841902152,-5,-3,-6,-3,-10,-5,-21,-8
1570181841902152,9,2,6,11,9,7,56,33
1570181841904074,0,2,4,1,-11,5,-19,-7
1570181841904074,14,14,6,6,45,9,-5,6
1570181841916260,-2,-2,5,-3,-15,-6,35,23
1570181841916260,-8,-12,-17,-15,-7,12,-24,-12
1570181841925510,-3,0,3,-5,-37,-4,9,-3
1570181841925510,-5,-6,-6,6,29,-10,-34,-10
1570181841947956,12,10,9,22,20,16,11,5
1570181841947956,-1,-1,-6,-22,-39,-11,4,-5
1570181841949066,-2,4,9,19,68,-10,-2,9
1570181841949066,4,7,9,10,5,12,13,-2
1570181841961966,9,4,0,6,42,33,15,10
1570181841961966,-15,-13,-14,-19,-36,-25,-20,-22
1570181841963915,1,-1,-3,-1,-20,6,-31,5
1570181841963915,-9,-10,-10,-7,-5,-15,41,-1
1570181841976020,1,3,5,5,6,-12,-28,-6
1570181841976020,5,4,1,-9,-20,4,27,6
1570181841984857,4,3,2,3,15,12,28,14
1570181841984857,-1,5,5,1,-9,-10,-43,-22
1570181841999022,-2,-13,-20,-4,52,40,13,18
1570181841999022,-3,4,15,4,-89,-63,-95,-40
1570181842005810,-2,-1,-1,-7,-19,-18,43,11
1570181842005810,7,21,-13,-4,13,27,-7,19
1570181842022811,-3,-32,16,-3,-21,-4,32,-14
1570181842022811,-10,-40,-8,12,49,7,-15,26
1570181842023756,-4,-9,-9,7,15,13,18,-8
1570181842023756,22,28,-16,-13,-22,-6,8,20
1570181842035846,-3,2,25,3,-21,-6,-10,-6
1570181842035846,1,-9,10,16,42,16,18,7
1570181842044755,-17,-17,4,-4,-16,-6,-4,-19
1570181842044755,-8,-10,-18,-9,-10,3,22,-10
1570181842058818,30,86,-27,-15,-10,-9,-26,17
1570181842058818,-1,-1,4,3,11,9,16,9
1570181842066644,-7,-1,38,7,8,-5,-24,-14
1570181842066644,-20,-34,-3,0,-15,0,7,-53
1570181842082798,-18,-16,-13,-6,-17,-21,-46,-18
1570181842082798,12,23,-4,3,16,9,23,6
1570181842083599,43,54,1,-7,1,3,-9,26
1570181842083599,-6,-15,-3,-7,-15,-6,25,11
1570181842096559,-5,-9,-12,-14,-20,-10,-17,-11
1570181842096559,-33,-50,36,29,30,12,20,32
1570181842104842,11,9,-22,-5,1,-3,-8,-24
1570181842104842,3,12,47,7,-12,0,6,8
1570181842119654,-13,5,-6,5,9,7,8,34
1570181842119654,0,3,-16,-8,7,2,0,-35
1570181842126484,14,-12,-12,-3,-2,-2,-7,17
1570181842126484,16,31,-8,-7,-9,-7,-24,-38
1570181842142537,-24,-60,-15,-5,-3,-2,-8,9
1570181842142537,0,35,13,1,5,4,-4,-18
1570181842144432,-15,-21,-6,5,-1,3,10,-11
1570181842144432,1,5,-20,-9,-4,6,0,-12
1570181842165375,0,16,17,0,-7,-11,7,-20
1570181842165375,8,1,4,3,6,6,26,10
1570181842166555,2,9,-14,1,3,-4,-25,-8
1570181842166555,-3,3,9,5,-1,0,-8,38
1570181842179480,14,7,20,6,-2,-3,-6,-15
1570181842179480,12,7,-15,-3,7,5,13,2
1570181842186364,-30,8,-14,-16,-13,-5,2,13
1570181842186364,-33,-16,25,12,2,2,6,-44
1570181842202385,50,-28,-12,-1,-5,-3,-7,33
1570181842202385,-3,11,-21,-14,-4,-5,7,-23
1570181842204270,8,-6,8,3,6,5,-7,24
1570181842204270,-16,-9,-9,-2,-6,-7,-8,19
1570181842225278,3,17,2,4,6,-2,-7,-6
1570181842225278,-4,-2,5,3,5,5,-11,-10
1570181842226519,2,19,7,-1,-1,-6,10,-14
1570181842226519,20,-29,-12,-2,-5,1,9,34
1570181842239302,-13,1,-1,-2,-5,-3,-7,-10
1570181842239302,23,13,0,0,1,1,11,16
1570181842246161,-17,-22,0,0,-2,0,-28,-7
1570181842246161,-6,-2,-5,-3,-3,-9,-11,-9
1570181842262123,-13,-9,-10,-6,-4,2,1,-18
1570181842262123,3,20,11,3,-1,4,11,7
1570181842264115,-8,-26,-5,0,4,3,4,0
1570181842264115,17,7,3,-1,-1,-2,7,13
1570181842285060,-12,-5,-6,-2,-1,3,33,6
1570181842285060,-2,0,-11,-8,-1,-2,-33,1
1570181842286162,-12,6,9,2,2,-1,-18,-31
1570181842286162,6,-10,-5,1,0,-1,9,20
1570181842299201,-9,-1,-1,0,-2,0,6,-12
1570181842299201,5,8,0,-2,0,-2,5,-6
1570181842306148,7,-6,2,4,3,3,0,14
1570181842306148,-4,0,-5,-1,2,3,17,-3
1570181842322090,1,12,9,-3,-3,-11,-35,1
1570181842322090,-3,-12,-9,-5,-2,6,28,1
1570181842324258,0,4,6,0,-1,0,-17,-3
1570181842324258,5,7,2,3,0,0,13,9
1570181842344892,0,1,1,1,0,0,-2,-2
1570181842344892,-7,-5,-4,-2,-1,-7,-19,2
1570181842346888,0,-1,0,2,21,7,17,5
1570181842346888,6,3,-2,-4,-15,1,5,6
1570181842359864,-7,-3,2,2,-8,0,-16,-14
1570181842359864,-4,-4,-5,-2,-4,-10,0,2
1570181842366242,5,-1,-4,-6,-15,-9,-4,1
1570181842366242,0,-2,4,4,30,12,17,8
1570181842382832,-6,-4,-2,-2,-7,-8,-30,-18
1570181842382832,2,2,-2,-7,-17,-9,-23,3
1570181842383806,8,3,-1,-2,-2,0,9,15
1570181842383806,-9,-4,-3,-16,-65,-22,-11,-7
1570181842404962,8,8,8,33,101,29,2,7
1570181842404962,-12,-14,-17,-19,1,0,-8,-11
1570181842406729,-1,-3,-4,-6,-72,-40,45,4
1570181842406729,-3,5,12,29,92,49,-50,-16
1570181842419804,-1,1,2,-14,-57,-27,-11,-3
1570181842419804,0,-2,-2,-6,-20,9,0,4
1570181842425849,7,3,3,15,36,-8,16,9
1570181842425849,-9,-9,-13,-29,-56,-19,14,5
1570181842442636,-1,1,-3,13,81,32,14,28
1570181842442636,-1,0,2,2,-68,-15,46,22
1570181842443629,-11,-11,-15,-23,4,14,-46,-30
1570181842443629,8,4,2,2,-13,-24,-42,1
1570181842464792,-3,0,2,-5,-7,9,31,1
1570181842464792,-1,4,8,13,26,7,22,5
1570181842466576,-4,-4,-2,2,-13,-14,-30,-21
1570181842466576,5,2,2,-2,29,-1,-30,-5
1570181842478631,-6,-10,-12,-12,-19,-6,-12,-7
1570181842478631,4,1,-4,-8,-27,-21,14,25
1570181842487525,2,2,-2,-7,-23,29,18,13
1570181842487525,-3,-2,-1,7,34,-8,22,3
1570181842502496,-10,-4,-2,-5,-23,3,37,-15
1570181842502496,10,9,2,3,16,-12,-96,-34
1570181842503473,3,5,7,6,26,16,12,-14
1570181842503473,-1,-2,4,8,1,7,14,21
1570181842524413,14,37,-41,-21,-28,-13,-16,11
1570181842524413,-7,-8,51,12,8,3,-22,-50
1570181842526407,-6,-27,-16,0,-9,-5,-16,15
1570181842526407,6,10,-1,-2,-2,1,10,-30
1570181842538543,1,-5,14,11,-2,-2,0,7
1570181842538543,5,16,-20,-10,17,18,20,17
1570181842547360,-1,6,2,-2,0,-3,10,3
1570181842547360,-7,-8,-1,-2,-16,-1,-2,5
1570181842562527,2,0,-7,-2,-2,-1,-13,-11
1570181842562527,4,27,6,2,0,-7,-15,-9
1570181842564309,4,-35,22,8,13,4,31,8
1570181842564309,3,2,-11,-2,2,4,2,1
1570181842585256,-36,-31,13,3,-19,-14,-13,-19
1570181842585256,5,-1,-27,-2,15,8,26,15
1570181842586541,3,35,20,1,4,-2,-7,3
1570181842586541,12,44,0,-5,-10,-3,-10,-1
1570181842598437,-1,-46,13,2,-8,-5,18,-3
1570181842598437,5,-6,-7,5,9,5,5,8
1570181842607232,-5,14,-15,-2,9,2,-16,27
1570181842607232,7,8,23,4,-12,-7,-8,-17
1570181842622293,-33,-4,-20,-13,-8,-2,8,-28
1570181842622293,-5,-9,-15,-8,3,-6,-1,-16
1570181842624148,1,5,16,4,0,5,1,-13
1570181842624148,10,10,5,5,0,7,18,-12
1570181842645131,28,34,4,-3,-2,4,8,18
1570181842645131,-33,-54,7,14,11,3,-3,-21
1570181842646088,33,13,-8,-4,-2,-2,-12,11
1570181842646088,-45,-42,-13,-3,-4,1,-3,-5
1570181842659055,29,26,0,-5,-2,1,16,23
1570181842659055,-17,-23,-1,-1,-1,0,0,8
1570181842668032,-16,11,-6,4,6,4,5,-17
1570181842668032,21,3,19,8,1,-1,5,-6
1570181842682178,12,-12,-13,-5,-9,-9,-10,12
1570181842682178,-1,23,1,0,5,3,10,31
1570181842683988,-16,-13,-24,-4,1,-2,-15,-3
1570181842683988,-13,4,26,6,-2,-2,12,-1
1570181842705135,12,6,5,1,-1,-1,-7,15
1570181842705135,35,9,-3,-3,2,2,-4,6
1570181842706925,-3,-5,-2,0,0,0,12,-9
1570181842706925,-15,-11,-28,-16,-11,-5,-7,-9
1570181842718892,-20,-6,8,6,2,-1,-9,-31
1570181842718892,19,-2,11,6,5,0,10,13
1570181842727876,9,6,-7,-2,-3,0,-7,8
1570181842727876,-3,-10,-9,-7,-2,2,-3,15
1570181842742882,-17,1,1,-1,-2,0,-6,-14
1570181842742882,-4,7,0,1,2,2,-1,-11
1570181842744045,6,-6,6,2,-1,-2,2,17
1570181842744045,2,2,0,0,0,1,7,7
1570181842764934,7,-3,-1,-2,-2,2,-1,15
1570181842764934,-5,0,2,0,-1,-2,-7,1
1570181842766772,-3,-6,6,2,1,-3,1,-8
1570181842766772,5,-2,-3,1,2,0,5,15
1570181842778937,4,-4,-7,-5,-2,0,-2,13
1570181842778937,-9,-6,-7,-2,1,-2,-7,-12
1570181842787711,0,7,6,0,-2,-3,-3,-7
1570181842787711,3,-5,-3,0,-1,-2,0,10
1570181842802740,-5,-2,9,3,1,2,7,-28
1570181842802740,0,8,1,-4,0,0,-8,3
1570181842803669,6,21,2,-3,-1,-1,-5,7
1570181842803669,-2,-32,-9,3,0,-2,-3,3
1570181842824610,-3,-3,5,1,0,0,6,9
1570181842824610,-10,-6,-7,-3,-4,2,24,-8
1570181842826607,-2,1,-11,-6,-1,-5,-25,-18
1570181842826607,9,4,17,5,1,2,7,16
1570181842838730,-1,2,0,1,1,1,-2,-2
1570181842838730,5,-2,2,0,0,-1,-5,0
1570181842847554,-2,-7,-4,-2,-1,2,11,4
1570181842847554,0,3,-5,-3,-2,-3,-1,-1
1570181842862729,2,-6,-3,-1,0,0,3,2
1570181842862729,4,6,2,2,0,-1,-20,10
1570181842864000,-2,-6,1,2,0,-3,8,6
1570181842864000,0,1,-3,-4,-2,0,-3,0
1570181842885448,1,0,0,-1,0,-1,-2,3
1570181842885448,3,6,4,3,-1,0,-2,0
1570181842886707,-6,-10,-1,0,-1,-1,2,-9
1570181842886707,1,0,-3,-3,-1,-2,-5,-1
1570181842898607,1,1,-1,0,-1,0,3,3
1570181842898607,-2,-3,-3,-2,-1,-2,-1,-7
1570181842907395,-6,-8,0,0,-1,-1,-3,-20
1570181842907395,-2,1,-2,-1,-1,-2,4,-7
1570181842922550,-2,1,-1,-1,-2,-1,3,-8
1570181842922550,4,1,1,0,0,-3,-18,7
1570181842928332,-6,-8,0,-1,-3,-1,3,-10
1570181842928332,2,3,-3,0,1,1,0,5
1570181842945329,0,-1,0,1,1,0,-4,0
1570181842945329,-4,-4,-2,-1,0,-2,1,-10
1570181842946383,-2,-2,-1,-1,-1,1,3,3
1570181842946383,-1,2,-2,0,-1,-2,-5,-5
1570181842958374,1,0,1,1,-1,-1,-3,8
1570181842958374,-2,1,-3,-2,-2,0,7,0
1570181842967231,0,-1,-2,0,0,0,-3,3
1570181842967231,-5,-2,-2,-2,-1,1,0,-2
1570181842982300,-1,-2,1,0,-2,-3,-2,-1
1570181842982300,-6,0,-2,-1,-1,-3,0,-5
1570181842989172,14,5,6,2,-2,2,3,6
1570181842989172,4,3,-3,-2,-1,-2,-1,-4
1570181843005336,-5,-13,-10,-4,-1,-4,-12,-9
1570181843005336,2,0,-1,-2,-2,4,4,1
1570181843006705,-7,2,4,5,1,11,5,18
1570181843006705,-23,-16,-8,-6,-3,-8,-6,-17
1570181843018101,21,17,2,2,0,14,7,18
1570181843018101,5,-8,-4,-7,-7,-21,-7,8
1570181843027233,16,3,3,1,-1,-11,1,9
1570181843027233,-5,2,0,1,-3,7,3,2
1570181843042151,-7,-5,-4,-2,2,1,2,19
1570181843042151,-4,-2,1,-1,0,5,1,8
1570181843049014,-2,1,-2,-2,0,1,1,13
1570181843049014,2,-1,1,1,0,-4,0,16
1570181843065080,-6,-2,3,2,0,-4,-5,-5
1570181843065080,7,4,1,3,5,7,1,-3
1570181843065977,-13,-7,-4,-2,1,-3,15,-21
1570181843065977,5,5,3,1,0,2,-11,-40
1570181843087907,-29,-8,2,0,-5,-6,9,6
1570181843087907,4,0,-7,-4,-6,-1,6,-76
1570181843088907,18,-8,-7,-6,-3,-2,-8,-18
1570181843088907,2,-1,-4,-3,-1,4,-15,23
1570181843102165,11,13,2,-3,-6,-5,3,-47
1570181843102165,27,-2,6,8,5,6,10,-11
1570181843108995,-37,1,9,7,1,-13,-47,77
1570181843108995,-5,-13,-5,-4,0,1,9,0
1570181843124812,-4,0,5,4,4,-3,-8,-8
1570181843124812,105,51,8,1,2,-1,-8,50
1570181843126817,-71,-63,-15,-8,-1,15,8,-42
1570181843126817,90,34,-3,-4,-3,7,0,-25
1570181843147872,34,-20,-6,-3,-8,-23,-13,10
1570181843147872,38,14,7,4,6,-2,16,9
1570181843148747,46,37,9,3,3,2,9,1
1570181843148747,-114,-56,-11,-8,-7,-17,-11,-24
1570181843160715,41,25,9,7,0,10,14,6
1570181843160715,-88,-33,1,6,0,10,-1,9
1570181843169799,14,13,3,1,-1,-9,1,-16
1570181843169799,95,29,3,4,4,-2,3,39
1570181843192675,-56,-23,-8,-4,1,5,-4,-2
1570181843192675,4,-1,-7,-5,3,-3,-7,6
1570181843193680,-22,-2,3,1,-1,10,6,-1
1570181843193680,-45,-2,2,1,0,-2,4,-12
1570181843206809,-4,10,-3,-3,2,4,-1,11
1570181843206809,11,-8,5,6,4,2,0,7
1570181843214618,-14,-29,-27,-12,-5,-3,-2,-12
1570181843214618,42,28,17,2,-1,0,5,13
1570181843220936,-7,-23,-4,1,2,1,-2,1
1570181843220936,-29,-7,-7,-4,-3,-2,1,13
1570181843229671,-18,6,-3,-2,-3,-4,1,-64
1570181843229671,-42,-19,0,4,-4,-9,5,26
1570181843244705,6,16,2,-2,9,35,8,-8
1570181843244705,23,-1,-8,-7,-9,-23,-7,-1
1570181843246488,-9,2,3,-2,-9,-3,3,-1
1570181843246488,46,21,-1,-2,10,-10,1,3
1570181843267427,49,14,5,5,-8,-4,-2,9
1570181843267427,35,12,-6,-5,2,17,7,4
1570181843269028,-46,-19,-6,-7,-12,-3,-3,-2
1570181843269028,-17,-2,5,4,22,5,-1,-5
1570181843281577,-17,-8,-3,4,4,-8,-3,10
1570181843281577,-37,-16,0,-3,6,4,1,-10
1570181843290367,43,33,5,5,2,3,0,11
1570181843290367,1,-15,-7,-8,-11,-3,-3,-4
1570181843305366,47,31,6,0,-1,-4,-4,-31
1570181843305366,-67,-25,-21,-9,-16,-6,-11,-35
1570181843306566,11,-21,-6,3,6,-2,-2,-24
1570181843306566,-32,8,11,10,-2,15,11,-6
1570181843327493,-35,-21,6,-5,-17,-8,-8,-15
1570181843327493,39,21,4,1,-2,-4,-4,16
1570181843329318,28,9,2,0,-4,-3,0,29
1570181843329318,31,14,-1,-2,18,9,0,17
1570181843341267,-48,-13,14,12,13,-2,3,16
1570181843341267,7,6,5,0,-3,17,7,20
1570181843350213,-38,-41,-15,-1,14,-4,-13,42
1570181843350213,19,7,-8,0,-6,-4,-2,0
1570181843365316,-10,-9,-12,-7,-2,17,4,1
1570181843365316,-14,1,-3,-5,-13,-23,-9,-16
1570181843366168,37,19,4,1,1,3,12,51
1570181843366168,4,-1,3,-1,-10,5,6,21
1570181843387357,7,2,-6,-5,6,-10,-7,-7
1570181843387357,-5,-6,4,6,-3,1,-1,5
1570181843389105,3,7,6,1,-5,9,6,-16
1570181843389105,-24,-12,-3,-2,-16,-24,-13,-16
1570181843401072,10,4,-5,1,25,11,8,4
1570181843401072,-2,-3,1,4,10,-8,-4,23
1570181843410046,9,10,9,-2,-12,25,6,-23
1570181843410046,-13,-13,-6,3,16,-3,-1,18
1570181843425009,8,6,-7,-8,-19,-18,-8,-7
1570181843425009,-29,-12,0,1,3,11,0,-5
1570181843426003,48,24,3,-3,1,-2,23,-24
1570181843426003,-53,-27,-5,-5,-8,1,-6,-8
1570181843447281,6,-5,-1,-1,2,2,-3,8
1570181843447281,-5,5,-1,-4,-5,-7,-5,-4
1570181843448946,11,0,0,1,6,-9,-2,18
1570181843448946,11,9,1,-1,-3,2,1,-21
1570181843461225,-13,-5,-2,-2,-5,-4,0,-15
1570181843461225,-8,-5,-1,-2,0,8,7,0
1570181843469888,-2,0,-1,-1,0,-11,-18,-4
1570181843469888,-1,-5,-2,1,-3,5,4,-8
1570181843492825,-7,-3,0,1,-10,-4,2,2
1570181843492825,-12,-2,2,1,3,-1,-20,-5
1570181843494306,-10,-7,-2,-1,5,-3,-3,-6
1570181843494306,13,15,2,0,-1,5,0,-12
1570181843507785,-17,-12,-5,-4,-6,-5,-5,-32
1570181843507785,0,-5,-3,-4,0,1,7,17
1570181843508780,-6,0,3,-1,0,-7,-7,-2
1570181843508780,12,3,3,-1,1,3,1,7
1570181843520973,9,8,-5,-4,-3,-1,1,30
1570181843520973,-4,-1,0,0,-2,-1,4,29
1570181843529766,-10,-4,1,1,3,1,-3,29
1570181843529766,-5,-3,-4,-1,-4,2,5,19
1570181843544739,1,0,-1,-1,-3,0,-4,5
1570181843544739,-5,-4,-1,0,-2,-10,0,-31
1570181843546882,2,1,-2,0,-8,-4,1,-8
1570181843546882,2,-2,0,3,-3,1,0,-20
1570181843567774,3,0,1,-4,-6,-1,-1,-11
1570181843567774,-2,0,1,2,11,3,-1,-20
1570181843568620,0,2,-1,2,10,-1,0,-29
1570181843568620,-6,-3,-1,-3,-6,-6,-6,-20
1570181843580976,1,0,1,1,0,-2,0,6
1570181843580976,3,2,0,-3,-3,-5,1,-13
1570181843590189,0,2,4,0,-2,0,0,-6
1570181843590189,-2,-3,-2,3,4,2,0,-5
1570181843604717,1,2,-2,-4,-1,-3,2,-30
1570181843604717,0,1,0,-1,-3,1,1,-34
1570181843606720,0,-2,-1,1,2,-3,-3,-16
1570181843606720,-3,-2,-2,-2,1,2,-1,2
1570181843627684,4,2,1,0,-4,0,3,17
1570181843627684,1,0,-2,2,10,0,-1,16
1570181843628815,-4,-1,-1,1,-10,-1,-2,7
1570181843628815,-4,-3,-2,-3,-4,3,2,8
1570181843641428,2,0,-3,-1,6,-5,-2,20
1570181843641428,7,0,0,-3,-3,3,2,16
1570181843650408,-1,-1,-1,-4,-8,-3,-1,12
1570181843650408,0,-2,1,1,4,4,-1,7
1570181843664623,1,-1,0,-1,-8,2,0,2
1570181843664623,-4,-1,-2,3,22,0,-2,-5
1570181843671505,-2,0,0,-3,-4,0,-2,0
1570181843671505,-1,-2,-5,-5,-6,-9,-2,-8
1570181843687539,2,-1,-3,-2,-2,-1,0,5
1570181843687539,-1,1,0,-3,-22,-2,1,2
1570181843689307,-3,-2,-1,2,6,12,1,-3
1570181843689307,-3,-2,-2,-4,-6,-2,-1,-2
1570181843701608,-2,-1,1,3,4,-3,2,-1
1570181843701608,-4,-1,0,-2,-4,-2,-1,-8
1570181843710249,0,0,0,1,6,0,2,6
1570181843710249,2,-1,0,-2,-3,1,-2,-2
1570181843725206,-2,-3,-1,-1,2,1,-3,4
1570181843725206,0,1,-1,0,-6,-1,-2,1
1570181843726206,-1,-1,-1,2,0,0,-1,0
1570181843726206,2,0,0,2,5,-1,0,7
1570181843747330,-2,0,1,-1,2,-3,0,-4
1570181843747330,-2,-1,-1,-1,-2,2,0,-5
1570181843749146,2,-2,-1,-3,-3,-4,0,1
1570181843749146,-1,-1,-1,0,7,-3,-3,-6
1570181843761348,0,0,-1,-2,-8,2,1,0
1570181843761348,-3,0,0,7,12,1,-1,-3
1570181843770094,1,-1,-2,-2,-1,-2,0,0
1570181843770094,2,-1,1,1,-1,-1,-1,8
1570181843785272,-1,1,-1,-2,6,3,-3,-8
1570181843785272,-3,0,-1,-2,-8,-2,0,-3
1570181843786107,-3,-1,-1,0,2,-2,0,5
1570181843786107,-1,0,1,0,-1,-7,0,-2
1570181843806983,2,-1,1,3,12,10,1,9
1570181843806983,-2,-1,-1,-3,-12,-5,0,2
1570181843808978,-3,0,-3,2,8,3,0,-4
1570181843808978,-1,1,-1,0,-4,-1,1,-2
1570181843821087,-1,0,-2,0,-2,-5,0,0
1570181843821087,-1,-1,1,0,2,0,-4,-3
1570181843829932,0,-1,1,-4,-2,-2,-1,2
1570181843829932,0,-1,-1,1,-1,2,0,1
1570181843844077,0,-1,-1,2,-2,-3,-2,-1
1570181843844077,-1,0,-1,-1,-6,3,1,0
1570181843850967,2,0,0,0,7,-1,-2,0
1570181843850967,0,0,-2,-2,-10,-1,0,0
1570181843867939,1,-1,0,-1,1,0,-1,1
1570181843867939,-1,-2,-1,-3,-1,-2,0,1
1570181843869299,-1,0,-1,0,0,-1,-1,2
1570181843869299,-1,-1,0,-2,-4,0,0,10
1570181843880794,-1,1,-1,0,-2,-3,-3,11
1570181843880794,0,-1,-2,-1,-6,0,-2,6
1570181843889762,-2,-2,-1,0,2,-2,0,-2
1570181843889762,1,0,-1,0,2,1,1,-4
1570181843904985,-2,-2,1,3,2,1,-2,-7
1570181843904985,1,-1,2,-3,4,-1,-1,-4
1570181843906718,1,1,0,0,-8,-2,-1,-5
1570181843906718,-1,-1,-2,-5,-4,-1,-2,-9
1570181843928005,-2,0,-2,0,9,0,1,-4
1570181843928005,-1,0,-2,4,6,0,0,-5
1570181843928660,1,-1,3,5,-1,-4,-1,10
1570181843928660,-1,0,4,-4,0,-1,-1,6
1570181843949659,0,1,-2,-3,-9,-1,2,6
1570181843949659,2,2,1,2,9,-1,1,-3
1570181843951596,-3,-1,-1,-2,-2,-1,-2,-9
1570181843951596,-3,-2,-1,2,-1,0,0,-3
1570181843964744,2,0,1,-1,0,-2,1,0
1570181843964744,6,-2,-4,-4,-10,-4,0,13
1570181843966559,0,-2,-3,-1,-3,-1,2,-3
1570181843966559,-2,-3,-3,-4,-1,-12,-7,-10
1570181843987797,0,1,0,-1,7,7,3,-8
1570181843987797,1,0,-2,0,-7,0,3,1
1570181843988506,2,0,-1,-4,-4,-2,-1,1
1570181843988506,2,-1,0,2,2,-1,-1,-3
1570181844010447,-1,1,-1,1,-3,-2,0,-5
1570181844010447,-1,0,1,-1,3,-1,-2,0
1570181844011600,-2,-3,-2,-6,-2,-4,-2,-5
1570181844011600,0,1,1,2,5,3,1,0
1570181844025448,0,1,2,0,-3,1,0,-4
1570181844025448,-3,-2,-1,0,2,4,-1,-2
1570181844026397,-2,-2,-1,-3,-9,1,-1,-6
1570181844026397,-6,-1,-1,1,9,3,-1,-8
1570181844047714,-3,0,2,3,5,-2,-4,-21
1570181844047714,15,0,-2,-5,-11,-7,2,38
1570181844049336,-11,-1,-1,3,4,12,0,-17
1570181844049336,0,0,0,-3,-7,0,-2,3
1570181844070332,-2,-2,-3,-1,-2,-12,-2,-5
1570181844070332,-1,0,0,-3,2,0,1,-20
1570181844071584,1,0,0,0,-1,-7,-6,-14
1570181844071584,1,-2,-3,-3,-4,7,4,-2
1570181844085245,-2,-2,-2,-3,1,-6,-4,-8
1570181844085245,-3,1,1,3,5,0,1,-21
1570181844086589,2,1,1,-1,0,-2,1,6
1570181844086589,-3,-1,-1,0,-1,-3,-1,-2
1570181844107182,4,-1,0,0,-5,2,0,20
1570181844107182,-8,-3,-1,-1,-2,1,-3,2
1570181844109179,1,0,0,0,2,-1,0,12
1570181844109179,2,0,0,1,1,1,1,10
1570181844130292,0,-1,0,-1,-3,3,1,8
1570181844130292,-3,0,0,0,0,-1,-1,4
1570181844131576,-2,-1,-2,1,-1,2,-3,2
1570181844131576,1,-1,-2,-2,8,0,0,7
1570181844145282,0,0,0,-1,-13,-1,0,1
1570181844145282,-1,-1,-1,-2,0,0,-3,-3
1570181844146150,1,0,0,1,0,0,-1,4
1570181844146150,1,0,-2,0,-1,-1,0,-5
1570181844167284,-2,-2,-3,0,0,0,-1,0
1570181844167284,-1,-2,0,1,0,2,0,5
1570181844169015,-1,-1,0,0,-3,-1,1,7
1570181844169015,5,0,-2,-1,-3,-1,0,7
1570181844189991,1,0,-2,-2,-2,1,0,2
1570181844189991,-5,-1,0,-2,-2,0,-2,-5
1570181844191038,1,0,-1,-3,1,-2,3,3
1570181844191038,-2,1,1,1,-3,0,-2,-4
1570181844204098,0,0,1,-2,-1,-2,0,3
1570181844204098,-2,-2,-2,-1,0,1,-2,-2
1570181844211304,-2,0,-1,-1,-2,-2,-3,-3
1570181844211304,-2,0,-1,1,2,0,-1,-2
1570181844227865,-1,-1,-1,-1,0,1,1,-2
1570181844227865,3,0,0,0,-2,0,1,7
1570181844228957,1,0,1,0,-2,-1,1,-3
1570181844228957,-2,-1,0,1,-2,-1,-1,4
1570181844249803,-2,-2,0,0,1,0,-2,-1
1570181844249803,-6,0,-2,-2,-2,-1,-2,-12
1570181844251801,3,0,-1,0,0,-2,0,3
1570181844251801,-2,-2,0,-1,-2,-1,0,3
1570181844264761,0,0,0,-1,-1,-2,-2,5
1570181844264761,-1,-1,-2,-1,-4,-7,-1,-2
1570181844270758,2,1,-1,0,2,9,2,2
1570181844270758,-1,1,0,-1,0,1,0,-8
1570181844287815,3,0,-1,1,-2,-3,1,5
1570181844287815,-1,-2,1,0,1,-2,-5,-4
1570181844289257,1,-1,-1,-1,0,-3,-2,5
1570181844289257,-2,-2,-1,-2,-1,-2,-1,-11
1570181844309643,1,0,0,2,-1,1,2,0
1570181844309643,-3,0,0,0,-1,3,0,-4
1570181844311634,0,-2,-2,-1,-2,-3,-1,-3
1570181844311634,0,-1,0,0,0,1,0,0
1570181844323637,-3,-2,-1,0,0,0,-3,-6
1570181844323637,-1,0,-2,0,2,0,-1,-2
1570181844332579,-2,-1,0,-1,-2,-2,1,-2
1570181844332579,-2,1,-2,-1,-1,-1,-2,-4
1570181844347587,1,-1,-1,-3,-1,-1,0,2
1570181844347587,1,0,1,0,-1,2,1,3
1570181844348534,1,-1,-1,-1,1,-1,0,-2
1570181844348534,2,0,-1,0,0,-1,0,3
1570181844369638,-3,0,-1,-1,0,0,0,-8
1570181844369638,-1,0,-2,-3,0,0,-1,-4
1570181844371595,1,0,-1,-1,-1,-3,-1,6
1570181844371595,-1,-1,-1,0,-1,0,0,-1
1570181844383683,0,-1,-1,0,0,2,-1,0
1570181844383683,4,0,0,1,-1,-1,1,-1
1570181844392422,-2,-1,-2,0,0,2,0,0
1570181844392422,0,-1,0,-2,-1,-2,-2,-1
1570181844407421,0,0,0,-1,-2,-1,0,4
1570181844407421,1,-1,-1,-2,1,1,0,3
1570181844409374,-1,-2,-1,-2,-1,-3,-2,-6
1570181844409374,2,1,1,2,0,0,3,8
1570181844430371,1,0,0,0,-1,-4,1,1
1570181844430371,1,0,-1,1,-1,3,-3,-5
1570181844431545,-3,0,-1,-2,-1,0,-1,-5
1570181844431545,1,0,0,0,-2,-1,-1,5
1570181844443502,-4,-1,-3,-3,0,2,9,-21
1570181844443502,-2,0,0,0,0,-5,-4,8
1570181844452299,2,1,2,2,0,-2,-13,12
1570181844452299,2,0,0,-1,-1,-1,1,-2
1570181844467470,-4,-1,-1,0,-1,-1,-3,-16
1570181844467470,-2,1,-1,-1,0,0,4,-5
1570181844469212,2,0,-1,0,2,2,1,-4
1570181844469212,1,-2,-2,1,1,0,2,13
1570181844490163,-4,-2,-1,-3,-2,-1,3,-9
1570181844490163,2,-1,-2,0,-1,-2,0,1
1570181844491155,-3,2,1,0,-3,-1,-7,-12
1570181844491155,22,6,4,2,1,2,-17,59
1570181844504335,-2,-2,-2,0,1,0,-1,1
1570181844504335,1,-2,-1,-2,-2,-2,-2,5
1570181844511108,2,1,-1,1,0,-1,5,11
1570181844511108,-12,-5,-2,-3,-4,0,17,-37
1570181844527166,11,4,3,3,2,1,-1,49
1570181844527166,-3,-2,0,-1,-2,-6,-2,8
1570181844529157,-6,-4,-4,-3,0,10,1,-15
1570181844529157,-9,-2,-2,-3,0,-1,7,-41
1570181844550040,3,0,-1,0,0,-3,-3,3
1570181844550040,-11,-3,-3,-4,-4,6,12,-55
1570181844550995,6,-1,0,2,4,2,19,32
1570181844550995,-3,-3,-5,-2,-1,1,0,2
1570181844562961,-5,-1,-2,-1,-3,-1,0,-18
1570181844562961,-22,-8,-5,-3,-4,-5,-2,-65
1570181844578918,-3,-3,-1,-2,-4,-5,-5,-1
1570181844578918,-1,0,-1,-1,0,0,-4,5
1570181844586897,1,-1,0,0,1,2,4,9
1570181844586897,1,1,1,1,-1,1,0,6
1570181844589067,-3,-2,-2,-3,-1,-2,-1,-14
1570181844589067,-5,-1,1,0,-1,-4,-1,-5
1570181844609845,-3,-4,-2,-3,-4,-1,-1,-11
1570181844609845,6,2,0,1,0,1,-2,16
1570181844611832,0,0,1,0,-2,-2,-1,1
1570181844611832,-2,0,0,1,-1,3,-6,-2
1570181844623800,-1,0,-1,0,-1,0,-4,-4
1570181844623800,6,2,0,1,3,2,-1,23
1570181844632783,0,0,-1,1,-2,-3,-2,-3
1570181844632783,-2,-1,-3,-1,-4,-4,-1,-11
1570181844647777,0,-1,-1,0,-1,-2,-3,-2
1570181844647777,2,0,1,-2,1,-2,-5,-2
1570181844648738,1,0,-2,-2,0,1,4,2
1570181844648738,-1,0,-1,0,0,-2,-3,-11
1570181844669929,-1,-1,0,-1,0,-2,-4,-1
1570181844669929,0,-1,0,1,0,0,-7,16
1570181844671676,0,0,-1,-2,-4,-2,-4,-2
1570181844671676,0,-2,-1,-1,0,1,-1,5
1570181844683941,0,-1,0,0,-1,1,-5,5
1570181844683941,1,0,-2,0,-1,0,3,4
1570181844692624,-2,0,1,0,-1,-3,-2,-4
1570181844692624,-1,1,0,0,-1,-2,-2,0
1570181844707579,-6,-2,-1,-2,-1,1,7,-25
1570181844707579,-3,-2,1,0,-1,-2,1,2
1570181844709569,1,-1,0,1,1,-1,-2,1
1570181844709569,-1,1,0,1,1,7,-1,-3
1570181844730516,-3,-4,-1,-2,-1,-8,-3,-10
1570181844730516,-7,-2,-2,0,-1,-7,3,-35
1570181844731615,0,-2,-3,-1,2,17,1,4
1570181844731615,1,0,0,-1,-2,-3,2,0
1570181844743528,-2,0,-1,0,0,1,-2,-2
1570181844743528,3,0,1,0,3,2,1,10
1570181844752467,-3,-1,-2,-1,0,-6,0,-7
1570181844752467,1,-3,0,-1,-1,0,3,-2
1570181844767712,-2,0,0,0,0,1,-1,2
1570181844767712,4,0,-2,-1,-3,-4,-4,11
1570181844769137,-3,-3,0,-1,-1,-3,1,4
1570181844769137,0,0,0,-1,0,-1,-2,-3
1570181844789361,3,1,1,-2,-1,-2,-1,10
1570181844789361,1,0,-2,-1,-2,1,-2,7
1570181844791356,-1,2,0,-1,-1,-4,-3,-5
1570181844791356,0,-1,1,-1,-1,-2,0,-3
1570181844803522,-3,-2,-2,-2,-1,0,-5,-12
1570181844803522,6,3,1,1,1,0,0,8
1570181844812303,0,-1,-1,-2,-2,-2,0,-4
1570181844812303,-1,-1,-1,-1,-2,-4,-2,2
1570181844827599,1,-2,-1,0,-2,2,0,2
1570181844827599,-3,-1,-1,0,0,1,-1,6
1570181844829255,0,-2,-2,0,-2,-5,-1,-3
1570181844829255,1,0,-1,-1,-1,1,1,6
1570181844850335,-1,0,-1,-1,0,-2,0,1
1570181844850335,5,-1,1,1,-1,5,-14,15
1570181844851554,-1,-1,-1,-1,-2,-13,-2,0
1570181844851554,0,0,-1,-1,-3,-6,-1,5
1570181844864157,-2,-1,0,0,-1,2,4,-8
1570181844864157,4,-1,-1,-1,-1,-3,3,6
1570181844872853,2,1,2,1,-2,-5,-5,1
1570181844872853,-1,-1,-1,0,2,22,0,5
1570181844887360,1,1,0,0,0,-5,-5,8
1570181844887360,-3,0,-2,-2,-1,1,-2,-14
1570181844889090,4,1,1,-2,0,3,5,13
1570181844889090,-3,-2,-2,-1,1,-6,0,-6
1570181844910251,1,0,0,1,0,0,0,2
1570181844910251,-5,-3,-1,1,-1,0,3,-6
1570181844911640,-2,-1,-2,-2,-3,1,-2,-4
1570181844911640,0,-1,1,0,-2,-6,-3,-2
1570181844923996,-1,-1,-1,0,0,3,-1,2
1570181844923996,-1,0,0,-1,1,-3,0,4
1570181844932975,-3,0,1,-1,1,0,-1,-10
1570181844932975,2,0,-3,-2,0,-2,0,9
1570181844947117,-3,-1,-2,-1,0,-1,5,1
1570181844947117,8,1,-1,1,1,1,-7,7
1570181844953930,-1,-2,0,-1,-1,3,0,-1
1570181844953930,-3,-1,-1,0,-1,-5,-3,-5
1570181844970096,-1,-1,-1,-1,0,1,2,2
1570181844970096,-2,0,-1,-1,2,11,4,0
1570181844971211,1,-2,-2,-1,-4,-5,2,1
1570181844971211,-2,-2,0,0,0,-3,-5,-6
1570181844992179,-2,0,1,1,-1,-5,-4,1
1570181844992179,-2,-1,1,-2,-1,1,5,-2
1570181844992821,-1,-1,-2,0,0,1,-1,-3
1570181844992821,-2,1,0,-1,-1,0,2,-2
1570181845006775,0,-2,0,-2,0,1,-3,4
1570181845006775,-2,-1,-2,-3,-3,-2,2,-4
1570181845007993,-2,0,0,0,0,-2,1,2
1570181845007993,1,0,-1,-1,-2,-1,-2,-4
1570181845029718,2,-1,-2,0,1,1,2,0
1570181845029718,-1,0,1,0,-1,-6,-3,0
1570181845029718,-1,-2,0,-1,1,-1,-1,-1
1570181845029718,0,-1,0,0,-2,-2,-1,2
1570181845051860,-2,-1,-2,0,1,0,-2,0
1570181845051860,-1,-2,-2,-2,-3,-1,1,6
1570181845052654,-1,0,0,-2,1,0,-1,2
1570181845052654,1,-1,0,0,-2,-1,0,-4
1570181845066623,0,-1,-1,-1,0,-1,-3,-4
1570181845066623,-2,-2,-1,0,0,-1,1,5
1570181845067614,-3,1,-2,0,1,4,1,5
1570181845067614,0,-1,0,-1,-2,5,0,0
1570181845089680,-1,1,0,-1,-6,-14,-2,2
1570181845089680,0,-1,1,-2,-1,-6,-3,-4
1570181845089680,-1,-2,0,2,1,2,0,-11
1570181845089680,1,0,0,0,1,-2,1,-1
1570181845111502,-3,-1,-1,0,0,4,-2,-11
1570181845111502,-1,-1,1,-2,1,1,0,-7
1570181845112500,3,-1,-2,-3,-6,1,2,-1
1570181845112500,0,-1,-1,-2,0,-1,0,3
1570181845135433,1,0,1,0,0,5,1,-1
1570181845135433,-2,1,-1,-1,-4,-17,-4,-4
1570181845135433,-2,-2,-1,0,1,8,-1,-6
1570181845135433,-1,-2,-1,-1,2,3,2,-2
1570181845149397,1,0,1,-1,0,6,2,-1
1570181845149397,-3,-2,-2,-1,-4,-7,0,-4
1570181845150392,1,0,0,0,-4,-25,-8,1
1570181845150392,0,-2,0,0,1,-2,-4,-1
1570181845171636,-1,1,-2,-1,-4,-9,-3,-4
1570181845171636,2,0,-1,-1,-1,8,4,3
1570181845172342,-1,-2,-1,0,3,11,1,-1
1570181845172342,-2,-1,-2,-1,-2,-5,-2,-2
1570181845186590,2,0,0,0,0,1,1,3
1570181845186590,-4,0,0,-1,2,5,-2,-2
1570181845187291,3,0,-2,-2,-1,1,2,-7
1570181845187291,-2,0,2,0,0,-2,-1,3
1570181845209486,1,-1,-2,-1,-1,2,0,0
1570181845209486,0,-1,-1,1,-1,-2,0,-2
1570181845210230,-2,-2,-1,1,-1,-1,-2,-3
1570181845210230,-2,-1,-2,-2,-2,3,0,-1
1570181845232171,-1,1,0,-1,0,-2,-2,3
1570181845232171,-1,-2,-1,-1,0,1,0,-9
1570181845232171,0,1,0,-1,0,1,2,5
1570181845232171,2,0,1,3,3,-8,-2,1
1570181845247141,-2,-1,1,0,0,0,-1,-1
1570181845247141,0,0,1,0,-1,-2,0,2
1570181845247141,-2,-1,0,-1,0,3,-1,-3
1570181845247141,-2,-2,-1,-3,-6,-12,-4,-3
1570181845269226,2,-1,0,0,2,3,2,0
1570181845269226,1,0,2,0,0,5,0,4
1570181845277118,0,0,1,0,2,2,-1,1
1570181845277118,-2,1,-1,-2,1,-4,0,2
1570181845292130,-3,-2,2,0,1,6,-1,-5
1570181845292130,1,0,-3,-1,-1,-4,0,5
1570181845292130,-1,-1,0,-1,0,-1,0,1
1570181845292130,0,0,-1,1,0,0,-1,-1
1570181845306975,1,0,0,0,1,0,0,2
1570181845306975,-2,0,0,0,0,2,-1,-1
1570181845307468,-3,-1,0,0,0,-2,-2,-4
1570181845307468,-2,0,0,0,0,6,2,-1
1570181845329106,4,0,-2,-1,0,-2,-1,5
1570181845329106,2,0,-1,2,1,0,2,13
1570181845329925,-3,0,-2,0,-1,-1,-1,-4
1570181845329925,2,-1,0,-1,-1,4,1,0
1570181845352033,-2,0,-3,-1,-3,-3,0,-3
1570181845352033,0,-1,0,-1,-2,-1,-1,-2
1570181845352860,1,-1,1,0,-1,2,-1,1
1570181845352860,0,0,-1,0,1,3,1,0
1570181845374794,-3,-2,-3,-2,-6,-13,-6,-5
1570181845374794,-2,-1,-1,0,1,-2,-4,-4
1570181845375853,-3,-1,-2,-1,-2,0,1,2
1570181845375853,-2,0,-1,-1,1,-3,-2,-3
1570181845388762,1,0,-1,1,-1,5,2,2
1570181845388762,0,0,-1,0,0,-1,-1,-5
1570181845389752,-2,-1,0,0,1,-5,-1,-3
1570181845389752,-3,0,1,-2,-1,0,0,-2
1570181845411869,3,0,1,-1,1,0,-1,0
1570181845411869,2,-2,1,0,-2,-1,1,9
1570181845412701,-1,0,-1,0,1,3,2,6
1570181845412701,-3,-1,0,-2,-4,-4,-3,-6
1570181845426868,-2,0,0,0,2,-1,0,1
1570181845426868,-2,-1,-2,-1,-1,0,-4,-10
1570181845427873,0,-1,0,-2,0,0,1,2
1570181845427873,-1,-1,-3,-1,1,2,-1,0
1570181845448594,0,0,1,0,2,-2,0,2
1570181845448594,-1,-1,-1,-1,-1,-1,-1,-5
1570181845449591,1,0,1,0,-1,1,-1,2
1570181845449591,0,0,-2,-1,1,0,0,-1
1570181845471534,-1,-1,-2,-2,-1,-1,1,1
1570181845471534,1,-1,-1,0,-1,-1,1,3
1570181845472530,-5,-1,-1,0,-2,1,-1,-5
1570181845472530,0,-1,2,1,-1,2,0,-1
1570181845486801,-1,-2,-1,-1,-2,-1,-1,3
1570181845486801,0,-1,0,-2,0,-1,1,6
1570181845487492,1,0,-1,-2,0,-1,-2,-5
1570181845487492,0,0,0,0,-1,2,1,0
1570181845509469,-2,-2,0,-2,0,-1,0,-1
1570181845509469,-3,1,0,-1,0,1,0,-3
1570181845510428,1,0,-3,0,-2,-1,-1,-4
1570181845510428,0,-1,-1,0,-2,-2,0,2
1570181845531492,-1,0,1,-1,-1,-1,0,0
1570181845531492,-4,-2,-1,-3,1,1,1,-3
1570181845532376,0,0,1,0,0,-1,2,-1
1570181845532376,0,1,0,0,1,-1,-2,-1
1570181845546538,0,0,-1,-1,-1,-2,0,0
1570181845546538,-2,0,0,-1,0,3,-2,-14
1570181845547787,2,-2,-1,-1,-2,0,-3,-8
1570181845547787,-2,-1,-2,-1,0,-2,0,2
1570181845569535,0,1,0,1,-1,2,-1,-7
1570181845569535,0,1,-1,0,-1,0,-1,1
1570181845570270,-1,0,-1,0,0,-1,0,2
1570181845570270,-1,-1,-1,-2,-2,-3,-1,-3
1570181845600266,0,0,-2,-2,-1,3,-1,-1
1570181845600266,0,-1,-2,0,-1,-2,0,-2
1570181845600266,0,0,-1,1,-1,-2,-1,1
1570181845600266,1,-1,-1,0,0,1,0,2
1570181845606181,0,-1,-2,-1,-1,-1,1,2
1570181845606181,0,-2,0,1,-1,0,0,2
1570181845614619,3,0,-1,-2,0,0,0,7
1570181845614619,-2,0,1,0,0,9,1,-2
1570181845629159,-1,0,-1,-1,1,-6,0,-1
1570181845629159,2,1,2,1,-1,0,-1,4
1570181845630184,-2,-1,-2,-1,0,-2,-1,-4
1570181845630184,-1,1,-1,-1,-1,-2,-2,-2
1570181845652052,-2,-1,-1,-1,0,0,-1,-1
1570181845652052,-2,0,-2,-1,-1,-1,2,2
1570181845659203,-5,-1,1,0,1,-1,0,-8
1570181845659203,4,-2,-2,-1,-1,-1,-3,2
1570181845666061,-3,-1,-2,0,-1,0,-3,-1
1570181845666061,1,1,0,-1,-1,-1,0,2
1570181845673999,-2,0,0,0,0,2,-1,-2
1570181845673999,-1,-1,0,1,0,-3,-1,0
1570181845688951,-1,0,-1,-2,-2,-1,0,2
1570181845688951,-1,-2,-1,1,0,1,-3,-2
1570181845689950,-1,-1,-1,0,-2,-2,-6,-4
1570181845689950,-2,0,-2,-1,-2,-4,3,1
1570181845711938,1,1,-1,0,-2,-1,-1,6
1570181845711938,2,1,0,0,1,-1,4,9
1570181845712748,1,0,-1,0,-3,-2,-1,2
1570181845712748,-2,-1,1,2,0,-1,-3,-4
1570181845734876,-1,-2,0,-1,1,2,0,-5
1570181845734876,-2,-2,-3,0,-1,-1,-2,-4
1570181845735827,-1,0,-1,-1,1,0,0,1
1570181845735827,-4,-2,-1,1,1,1,1,-1
1570181845748791,2,0,0,1,-1,-1,0,0
1570181845748791,0,0,0,-1,0,-1,-1,2
1570181845749847,0,0,-2,-3,0,1,0,0
1570181845749847,-1,-2,0,-2,0,-1,-2,-3
1570181845771908,-2,0,-2,1,0,-1,1,-3
1570181845771908,-4,-1,0,1,-2,-1,1,0
1570181845772830,-1,-2,-3,0,-1,1,-1,-1
1570181845772830,1,1,2,0,-2,-6,-2,1
1570181845785692,-1,-3,-1,-1,0,3,-1,-1
1570181845785692,3,-1,-2,-3,-1,0,1,8
1570181845793671,-2,0,1,1,-1,0,2,1
1570181845793671,-1,0,-2,-1,0,1,-1,-1
1570181845809629,-1,-1,0,0,-1,-1,-2,-1
1570181845809629,-3,-2,-1,-2,0,11,-3,-7
1570181845809629,0,0,-1,0,0,-3,2,1
1570181845809629,-1,2,-1,-1,0,0,-2,-5
1570181845831616,0,-2,1,-3,0,0,0,1
1570181845831616,1,0,0,-1,2,-1,-2,-7
1570181845832581,-2,-2,-2,-1,-2,0,-1,2
1570181845832581,0,0,-1,0,-1,1,2,1
1570181845845583,0,-1,-2,-1,-1,-1,1,9
1570181845845583,0,-1,-1,0,-1,-2,-2,-10
1570181845854508,-1,-2,1,-2,0,0,-1,0
1570181845854508,0,-2,0,-2,-3,-2,1,1
1570181845877502,-3,0,2,0,-1,0,0,-4
1570181845877502,1,-1,-2,-1,-2,-3,2,4
1570181845878444,2,0,-1,0,-1,1,-1,1
1570181845878444,-2,0,-2,0,1,1,0,-6
1570181845891409,-1,-1,-1,-1,1,-2,0,-19
1570181845891409,-1,0,1,-1,-1,-3,2,-11
1570181845892409,-2,1,-1,-2,-1,0,1,-6
1570181845892409,1,-1,0,1,0,1,0,6
1570181845914348,1,0,-2,0,-1,-2,-2,6
1570181845914348,-1,-1,-1,0,-3,-3,-1,4
1570181845915708,0,0,0,0,-2,0,-1,6
1570181845915708,-2,-2,1,-1,-1,-2,-2,0
1570181845929432,0,-1,0,-1,-2,-5,-1,5
1570181845929432,-4,-2,-1,-2,2,8,-3,-9
1570181845930307,-1,-1,-2,-2,-5,-14,-6,-7
1570181845930307,0,0,0,1,2,1,4,10
1570181845951344,0,0,2,0,0,-1,-1,2
1570181845951344,-2,1,-1,-1,-1,-3,0,3
1570181845952248,-2,-1,0,-1,0,2,-1,-1
1570181845952248,-4,0,-2,1,-1,0,-2,-9
1570181845975330,-1,1,0,-1,-1,0,0,2
1570181845975330,1,-1,-1,-1,1,0,0,5
1570181845975330,2,0,0,0,0,1,1,2
1570181845975330,0,0,-1,-2,-1,-2,0,0
1570181845989156,0,1,0,0,-2,3,0,3
1570181845989156,-2,-1,0,0,-1,-2,-1,-4
1570181845990145,1,0,1,-1,2,0,1,6
1570181845990145,1,-2,0,-1,-1,-2,-2,-1
1570181846011095,1,0,-1,0,0,0,-3,-4
1570181846011095,-1,0,0,0,1,-2,-2,-2
1570181846012775,1,-1,-1,0,0,-1,-1,0
1570181846012775,0,1,-1,0,-2,2,-1,6
1570181846035067,-2,-3,-2,0,0,3,2,-2
1570181846035067,1,0,-1,-1,-2,-2,-1,2
1570181846035067,1,-2,0,-1,0,5,0,-3
1570181846035067,1,-2,-1,-2,-4,-15,-5,0
1570181846048987,-1,0,0,0,-1,-4,0,1
1570181846048987,2,0,-1,-1,-2,-2,3,10
1570181846049985,-3,0,-1,0,0,-2,-1,-5
1570181846049985,2,1,-3,-1,0,4,1,-1
1570181846071926,0,0,0,-2,-2,1,1,2
1570181846071926,-2,-2,-1,0,-1,-5,-1,-2
1570181846072924,2,-2,-1,-2,0,7,3,3
1570181846072924,-1,0,0,-1,1,2,0,-3
1570181846094864,-2,-1,-1,-1,0,-1,-2,-5
1570181846094864,-2,0,0,-2,-1,0,-1,0
1570181846095862,-1,-1,-2,-1,-1,-1,0,0
1570181846095862,0,0,0,1,0,2,-1,-3
1570181846109570,-6,-1,-1,1,1,-1,-1,-10
1570181846109570,8,1,0,0,0,-1,-1,12
1570181846110177,0,1,1,-1,0,-1,-2,-1
1570181846110177,-1,-2,0,-1,-1,1,-2,-2
1570181846131624,0,1,0,-1,-1,0,0,0
1570181846131624,-4,0,-1,0,-1,2,0,-5
1570181846132670,0,-1,1,0,-1,0,-2,-1
1570181846132670,-1,-1,-1,0,-1,-5,-1,2
1570181846154597,1,0,-1,-2,0,8,0,-1
1570181846154597,0,0,0,1,0,-4,1,-2
1570181846155596,-2,-1,1,0,-1,-1,0,-2
1570181846155596,-2,-1,-1,-2,0,-1,1,-2
1570181846168687,0,-1,-1,-1,-1,-3,1,0
1570181846168687,0,1,0,-1,0,-1,-1,-2
1570181846170185,-1,-1,-2,-1,-1,1,0,-1
1570181846170185,0,0,1,0,1,0,-1,-2
1570181846191691,0,-2,-1,-1,-1,-4,-3,6
1570181846191691,1,-1,1,-1,-1,-1,0,3
1570181846192786,-1,0,-2,-3,-1,-2,1,0
1570181846192786,-1,-2,-1,0,0,1,1,2
1570181846214794,0,-1,-1,0,-1,-1,-1,2
1570181846214794,-6,-2,-1,1,-3,0,1,-8
1570181846215748,4,-1,-1,0,-2,-1,0,6
1570181846215748,-2,0,-1,-2,1,1,-1,-3
1570181846228770,-1,-2,-1,2,-2,0,1,-3
1570181846228770,-1,-1,-1,-1,-1,-5,-2,-3
1570181846229809,-2,-2,0,0,-1,3,0,-2
1570181846229809,-1,-1,0,-2,-1,1,-1,-1
1570181846251861,-1,-1,-1,0,-1,0,-1,0
1570181846251861,-1,-2,-1,-1,0,2,1,0
1570181846252860,-1,1,-1,-1,-1,-3,-2,-1
1570181846252860,-1,0,0,-1,0,-1,-1,-2
1570181846274950,1,1,-1,-2,-2,-2,0,2
1570181846274950,-2,-2,-1,-2,-1,1,-4,-17
1570181846275834,3,1,0,0,1,2,4,11
1570181846275834,-1,0,-1,1,-1,0,1,-1
1570181846289063,-1,-1,0,-2,1,-2,-2,-7
1570181846289063,-2,-1,-1,1,-1,-1,-2,0
1570181846289686,-3,-1,0,1,0,-2,-2,-7
1570181846289686,1,-1,-1,-2,-1,0,0,-1
1570181846311679,2,0,-1,0,-1,-1,2,2
1570181846311679,1,-2,-1,-2,0,0,-2,3
1570181846312622,-1,1,-1,-1,1,9,2,-3
1570181846312622,-3,-3,-1,-2,-5,-15,-5,-2
1570181846335221,-2,-1,0,-1,-1,-5,-2,-2
1570181846335221,0,0,0,0,-1,1,-1,1
1570181846335456,-4,-2,0,-1,0,0,0,-3
1570181846335456,1,0,1,0,1,3,0,-2
1570181846349235,-2,-1,-1,0,0,1,1,-2
1570181846349235,0,0,-2,-1,0,-3,0,1
1570181846350182,-2,0,-1,2,-3,-4,-2,-3
1570181846350182,-1,-1,-2,0,-1,2,0,7
1570181846371299,-1,-2,0,-1,-2,-4,-2,-4
1570181846371299,6,2,1,0,2,7,5,24
1570181846372230,0,-2,-1,-1,0,-6,-2,-5
1570181846372230,1,0,0,0,0,1,1,1
1570181846395166,1,0,0,-1,1,2,0,1
1570181846395166,-4,-2,0,-1,-3,-1,-1,-8
1570181846395166,0,-2,0,-2,-3,-3,-1,-1
1570181846395166,0,-1,-1,-1,1,0,0,1
1570181846409128,-2,0,0,0,-1,-1,-1,-3
1570181846409128,2,-1,-1,0,-1,-2,0,-3
1570181846410202,0,-2,-1,-2,2,-3,-2,-2
1570181846410202,-1,-1,-1,0,0,0,0,-4
1570181846431070,0,-1,-1,-1,1,0,-1,0
1570181846431070,-1,0,0,1,1,0,-2,-6
1570181846432133,-3,-1,-1,-2,-2,-4,-3,2
1570181846432133,0,1,-1,-1,-1,2,1,0
1570181846455011,1,0,-2,-2,-1,5,-1,-6
1570181846455011,1,-3,-1,0,-2,-1,2,6
1570181846456004,-1,-1,0,0,-1,-4,0,-15
1570181846456004,-1,-2,-1,0,1,18,3,-10
1570181846468968,0,-1,-2,0,0,-10,-1,-1
1570181846468968,-5,-2,-1,-2,0,0,1,-4
1570181846470016,-1,1,-2,-2,-1,0,1,5
1570181846470016,0,0,1,-1,1,1,-1,7
1570181846491908,0,0,0,-1,-1,2,2,8
1570181846491908,-3,-1,-2,0,-1,0,-3,-2
1570181846491908,1,-1,-2,0,0,-1,1,7
1570181846491908,0,0,1,3,0,-4,-1,-2
1570181846513985,-1,-1,-1,-1,2,2,-2,0
1570181846513985,-2,-1,0,-3,1,-5,-1,0
1570181846521827,-4,0,-1,0,-1,2,-2,-8
1570181846521827,-1,-1,-1,-1,-2,-6,-6,-15
1570181846528994,2,2,1,0,1,-1,3,7
1570181846528994,-2,0,0,1,-2,3,0,0
1570181846536787,0,-1,0,-1,0,1,-3,-3
1570181846536787,0,1,-2,0,-1,-3,1,3
1570181846551747,0,-2,0,0,-3,-5,-1,0
1570181846551747,0,-1,-1,0,0,6,1,-4
1570181846552770,1,0,0,1,0,2,3,4
1570181846552770,-2,-1,0,1,-2,-3,0,-3
1570181846574563,1,0,-1,-1,-2,-5,-4,1
1570181846574563,-3,-1,-2,0,-1,2,-1,-4
1570181846575466,2,0,1,-1,-1,-1,0,4
1570181846575466,1,-1,0,-1,-1,0,0,1
1570181846588547,-1,-2,-2,1,-2,2,-1,-5
1570181846588547,-2,-1,-2,0,-1,-5,-1,-1
1570181846596412,-1,0,-1,-1,-1,0,-1,3
1570181846596412,0,0,-1,-2,-1,0,0,1
1570181846611420,0,1,0,0,-1,-1,-1,1
1570181846611420,-6,-2,-2,0,-1,-1,-6,-24
1570181846612368,1,-1,0,-1,-2,-10,1,2
1570181846612368,2,0,2,-1,0,-8,0,3
1570181846634311,-2,-1,0,0,-1,2,0,0
1570181846634311,1,2,1,0,-1,-2,-2,-2
1570181846635307,-2,-1,-2,-2,-1,1,-1,-3
1570181846635307,-2,-1,-2,-1,-3,3,-2,-1
1570181846648273,-2,-3,-2,0,2,-1,0,-5
1570181846648273,2,1,1,-1,-1,-2,-1,0
1570181846656375,2,-2,-1,0,0,0,0,8
1570181846656375,0,0,0,-1,-1,-1,0,5
1570181846671211,-1,0,-1,0,-1,0,-1,0
1570181846671211,2,0,0,-2,-1,0,0,8
1570181846672317,-2,-1,-1,-2,-1,-2,-2,-9
1570181846672317,-2,-1,0,0,1,-3,-2,-4
1570181846695147,-1,0,0,-2,-1,2,1,1
1570181846695147,3,-2,-3,-2,0,-3,3,5
1570181846695315,-4,-1,-1,-1,0,-3,-3,-5
1570181846695315,3,0,0,-2,2,5,5,7
1570181846708112,0,0,1,-1,0,0,2,11
1570181846708112,2,-2,-1,0,-2,-3,2,7
1570181846716090,-1,0,-2,1,1,3,1,1
1570181846716090,-1,-1,-2,0,-1,-1,-1,-1
1570181846732048,-1,-2,-1,-1,-1,-2,-2,-5
1570181846732048,0,0,-1,-1,-1,-1,0,4
1570181846732048,0,0,1,0,0,-4,1,4
1570181846732048,-5,-2,-2,-1,1,3,-3,-10
1570181846754987,2,0,-2,0,0,0,1,6
1570181846754987,-2,-1,0,-1,0,-1,-1,-2
1570181846755985,0,0,-1,0,-2,-2,-1,-4
1570181846755985,-1,-1,-1,-1,-1,0,0,3
1570181846767952,0,1,-2,0,-1,-1,-2,-4
1570181846767952,1,-1,-1,0,0,1,0,-1
1570181846776928,0,0,0,0,0,1,-1,3
1570181846776928,1,-1,-1,-1,0,-4,0,5
1570181846791888,-3,0,-2,-2,-1,-1,-1,-7
1570181846791888,-2,-1,0,-1,-1,-1,-3,-5
1570181846791888,2,0,0,0,0,3,4,11
1570181846791888,-1,0,-1,0,-1,-1,-1,1
1570181846814827,-1,-2,-1,0,0,1,-2,-5
1570181846814827,-1,1,-1,-1,0,-1,-2,-2
1570181846815824,1,0,-3,-2,-1,1,-1,0
1570181846815824,-1,0,-2,1,0,-2,-3,-10
1570181846828789,0,0,0,0,-2,-6,-3,3
1570181846828789,1,0,-1,-1,2,21,7,-1
1570181846836981,2,-2,-1,-1,-3,-11,-4,-2
1570181846836981,1,-1,-1,0,-2,-2,0,1
1570181846851728,0,-1,0,-1,1,-4,-2,-5
1570181846851728,-3,-1,0,1,-1,-4,-3,-4
1570181846851728,-3,-1,-2,-1,0,5,0,-3
1570181846851728,0,-1,-1,-1,0,0,0,-1
1570181846875059,-1,-2,1,-1,1,-1,-1,-1
1570181846875059,0,-3,-1,-2,-2,-5,-2,5
1570181846875665,-3,-1,1,0,0,1,-2,-5
1570181846875665,0,-2,-1,-2,-2,-4,0,4
1570181846897606,-1,0,-1,1,0,4,-1,-4
1570181846897606,1,0,0,-2,0,-3,-1,1
1570181846897606,0,-1,-1,0,0,-1,0,-1
1570181846897606,-3,0,0,0,2,0,-1,2
1570181846911645,-1,-1,-2,-2,-1,1,0,-8
1570181846911645,-2,-1,0,-2,-4,-15,-5,-1
1570181846912566,-2,-1,-1,-1,2,14,5,-6
1570181846912566,1,1,-1,0,-1,0,-1,2
1570181846934506,1,-2,0,1,-1,1,2,3
1570181846934506,1,0,1,1,-2,-2,0,-2
1570181846935504,-1,-1,-1,-1,-1,-2,-1,-1
1570181846935504,0,-2,1,0,0,-1,0,-2
1570181846957445,-2,-2,-1,0,0,0,0,2
1570181846957445,-1,-1,0,-1,-2,0,-2,-6
1570181846958443,3,1,0,-1,0,-2,0,8
1570181846958443,2,0,-2,-2,-1,1,3,6
1570181846971408,-3,1,0,0,0,-4,-4,-6
1570181846971408,0,-1,-1,0,2,1,2,2
1570181846972404,-1,0,-1,-2,0,-2,-2,2
1570181846972404,-3,0,-1,-1,0,-2,-3,-5
1570181846994346,2,1,0,-3,-1,2,0,1
1570181846994346,0,-1,-3,-1,1,1,1,2
1570181846995502,-1,-2,-1,0,-2,-3,-3,-5
1570181846995502,-2,1,1,-1,-2,-3,0,-10
1570181847017310,-4,1,-1,0,-1,-2,-2,-7
1570181847017310,5,1,1,2,0,-5,0,9
1570181847019279,-1,0,0,0,-1,-2,-2,-3
1570181847019279,0,-2,-1,0,-3,-2,-1,-1
1570181847031248,2,-1,0,0,-2,1,1,5
1570181847031248,-4,-1,0,0,-1,1,-1,-5
1570181847032245,1,-3,-1,0,-1,-2,1,1
1570181847032245,2,-1,1,0,0,-1,-1,0
1570181847054187,-2,0,-1,-1,-1,-2,0,-6
1570181847054187,3,-1,-2,0,-1,5,2,3
1570181847055829,0,1,2,-1,1,0,0,-8
1570181847055829,-1,1,0,1,1,2,1,8
1570181847077125,1,-2,-2,-2,1,0,1,-1
1570181847077125,-1,0,0,-1,-2,-3,-1,-2
1570181847078122,-1,0,0,-1,-1,0,0,-3
1570181847078122,0,0,-1,-1,0,1,0,-1
1570181847091138,0,-1,-2,-1,-1,-2,-1,2
1570181847091138,-3,-1,0,0,1,-1,-2,0
1570181847092693,0,-1,0,0,-1,-6,-3,0
1570181847092693,0,-1,-2,-2,1,4,-1,-2
1570181847115023,0,0,-1,1,-1,0,-1,2
1570181847115023,-1,0,-1,-2,-1,1,0,-6
1570181847115023,3,-2,0,0,-2,-2,0,7
1570181847115023,-2,-3,-1,0,-3,-1,-2,-4
1570181847136965,0,-1,-1,-1,-1,1,-1,1
1570181847136965,0,-1,-2,-1,-1,1,-2,1
1570181847138107,-2,0,0,-1,0,0,-1,-2
1570181847138107,-3,0,0,0,-1,1,1,0
1570181847151925,5,-1,-1,0,-1,1,1,0
1570181847151925,-5,0,-2,0,-2,-2,-2,-18
1570181847151925,2,1,0,-1,1,-2,2,4
1570181847151925,-1,-1,-1,-1,-2,-1,-3,-1
1570181847174864,-1,0,-1,-1,0,0,-1,1
1570181847174864,0,0,0,0,1,-1,-1,-3
1570181847175861,-1,1,-3,0,-1,1,-1,-2
1570181847175861,3,0,0,0,-2,-5,1,2
1570181847196806,-6,-2,-1,-2,0,5,0,-4
1570181847196806,0,-1,0,0,-2,-1,0,3
1570181847197803,-1,0,-2,-1,0,1,-3,-2
1570181847197803,-3,-1,0,-1,0,-1,0,-2
1570181847211766,1,-1,-2,0,-1,-1,0,6
1570181847211766,0,-1,1,-2,-1,-1,-1,2
1570181847218896,-1,-1,-1,0,1,-1,0,5
1570181847218896,0,-3,-1,-2,-1,-1,-1,-4
1570181847234985,-3,-2,-1,0,1,-2,-2,-4
1570181847234985,0,1,0,1,1,-1,-1,1
1570181847235718,-3,-1,-2,-2,-2,3,1,-3
1570181847235718,4,1,-1,0,-1,-1,0,4
1570181847257642,1,0,1,-1,0,1,0,3
1570181847257642,1,-2,-1,1,-2,-2,2,7
1570181847257642,-4,-2,1,1,-1,-1,-1,-5
1570181847257642,0,1,-1,1,0,-3,-1,-1
1570181847271605,-1,1,2,1,1,3,2,9
1570181847271605,1,-1,-1,-1,-2,-1,0,0
1570181847272602,1,0,-1,-1,-2,-1,-3,1
1570181847272602,-3,-1,-1,0,0,0,-2,-3
1570181847294543,0,0,0,0,-2,-4,-2,5
1570181847294543,-2,1,0,-2,0,0,-2,-5
1570181847295541,3,0,-1,-1,1,0,1,6
1570181847295541,1,-1,0,-2,-1,-2,-1,0
1570181847324520,-2,-2,-2,0,0,-1,-2,-4
1570181847324520,0,-2,0,-1,0,-1,-1,3
1570181847325461,-2,-1,-2,-1,-2,0,-2,-5
1570181847325461,-1,-1,-1,-1,-1,1,-2,-2
1570181847331500,1,0,-1,-2,-2,-2,-1,-6
1570181847331500,-2,0,1,2,-1,-1,-2,-3
1570181847332461,0,1,0,-1,-2,-1,0,0
1570181847332461,0,-2,-1,1,-1,0,0,1
1570181847354385,-4,0,-1,1,-1,-1,-1,-5
1570181847354385,1,-1,0,1,-1,0,1,3
1570181847355381,-4,2,-2,-1,0,-3,-2,-8
1570181847355381,4,1,1,0,-1,2,2,8
1570181847377358,-2,-1,0,-2,-3,-4,-1,-3
1570181847377358,-1,0,-1,-1,0,4,0,-4
1570181847378320,0,-2,-2,-1,0,-1,1,1
1570181847378320,0,0,-1,-1,1,0,1,7
1570181847391300,0,-1,0,1,0,-2,-3,-3
1570181847391300,1,-2,-3,-1,-2,-2,1,2
1570181847392282,1,-1,0,-1,0,-1,1,0
1570181847392282,-2,1,-1,-2,1,-1,-2,-6
1570181847414224,-1,-2,-1,-1,-1,0,-1,-1
1570181847414224,0,1,1,-1,0,-1,-1,0
1570181847415266,-2,0,0,-1,-1,-1,-2,-2
1570181847415266,-1,-1,-2,-1,-2,0,-1,-2
1570181847437254,0,0,0,0,1,-2,-1,-3
1570181847437254,1,1,-1,-1,0,-1,0,1
1570181847438160,-1,-1,-1,0,-1,0,-1,-2
1570181847438160,-1,-1,-1,-1,0,0,-1,1
1570181847452410,-1,-1,0,-1,0,0,3,5
1570181847452410,0,0,-1,-1,-1,1,-2,-1
1570181847452410,-1,-2,-1,-1,-1,-1,0,0
1570181847452410,-1,-2,-2,-2,-1,-1,-3,-4
1570181847475060,1,-1,-1,-1,0,-1,-1,1
1570181847475060,-3,0,0,0,-1,-1,0,-3
1570181847475060,-1,-1,-2,-2,0,0,-1,0
1570181847475060,0,-1,0,1,-1,-1,-2,1
1570181847497173,0,-1,0,-3,-1,-2,-1,-3
1570181847497173,-2,-1,-1,-1,-3,-1,-4,-13
1570181847498999,2,0,1,0,-1,1,3,3
1570181847498999,0,-1,0,0,1,-2,0,-1
1570181847510967,-1,-1,-2,-3,-2,-1,0,-4
1570181847510967,-2,-1,-2,0,-2,-4,-2,-1
1570181847519944,-1,-1,-2,-1,-2,1,0,2
1570181847519944,0,-1,2,0,-1,1,-2,0
1570181847534903,2,0,-1,1,-3,0,1,1
1570181847534903,-1,-2,-1,0,-1,-1,1,6
1570181847536898,-2,-1,0,-1,-1,-3,-1,-3
1570181847536898,-1,-1,-1,-1,-2,-1,-1,-6
1570181847556843,0,0,-1,1,-1,-1,0,1
1570181847556843,0,-1,-1,-1,1,1,2,2
1570181847558838,0,-2,0,0,-1,-2,-5,-5
1570181847558838,-3,1,-2,0,1,0,1,-3
1570181847570957,1,-1,-2,-3,0,-1,-2,0
1570181847570957,-2,0,-1,0,0,1,1,3
1570181847579783,3,0,-1,1,0,0,7,22
1570181847579783,-3,-1,0,-1,-1,-3,-3,-4
1570181847594748,0,0,1,-1,1,1,0,4
1570181847594748,-2,0,-1,0,-2,-7,-3,-5
1570181847596737,-1,0,-2,0,1,8,0,-5
1570181847596737,1,-1,-1,1,-2,-1,-2,3
1570181847617696,1,-1,1,0,-1,5,2,1
1570181847617696,-1,0,-1,-2,0,-2,-1,-3
1570181847619675,2,-1,0,-1,-1,-4,-2,-9
1570181847619675,-2,0,-1,-2,0,0,0,-5
1570181847631648,-1,-2,-2,0,-2,-1,-1,-2
1570181847631648,1,0,0,0,1,2,1,1
1570181847639626,-1,-1,-2,2,-3,-3,-3,-2
1570181847639626,0,0,-1,-2,0,1,2,4
1570181847654620,-1,-1,-1,-2,-3,-2,0,-1
1570181847654620,-1,-1,-2,-1,-1,2,-2,1
1570181847656578,-2,-1,0,-2,1,0,-2,-3
1570181847656578,-1,0,-1,-3,-1,0,0,-4
1570181847677634,1,0,-1,1,-3,-1,0,1
1570181847677634,-3,0,0,0,-1,0,-1,-1
1570181847678520,-2,-1,1,0,0,-1,-1,-1
1570181847678520,0,0,-1,1,0,-1,-2,-1
1570181847690491,-5,-2,-2,-2,0,-2,-6,-18
1570181847690491,1,0,1,-2,-2,0,0,3
1570181847699468,-1,1,-1,0,0,-3,-1,-4
1570181847699468,0,-1,-2,0,-2,0,1,3
1570181847714422,-2,-1,1,0,1,1,0,-4
1570181847714422,-5,-1,0,-1,-2,-6,-5,-5
1570181847716417,3,0,1,-2,1,7,1,5
1570181847716417,-2,0,0,1,-1,-1,-2,-3
1570181847737361,0,-2,-3,-1,-2,-1,1,2
1570181847737361,1,-1,0,0,1,1,1,0
1570181847739376,0,-1,-2,-2,-3,-3,-1,1
1570181847739376,0,-1,0,-2,0,-2,0,1
1570181847751327,-3,0,-1,2,2,-1,-1,-2
1570181847751327,0,0,-1,-1,0,0,1,-1
1570181847760305,-2,-1,0,-2,-1,-2,-1,-1
1570181847760305,-1,-1,0,-1,0,0,0,1
1570181847774334,0,1,1,-2,-1,-1,-3,0
1570181847774334,1,-1,-1,-2,0,0,-1,-1
1570181847781246,-1,0,-1,0,-1,0,-1,-4
1570181847781246,-1,-2,-2,0,0,-1,0,1
1570181847797202,-1,1,0,0,0,-3,-1,-8
1570181847797202,2,-1,-1,-1,-1,-1,-1,-6
1570181847799195,-1,0,1,0,-2,-1,-2,-2
1570181847799195,-1,-1,-1,-1,-1,1,1,0
1570181847820139,4,0,0,-1,-3,-6,-2,5
1570181847820139,0,-1,-2,-1,0,7,1,3
1570181847821137,-3,-3,-1,0,-2,-2,0,-1
1570181847821137,0,-1,-2,-2,-2,-2,0,-3
1570181847835098,0,-1,-1,-2,0,1,0,4
1570181847835098,-4,-1,2,0,0,-1,-1,-2
1570181847836331,-1,0,0,1,1,0,0,-1
1570181847836331,-1,0,0,0,1,-1,-1,-1
1570181847857041,0,-1,-1,-1,0,1,1,5
1570181847857041,2,-1,-1,1,-2,-3,0,4
1570181847859035,-2,-1,-1,-1,1,-1,0,-3
1570181847859035,1,0,1,0,-2,0,-1,-3
1570181847879982,0,-2,-1,0,-1,-1,1,6
1570181847879982,1,2,-3,-1,-1,0,0,-1
1570181847880978,-1,0,-2,0,-1,-1,-2,1
1570181847880978,0,-1,-1,-1,-2,-1,0,-2
1570181847895159,2,1,0,-1,0,2,3,14
1570181847895159,-2,-1,-1,1,-2,-1,0,3
1570181847896936,-2,-1,0,0,0,0,0,-4
1570181847896936,1,-1,-2,-1,-1,-2,0,3
1570181847916924,-3,0,-2,0,0,0,-2,-8
1570181847916924,-1,-1,0,0,-1,-1,-2,-1
1570181847918876,0,1,-1,-1,-3,-4,-2,0
1570181847918876,-2,-2,0,-2,1,2,0,0
1570181847939869,2,-1,0,-1,0,-1,1,-2
1570181847939869,-2,0,0,0,1,-2,0,-1
1570181847941979,1,-1,-1,-2,0,-4,-1,2
1570181847941979,-4,-1,0,-1,-2,1,-1,-3
1570181847954812,-3,-1,-3,-1,-2,-1,-2,-3
1570181847954812,2,0,-1,-3,-1,-1,1,4
1570181847956775,-1,0,0,2,-1,-1,-1,-2
1570181847956775,0,0,-1,1,1,0,1,0
1570181847977890,-2,-1,1,0,2,-2,-2,-2
1570181847977890,0,-1,-1,-1,-2,0,0,3
1570181847978716,1,-3,-1,1,-1,0,-1,0
1570181847978716,0,0,-1,-1,0,-1,-1,-2
1570181847999664,0,0,-1,1,-2,0,1,1
1570181847999664,-1,0,-1,1,1,0,-1,0
1570181848001661,-2,-1,-1,-2,0,-1,-4,-16
1570181848001661,-1,-2,0,0,-1,0,-2,2
1570181848014620,-2,-1,1,-2,-2,-2,-1,-7
1570181848014620,2,0,0,-1,0,-2,0,6
1570181848020608,-1,-1,-2,-1,-1,0,2,-2
1570181848020608,0,-2,0,0,0,-1,-1,0
1570181848037559,1,-1,-1,-2,0,1,0,-2
1570181848037559,1,1,-1,1,-1,-1,-1,-4
1570181848039554,-2,0,0,-1,-1,0,-1,3
1570181848039554,-1,0,-2,1,-2,-2,-1,-2
1570181848059814,2,-1,-1,0,0,0,2,8
1570181848059814,-4,-1,-2,-1,0,-1,-1,-9
1570181848061501,2,0,0,-1,-1,-1,-1,3
1570181848061501,1,-1,1,-1,-1,-2,-1,-1
1570181848074461,-2,-1,-1,0,-1,-2,-3,-4
1570181848074461,-1,0,0,0,2,3,0,1
1570181848081441,1,0,-1,0,0,-1,2,3
1570181848081441,-3,-2,1,-2,2,-2,1,-4
1570181848097397,0,-2,-1,0,-2,-4,-4,-1
1570181848097397,-1,0,-2,-1,-4,-4,-1,-10
1570181848098453,1,-1,0,0,0,5,2,1
1570181848098453,-1,0,-1,0,-2,-1,-2,1
1570181848120338,-2,-1,0,-2,0,1,-2,-3
1570181848120338,0,-1,-1,-1,1,-3,-2,-1
1570181848121343,-1,1,1,0,-2,-2,-3,1
1570181848121343,-1,-1,-1,-1,-1,0,-1,-1
1570181848134486,0,0,-1,2,1,0,0,-1
1570181848134486,-3,-2,-1,-1,-2,-1,-1,0
1570181848141428,-1,-1,-1,-2,0,-1,1,3
1570181848141428,-2,0,0,-1,-1,-2,-5,-7
1570181848157242,1,0,0,-1,0,-1,-1,0
1570181848157242,1,-3,0,0,0,1,1,3
1570181848159309,-1,-1,-1,-2,-2,1,-1,-3
1570181848159309,-2,-2,-1,-1,-2,0,-2,-2
1570181848179181,-1,0,-2,-2,0,0,1,-2
1570181848179181,2,1,-1,0,-1,-1,0,3
1570181848187220,1,-1,-1,-1,-2,-2,-1,0
1570181848187220,-5,0,-1,0,-1,0,-7,-16
1570181848194218,4,1,0,0,-1,0,3,12
1570181848194218,-1,-2,-2,-2,1,0,0,-2
1570181848201167,0,-3,0,0,0,0,-1,0
1570181848201167,0,1,0,-1,1,0,1,-2
1570181848217122,-2,-2,-1,-1,2,1,0,0
1570181848217122,-4,1,0,0,-1,1,-1,1
1570181848219079,0,0,-2,-1,-1,-5,-1,1
1570181848219079,2,-2,-2,0,1,3,2,6
1570181848240029,-3,0,0,0,-1,1,-2,-3
1570181848240029,2,-1,-1,-2,-2,0,0,6
1570181848241016,-2,-3,0,-1,-2,-2,0,-3
1570181848241016,0,-1,0,-2,-3,-1,1,6
1570181848253980,-2,-1,-2,0,-1,0,-1,-3
1570181848253980,1,0,-1,-1,-2,-1,-2,-2
1570181848260962,2,-1,0,0,-1,1,-2,3
1570181848260962,1,1,0,-2,-1,-2,2,4
1570181848276928,0,-1,-2,-1,-1,-1,0,-5
1570181848276928,-2,1,0,-1,0,-1,-2,0
1570181848278915,0,0,-1,0,2,0,-1,-2
1570181848278915,1,-2,-1,0,-1,1,1,3
1570181848299861,-1,0,1,-2,-2,-1,-2,-3
1570181848299861,2,-2,-1,0,-2,1,2,17
1570181848301851,-1,0,0,-1,2,0,-2,-1
1570181848301851,-3,-2,-2,0,0,-3,-2,-2
1570181848322799,-1,0,-1,0,-3,0,0,-9
1570181848322799,-1,-2,-1,-1,-1,-4,0,-6
1570181848323793,-2,0,1,0,1,5,1,2
1570181848323793,-3,-2,-1,-1,-2,1,1,-1
1570181848337756,0,-1,-2,-1,1,0,1,5
1570181848337756,0,0,-1,0,-1,-3,0,-2
1570181848338788,-4,0,-1,-1,-2,-3,-3,-5
1570181848338788,0,0,1,-1,-1,-1,1,-1
1570181848359697,-1,-2,-1,0,0,-3,-2,0
1570181848359697,-2,-1,-1,0,0,4,-1,-6
1570181848361694,2,0,-2,-1,-1,-1,0,2
1570181848361694,0,1,-1,0,1,0,0,2
1570181848373666,0,0,-1,-1,-2,0,1,1
1570181848373666,-1,-1,-1,0,1,-2,-3,-3
1570181848382715,2,-2,-1,-1,-1,-2,1,8
1570181848382715,3,0,-1,2,-1,1,2,22
1570181848397608,-3,-1,-1,-1,-2,0,2,-4
1570181848397608,-1,-1,-1,0,1,2,0,-2
1570181848398593,-2,0,-1,-2,-2,1,1,-4
1570181848398593,0,0,0,1,-1,-2,-2,-5
1570181848419541,0,-1,1,-1,-1,-4,-2,1
1570181848419541,-2,-1,-1,-1,0,0,1,-1
1570181848421531,0,0,-1,-1,-1,-3,-3,2
1570181848421531,0,0,-1,-1,-2,-2,-1,-2
1570181848433508,-2,0,-1,-2,0,0,-1,0
1570181848433508,1,-1,-1,-1,-2,0,-1,-3
1570181848442475,-1,-1,-1,-1,-2,-2,-1,-6
1570181848442475,-1,-1,-1,-2,0,0,-2,-5
1570181848457437,-2,-1,1,1,0,0,0,-3
1570181848457437,-1,0,-1,-1,-1,0,1,1
1570181848463421,-2,-2,-1,0,-1,-3,0,0
1570181848463421,-1,-1,-2,-2,-1,-1,-3,-4
1570181848479391,0,-2,0,-2,-1,0,-2,-6
1570181848479391,-1,-1,0,0,1,1,1,1
1570181848481372,-2,0,-1,0,1,1,-1,-4
1570181848481372,-1,-3,-1,-2,-1,-1,2,-6
1570181848493344,1,1,-1,-3,-1,-1,-3,1
1570181848493344,-2,-1,0,-1,-1,-1,-1,-2
1570181848502879,1,-1,-1,0,-1,-1,-1,0
1570181848502879,-4,-1,-1,-1,0,-5,-1,-1
1570181848517275,-1,-1,0,2,0,1,-1,2
1570181848517275,4,0,-2,-1,-1,3,3,5
1570181848519303,0,0,-1,-1,0,1,0,-1
1570181848519303,-1,0,-1,-1,-1,0,-1,0
1570181848540216,-1,-1,0,-1,0,-2,-2,-1
1570181848540216,1,-1,-1,-1,-1,-4,0,-2
1570181848541291,-4,0,-2,-1,0,1,0,-1
1570181848541291,0,-1,0,0,0,2,0,0
1570181848554178,0,0,-1,0,-1,1,-2,0
1570181848554178,-2,0,2,1,0,0,-4,-10
1570181848562157,1,-2,-3,-3,-1,0,-1,3
1570181848562157,0,-2,-1,0,-2,-1,-1,-5
1570181848577116,-1,0,-1,0,-1,0,2,1
1570181848577116,-1,-1,-2,-2,-1,-1,-1,-1
1570181848579220,-1,-1,0,-1,-1,0,0,-4
1570181848579220,2,1,0,-1,-1,1,-1,-1
1570181848600060,-1,-3,-2,-1,-2,-4,-1,-1
1570181848600060,-1,1,0,-1,0,-1,-2,-4
1570181848601053,-1,-1,-1,1,-2,1,3,-1
1570181848601053,-3,1,-1,0,0,-1,-2,-1
1570181848614018,-2,0,0,-2,1,0,1,0
1570181848614018,-1,-2,-1,0,-2,-3,0,2
1570181848623012,-1,-2,-1,1,0,-2,-2,-3
1570181848623012,0,0,-1,0,0,1,1,0
1570181848637146,-1,-1,1,1,-3,-1,-1,-2
1570181848637146,-1,0,-1,-2,-1,-2,-1,1
1570181848638952,2,2,1,0,0,1,1,15
1570181848638952,0,0,-1,0,-1,0,-1,4
1570181848659906,0,0,-1,-2,0,0,-3,-11
1570181848659906,-1,-1,0,-2,1,0,-1,-1
1570181848661888,1,-1,1,1,-2,0,-1,-4
1570181848661888,1,-1,-2,-1,-1,-1,-2,-3
1570181848673856,0,-2,-1,0,0,2,1,6
1570181848673856,-3,-1,-1,-1,-1,-2,-2,-4
1570181848682838,4,0,0,-2,-1,-3,2,6
1570181848682838,-2,0,0,0,-1,-2,-2,0
1570181848697440,0,0,-2,0,-1,1,0,-1
1570181848697440,-1,-1,-1,1,-1,-1,0,-2
1570181848698793,-3,-2,-2,0,1,0,-2,0
1570181848698793,-1,-1,0,1,-1,-1,0,1
1570181848719736,0,-1,-2,-1,0,0,-1,1
1570181848719736,0,2,0,-1,0,-2,-2,4
1570181848721789,-3,1,-1,-2,-1,-6,-1,-4
1570181848721789,-2,-2,-2,-3,-1,3,1,-10
1570181848733702,2,-1,1,0,-1,0,1,9
1570181848733702,-3,-1,1,-1,0,0,-1,-4
1570181848742770,0,0,-1,-2,-1,0,1,3
1570181848742770,1,0,-1,-1,-1,-2,-1,-3
1570181848757678,-2,0,-1,0,1,0,-1,-2
1570181848757678,1,-1,-2,-1,-2,-2,-1,0
1570181848758674,-3,1,0,0,0,1,3,-1
1570181848758674,-2,-1,-1,-1,0,0,-1,5
1570181848779575,-2,0,1,-2,0,-2,-2,-2
1570181848779575,0,-2,1,-2,-3,-6,-2,4
1570181848781569,-1,-1,0,1,1,6,-2,-7
1570181848781569,1,-2,0,-1,-1,-3,-1,0
1570181848802515,2,-2,-1,0,-1,-2,-1,1
1570181848802515,-1,-2,-1,0,-1,1,0,-1
1570181848803511,-2,-1,0,-1,-2,-2,-3,-12
1570181848803511,2,-1,1,0,-2,1,0,7
1570181848817473,0,-1,-1,-1,0,-1,0,11
1570181848817473,-2,0,-2,0,-2,1,0,-7
1570181848819124,-1,-1,0,-1,-2,-1,-2,-3
1570181848819124,0,-1,-1,-1,-1,1,0,-2
1570181848839494,-1,-2,-1,1,-1,-1,0,-5
1570181848839494,3,-1,0,1,1,1,1,3
1570181848841409,-1,-1,-2,-2,2,-1,-1,-6
1570181848841409,2,2,-1,-1,-1,0,2,2
1570181848862352,-3,0,0,-1,0,-1,1,-1
1570181848862352,1,0,-1,-1,1,0,0,0
1570181848863349,2,-1,0,-1,0,-2,-2,0
1570181848863349,-1,0,0,0,1,0,-1,-1
1570181848876314,0,-2,-3,-2,-2,-1,0,-3
1570181848876314,-2,0,0,1,-1,0,0,0
1570181848883295,-1,1,-1,1,-1,-1,-2,-1
1570181848883295,-5,-3,-3,0,-1,-4,-5,-14
1570181848900250,-2,0,1,1,-1,2,0,-3
1570181848900250,-1,-1,-1,-3,-1,0,-2,-2
1570181848901247,0,-2,0,0,-2,-2,0,3
1570181848901247,-2,0,1,-1,-2,-1,-1,-1
1570181848922191,0,0,-1,-1,-1,-4,-3,-1
1570181848922191,-1,-1,-1,0,0,0,-2,0
1570181848924185,0,-2,-2,-1,1,1,3,-1
1570181848924185,0,0,1,0,-1,-2,-1,0
1570181848936162,-1,-1,-1,0,0,-3,-3,2
1570181848936162,1,0,-1,0,-1,5,4,3
1570181848943135,0,-1,-1,-1,-2,-1,-1,-2
1570181848943135,-2,-1,0,1,-2,-1,-1,0
1570181848960089,1,-1,-1,1,0,-1,0,0
1570181848960089,-1,-3,0,-1,0,-2,-1,-3
1570181848961091,0,0,-1,1,-1,-1,0,1
1570181848961091,-2,-1,-2,-4,0,0,2,2
1570181848982256,-2,0,0,-2,0,1,-5,-18
1570181848982256,1,0,-2,-1,-1,-3,0,4
1570181848984028,-2,1,-1,-1,0,-1,-3,-2
1570181848984028,2,0,-1,0,2,-1,-1,2
1570181848996993,-1,-1,-1,-2,-2,-2,-3,-2
1570181848996993,-3,0,0,-1,-2,-2,-3,-4
1570181849003637,-1,-1,0,0,0,-1,0,2
1570181849003637,0,0,0,-1,-1,0,-1,-4
1570181849019933,1,-2,-5,-2,1,3,4,8
1570181849019933,-3,-1,0,0,-1,-2,-2,-3
1570181849021927,-1,-1,-1,-1,-1,-2,-1,1
1570181849021927,-1,-3,-3,-1,0,1,0,1
1570181849042007,0,2,0,-1,-1,-3,-1,-1
1570181849042007,-1,0,-2,-1,-1,1,1,0
1570181849044059,0,0,0,0,0,0,-1,-3
1570181849044059,-1,0,0,-2,-1,0,-3,-17
1570181849056832,-1,-2,0,1,0,0,1,3
1570181849056832,0,0,-2,-1,1,0,-1,0
1570181849063814,-2,0,-1,-2,1,0,1,-2
1570181849063814,-1,-2,-2,-2,-2,-1,2,5
1570181849079778,0,0,1,0,-2,0,0,0
1570181849079778,0,0,-1,0,-2,-1,-2,-1
1570181849081767,-2,0,-2,-1,0,1,0,-2
1570181849081767,3,2,0,2,-1,-1,1,8
1570181849102765,-2,1,1,0,-3,-9,-3,-3
1570181849102765,-1,-2,-1,-1,1,8,4,0
1570181849103709,1,-1,0,-1,-1,-3,0,8
1570181849103709,1,0,1,2,-1,1,-2,-3
1570181849132677,1,-1,-1,-1,0,-1,0,-2
1570181849132677,-1,1,-1,-1,0,-4,0,-3
1570181849133632,-2,-1,-1,0,0,-2,-1,2
1570181849133632,-4,1,0,0,2,-1,-1,-2
1570181849139614,1,-2,-2,0,-1,1,0,5
1570181849139614,-2,-1,0,-2,-1,-1,-1,0
1570181849141708,0,-2,-1,-2,-3,1,-1,-4
1570181849141708,2,-1,-1,0,0,-2,5,21
1570181849162555,-3,0,0,-1,1,1,-1,-2
1570181849162555,0,-1,-2,1,0,-1,0,1
1570181849163548,0,1,1,0,-2,-3,-2,-3
1570181849163548,-1,0,-1,-2,-1,0,-1,-3
1570181849176515,-1,-2,-1,-2,0,2,0,0
1570181849176515,0,0,1,0,-1,-1,-2,-2
1570181849185490,-2,0,-2,-1,0,0,-2,-3
1570181849185490,-2,-2,-1,-1,0,1,-1,-2
1570181849199452,1,0,-1,-2,0,0,3,8
1570181849199452,-2,-2,-1,1,-1,-2,-3,-7
1570181849201446,-1,-1,-2,0,0,-2,-2,-5
1570181849201446,0,-1,1,1,-1,0,-1,0
1570181849222395,-2,-1,-1,0,0,1,-2,-2
1570181849222395,-2,0,0,0,-1,-4,-1,-3
1570181849224385,3,-2,-1,-1,0,4,5,18
1570181849224385,-1,1,0,0,-1,-1,-1,-2
1570181849236354,-2,0,-3,-1,-1,-1,-1,-6
1570181849236354,6,3,1,0,0,-2,0,10
1570181849243382,-2,-2,-1,0,-1,0,-2,-7
1570181849243382,0,0,-1,0,-1,0,-1,0
1570181849267387,-2,0,0,-1,-1,0,-1,-5
1570181849267387,-3,-2,-2,0,0,0,0,-3
1570181849269264,1,0,0,-1,-1,-2,-1,1
1570181849269264,0,1,-1,-1,-1,-2,0,-1
1570181849282275,-1,0,-3,1,0,-2,-2,-3
1570181849282275,5,1,1,-1,-1,1,-9,17
1570181849284226,1,0,-2,0,-1,1,0,4
1570181849284226,0,-3,-1,-1,-2,-2,0,2
1570181849296228,1,-1,0,-2,2,4,-1,6
1570181849296228,-2,-1,-1,-2,-2,-1,2,-8
1570181849305174,-1,-1,0,0,-2,0,-2,-3
1570181849305174,1,-2,-1,0,-1,-1,-1,2
1570181849320167,-1,-1,1,0,-1,-1,2,-4
1570181849320167,-1,-2,-2,-1,-1,-2,1,-4
1570181849321126,-2,0,-2,-1,0,0,-1,-7
1570181849321126,-3,-1,-1,-1,1,0,0,-7
1570181849342074,0,0,0,-1,-2,1,5,-5
1570181849342074,4,0,-1,0,1,-1,-11,8
1570181849344064,-3,-1,-1,-1,-2,-4,-5,-12
1570181849344064,0,1,0,-1,0,0,1,4
1570181849356031,2,0,-2,0,-1,-1,1,4
1570181849356031,-2,-2,-1,0,-2,-1,1,-14
1570181849365133,-3,0,0,-1,0,0,-2,-8
1570181849365133,2,-1,0,-1,0,-1,-4,2
1570181849380272,0,0,2,0,0,-1,-1,-1
1570181849380272,-2,-3,-2,0,-2,0,1,1
1570181849381697,0,1,0,2,-1,-1,-5,3
1570181849381697,-2,0,-3,-1,-1,1,2,-7
1570181849403030,1,0,-1,-1,-1,0,-2,1
1570181849403030,-4,-1,0,0,0,0,2,-5
1570181849403944,1,0,0,-2,-1,-4,1,1
1570181849403944,-2,1,-1,0,-1,0,-1,-1
1570181849415997,-1,-3,0,0,-1,-2,-2,-3
1570181849415997,-1,0,-1,0,-1,-1,1,2
1570181849424689,0,0,-1,-1,-1,0,1,0
1570181849424689,-1,-3,0,0,0,-1,-1,0
1570181849439730,0,-2,-1,-1,-2,0,-3,0
1570181849439730,-2,-2,0,0,-1,-1,1,1
1570181849441613,0,-1,-1,-4,-1,-1,0,0
1570181849441613,2,0,-1,-2,-2,1,1,10
1570181849462632,-2,1,1,1,1,0,0,4
1570181849462632,-1,0,-1,0,0,-1,1,0
1570181849463808,-1,-2,0,1,-1,-1,1,-6
1570181849463808,-2,0,-1,-1,1,0,-1,-3
1570181849476321,-3,-1,-1,-1,0,-1,-3,-4
1570181849476321,0,3,0,-1,-1,0,2,0
1570181849485305,-1,-1,-2,-1,0,0,1,-2
1570181849485305,1,-1,-1,0,-1,-1,2,1
1570181849500320,-1,-2,0,0,0,-3,-4,-2
1570181849500320,-3,-1,-2,-2,-1,-1,-2,-3
1570181849501675,0,-1,0,1,-1,-1,0,4
1570181849501675,0,-1,-1,-1,-1,-1,-3,-1
1570181849522783,2,-1,-3,-2,-1,-1,0,3
1570181849522783,1,-1,-1,0,0,0,0,-1
1570181849523875,-1,-2,-2,-1,1,0,-1,-2
1570181849523875,-2,-1,0,-1,1,0,-2,-5
1570181849535716,1,-1,-1,0,-1,-1,1,3
1570181849535716,-3,-2,-1,-1,0,0,-2,-9
1570181849544734,0,-1,-2,-2,-1,2,1,2
1570181849544734,-2,1,0,-2,-1,-2,0,-5
1570181849559821,-1,1,-2,-1,0,0,0,1
1570181849559821,-6,-3,-1,-1,-1,-2,-4,-8
1570181849561816,4,1,0,-1,-1,1,2,10
1570181849561816,-2,-1,-1,0,-1,0,-1,-5
1570181849582589,0,-1,-1,-1,-2,-3,-2,-4
1570181849582589,-2,1,0,0,-1,2,0,-1
1570181849584375,-2,-1,1,-1,0,-1,-2,0
1570181849584375,1,1,-1,0,-2,-1,-1,-1
1570181849596301,-2,-1,1,1,-1,-1,1,3
1570181849596301,1,0,0,0,1,0,0,2
1570181849605218,-1,-2,-2,0,0,-3,-2,0
1570181849605218,0,-2,-1,-2,0,2,1,0
1570181849620178,-2,-2,1,0,-1,-1,-2,-5
1570181849620178,3,0,2,1,-1,-1,0,3
1570181849622304,-4,-1,1,0,-2,0,1,-4
1570181849622304,1,-2,-3,-2,-2,-2,-1,3
1570181849642693,-2,0,0,2,7,4,0,-1
1570181849642693,1,-1,-1,1,-2,0,2,4
1570181849643689,-5,-2,-2,-5,-10,-6,-6,-11
1570181849643689,-2,1,2,2,1,-1,0,-2
1570181849656672,2,2,2,-3,-3,-2,1,-3
1570181849656672,1,-1,-2,0,1,0,-1,4
1570181849664724,-5,0,-2,0,5,3,3,-8
1570181849664724,13,-1,-1,0,3,2,6,33
1570181849679631,2,-3,-4,1,22,15,4,6
1570181849679631,-9,-4,-5,2,7,-5,-1,-13
1570181849686147,-1,4,6,-5,-45,-20,-2,-2
1570181849686147,6,-5,-2,-17,-16,-4,0,-1
1570181849709382,-10,-10,-19,-12,-15,-5,5,10
1570181849709382,-1,4,-11,-2,16,11,0,-16
1570181849711375,30,20,2,17,25,11,-3,43
1570181849711375,-24,-8,40,20,5,0,7,-42
1570181849724340,20,15,41,27,11,2,9,32
1570181849724340,-3,-12,7,-3,-4,-1,-18,8
1570181849726335,11,-18,-42,-24,-3,4,2,4
1570181849726335,-13,-6,6,8,4,-2,-5,-18
1570181849739302,-4,22,-6,-15,-13,-9,-13,-21
1570181849739302,-12,-5,15,10,-7,-6,5,-24
1570181849746282,-12,-17,-5,-3,5,2,3,11
1570181849746282,35,0,-23,-8,2,2,-6,18
1570181849762347,-43,-32,-14,-12,-10,-6,-6,-39
1570181849762347,17,28,1,-10,-10,-2,4,9
1570181849764236,9,7,17,9,3,4,6,-5
1570181849764236,4,7,-10,-3,-1,3,9,-8
1570181849785181,18,19,10,9,5,0,-2,8
1570181849785181,2,-5,6,3,-2,0,-7,2
1570181849786176,-6,-4,0,0,3,-4,-5,-1
1570181849786176,-11,6,-11,-3,-5,-7,-12,0
1570181849800220,-2,-15,-4,-4,-6,-4,-4,-8
1570181849800220,0,-9,-14,-10,-1,1,2,13
1570181849806121,0,18,12,5,4,6,11,-9
1570181849806121,-8,-9,-4,7,6,6,4,9
1570181849822212,-10,1,6,-2,-1,1,14,-8
1570181849822212,15,9,15,6,-1,-2,16,4
1570181849824371,-2,0,8,3,0,-5,-32,3
1570181849824371,-12,-2,-17,-13,-7,-4,-11,-7
1570181849852000,21,-6,-22,-2,-2,-1,-8,37
1570181849852000,1,-9,-5,2,3,-2,-6,5
1570181849853995,-7,11,5,-3,-4,-5,-8,-15
1570181849853995,-4,-6,8,-1,-6,-5,3,8
1570181849858980,-16,-11,-2,1,-1,1,3,-15
1570181849858980,1,8,1,1,3,7,20,4
1570181849866959,7,-5,-8,-3,1,0,-6,5
1570181849866959,5,12,6,2,1,-7,-14,-11
1570181849881992,1,4,-3,-6,-2,0,8,-3
1570181849881992,-18,0,2,1,-2,-1,-13,-2
1570181849883913,-4,-16,-9,0,1,-1,5,-16
1570181849883913,-2,-5,10,6,2,4,8,9
1570181849904856,1,0,8,6,1,-3,-2,-3
1570181849904856,-10,-2,-5,-4,-4,2,-7,1
1570181849906860,16,21,1,-2,2,5,8,-13
1570181849906860,0,-6,-5,3,3,-2,2,14
1570181849918820,-1,0,-4,-6,-4,0,1,8
1570181849918820,6,4,-5,-6,-5,-3,11,-2
1570181849927798,-22,-10,-2,1,3,4,10,-5
1570181849927798,15,1,3,-3,0,1,-8,6
1570181849942758,-3,1,-1,5,1,-2,3,-10
1570181849942758,-4,-12,3,3,3,0,1,5
1570181849943757,4,3,-4,-5,-5,-7,-3,11
1570181849943757,-7,14,-3,-1,2,8,21,-3
1570181849964704,7,-9,2,-4,-2,-2,-10,6
1570181849964704,14,8,-10,-6,-3,-3,2,1
1570181849966694,-5,-12,-3,-3,0,3,10,-1
1570181849966694,3,3,-4,-4,-4,-2,-1,-8
1570181849978662,1,6,3,7,5,-2,-6,10
1570181849978662,-5,-6,7,7,-4,1,-18,-10
1570181849987714,3,4,-1,-3,-3,-4,10,6
1570181849987714,-12,-11,-4,-6,-4,-5,-31,-7
1570181850002603,-3,11,6,1,-3,4,28,13
1570181850002603,-2,-18,-9,-3,-1,-4,-21,-7
1570181850003597,-13,-6,-3,-1,1,-6,-1,2
1570181850003597,12,1,-1,1,1,10,28,6
1570181850024784,4,16,-1,-2,2,3,-33,-21
1570181850024784,-16,-2,4,2,0,-9,-7,-19
1570181850026534,5,-9,-4,-8,-8,-8,-22,-5
1570181850026534,-18,-17,-7,-3,4,-1,-8,-20
1570181850038504,-8,-5,3,2,0,5,-3,10
1570181850038504,25,13,-10,-2,-1,4,15,2
1570181850047486,-6,9,14,7,2,0,-8,-8
1570181850047486,68,71,9,-1,0,-2,2,-4
1570181850062440,-79,-102,-31,-10,-7,-9,-4,-20
1570181850062440,93,58,5,-2,-2,0,3,-11
1570181850063435,-48,-42,-5,3,4,2,-2,-2
1570181850063435,13,9,3,1,-2,-1,31,36
1570181850084376,33,37,5,1,1,3,-23,-7
1570181850084376,-9,-15,-5,-9,-6,-12,-16,8
1570181850086991,-1,1,5,6,2,5,11,-12
1570181850086991,-64,-52,-7,-1,-2,-7,-26,-18
1570181850098341,11,-6,-3,0,0,-2,45,12
1570181850098341,-13,-8,-1,0,-2,-6,-34,6
1570181850107318,65,42,8,0,3,7,23,29
1570181850107318,-50,-23,-6,-5,-2,-9,-44,-25
1570181850122310,34,36,14,7,0,-1,4,15
1570181850122310,-10,-26,-8,-2,-2,-1,14,27
1570181850124272,8,0,0,2,0,-1,8,-6
1570181850124272,9,-2,-3,-1,0,1,-2,10
1570181850145219,-8,16,-3,-6,-6,-10,-21,-25
1570181850145219,3,0,7,3,8,22,19,11
1570181850146272,-25,-12,-6,-5,-6,-10,-14,-34
1570181850146272,20,-5,-4,0,-3,2,40,-9
1570181850158294,20,21,6,3,-1,1,-23,6
1570181850158294,-4,-4,-4,0,-2,1,24,-13
1570181850167157,-1,-5,-5,-3,-2,-1,-5,3
1570181850167157,28,14,-1,-2,0,2,14,8
1570181850182228,-36,-20,0,1,-1,-7,-22,-7
1570181850182228,-4,8,2,3,3,-1,4,13
1570181850184117,-37,-19,-4,-1,0,1,2,7
1570181850184117,6,11,3,4,0,-4,-19,2
1570181850205057,14,-3,-5,-4,1,7,31,3
1570181850205057,-13,-4,-5,-5,-4,-3,-17,-17
1570181850206052,-5,6,8,7,3,-4,-20,4
1570181850206052,26,16,4,0,-3,-2,-10,-8
1570181850218026,15,-7,-5,-3,-1,-3,-3,6
1570181850218026,-2,5,0,-2,-2,0,0,-15
1570181850227995,-4,-3,0,-2,-2,4,21,10
1570181850227995,-8,-10,1,1,-1,0,3,-1
1570181850242132,23,22,-3,-4,-3,-2,-23,-8
1570181850242132,-19,-21,1,2,0,-4,7,-1
1570181850243952,11,3,-4,-1,2,7,3,6
1570181850243952,-16,5,2,1,0,-2,-5,-8
1570181850264973,24,-4,0,2,2,2,14,28
1570181850264973,-23,-1,0,-2,-3,-4,5,2
1570181850265892,5,-2,1,2,3,9,5,-4
1570181850265892,0,-8,-4,-3,-5,-3,-8,3
1570181850278858,-6,-2,-4,-4,-2,-5,1,-13
1570181850278858,-1,3,1,0,0,-2,-6,3
1570181850287835,12,2,-7,-2,0,2,23,13
1570181850287835,-2,2,0,-2,-5,-14,-4,7
1570181850302796,-7,-2,4,2,1,0,-10,-9
1570181850302796,0,-1,-1,-1,1,-4,-8,1
1570181850304370,9,9,4,3,-1,10,1,-2
1570181850304370,-5,-11,-8,-2,11,0,-10,3
1570181850324787,-9,-4,-1,-4,-20,-4,8,-6
1570181850324787,6,3,2,6,-10,-18,1,7
1570181850326922,-2,-9,-16,-18,-9,-12,-25,-3
1570181850326922,12,16,20,16,15,27,-4,10
1570181850338699,-3,-3,2,5,23,13,27,-2
1570181850338699,-5,-3,-5,11,59,28,17,5
1570181850347673,5,5,1,-9,-53,-55,-66,-6
1570181850347673,1,2,8,16,42,44,41,17
1570181850362675,3,2,7,4,24,0,-15,-6
1570181850362675,-5,-6,-7,-15,-31,-13,13,-4
1570181850363632,17,15,11,8,30,26,30,18
1570181850363632,-30,-33,-32,-26,-55,-23,17,-16
1570181850384588,-4,-2,-1,4,12,26,-10,-7
1570181850384588,5,5,2,-1,10,5,-8,-9
1570181850386570,-7,-13,-15,-15,-28,-18,-2,-5
1570181850386570,18,16,18,5,-29,-33,-3,17
1570181850398988,-7,-5,-6,-3,40,12,-5,-1
1570181850398988,-3,5,10,1,-32,4,-30,-16
1570181850407515,-8,-8,-5,-3,4,1,25,4
1570181850407515,12,-1,-19,-12,-7,0,-25,-12
1570181850421475,5,3,3,2,-18,-8,20,10
1570181850421475,0,5,11,11,26,11,-4,26
1570181850429459,0,11,7,-3,8,9,-11,-2
1570181850429459,3,-18,-14,-2,-4,-10,2,-3
1570181850444427,8,11,13,5,-11,-13,-15,10
1570181850444427,-8,-8,-15,-12,-7,5,33,-3
1570181850446411,-5,-4,-2,1,1,-1,1,-8
1570181850446411,-5,2,-4,-3,7,3,9,-16
1570181850458379,3,5,-9,-3,-9,-4,-18,-28
1570181850458379,-4,-20,-10,-10,-13,-6,9,-16
1570181850467355,-2,1,-8,2,7,2,17,0
1570181850467355,8,20,21,9,16,13,-15,-8
1570181850481321,-43,-41,4,2,-14,-16,-9,-30
1570181850481321,23,7,-9,-6,-8,-11,-9,41
1570181850488667,17,23,-4,3,10,9,-6,8
1570181850488667,-22,-9,2,-3,2,4,19,25
1570181850505254,27,21,28,9,-6,-1,21,10
1570181850505254,16,-21,-20,-4,-7,-12,-11,-6
1570181850506251,19,-8,-16,-9,3,2,-9,14
1570181850506251,-42,7,9,6,2,1,13,7
1570181850518226,57,12,-14,-6,-7,0,9,18
1570181850518226,-55,-27,7,-1,-4,-9,-25,-36
1570181850527200,-69,-12,-14,-3,2,9,13,-32
1570181850527200,29,37,39,4,0,-6,-6,16
1570181850541253,-8,-45,-9,8,4,8,0,-24
1570181850541253,-2,1,-16,-11,-9,-6,1,-12
1570181850548216,35,-9,3,3,-1,1,1,22
1570181850548216,-39,-10,-25,-8,-1,-3,-12,-12
1570181850565116,-14,19,6,-5,-6,-2,-4,14
1570181850565116,19,26,28,14,10,10,10,3
1570181850566092,32,9,6,6,3,1,36,-10
1570181850566092,23,-2,2,1,3,-2,-35,8
1570181850578061,90,25,-19,-13,-8,2,9,17
1570181850578061,-73,-19,1,-1,-1,-4,-4,-3
1570181850593020,-1,4,9,4,4,1,-8,1
1570181850593020,35,-5,-7,-1,-1,1,5,-25
1570181850600996,-61,-30,-12,-6,-8,-6,1,-14
1570181850600996,4,18,-1,1,0,0,-5,13
1570181850609975,19,0,5,2,-1,-2,-10,0
1570181850609975,-7,-4,4,2,-1,-2,10,5
1570181850624932,-18,3,-1,-3,-3,-2,-16,1
1570181850624932,31,4,-6,0,3,2,19,18
1570181850626929,-20,15,25,15,5,6,-2,-2
1570181850626929,3,-20,-12,-5,-3,-11,-30,-25
1570181850638904,1,-5,-14,-10,-7,-3,9,7
1570181850638904,36,9,-5,-3,-3,-2,-6,6
1570181850647874,-38,-10,2,0,-3,-3,22,-30
1570181850647874,-22,-7,-3,-3,-1,-3,-8,-7
1570181850661834,-4,11,7,3,3,7,28,8
1570181850661834,2,-1,1,0,-1,-3,-27,-8
1570181850668815,3,-8,-7,0,0,0,-1,20
1570181850668815,3,4,3,3,3,-2,2,-3
1570181850684777,-12,-1,-1,-1,-2,-2,-5,1
1570181850684777,9,0,-1,-1,-1,7,-2,-5
1570181850686767,-8,3,-4,-2,-2,-11,-19,-18
1570181850686767,2,-9,2,2,4,5,-3,18
1570181850707711,-26,-13,-4,-4,-2,-5,-6,-2
1570181850707711,16,13,2,1,1,5,43,10
1570181850708708,14,0,0,-3,-2,-6,-45,-4
1570181850708708,9,3,-4,2,0,4,24,9
1570181850721674,-12,0,0,0,0,-1,-17,-7
1570181850721674,-5,-3,2,-1,-1,0,16,-3
1570181850728713,5,-3,0,-2,1,1,8,9
1570181850728713,-2,0,2,-1,-2,-3,-3,-12
1570181850745270,-3,-2,-2,-2,-1,1,15,9
1570181850745270,0,4,1,1,0,-4,-19,-5
1570181850746613,6,0,3,1,1,0,2,3
1570181850746613,-6,-5,-6,-1,-1,-1,-11,-2
1570181850767555,1,3,1,-2,0,-4,-4,1
1570181850767555,-1,4,5,4,7,8,2,0
1570181850768550,-2,-3,0,-3,-2,-2,44,8
1570181850768550,1,-2,-4,-2,-5,-2,-53,-9
1570181850780596,2,5,0,-1,-3,-2,12,6
1570181850780596,-4,-1,0,1,-1,-4,-11,-4
1570181850789496,1,-1,5,10,45,20,14,0
1570181850789496,1,-2,-8,-4,-24,-2,33,11
1570181850804505,-14,-12,-15,-35,-89,-49,-19,-9
1570181850804505,4,9,7,1,-10,5,0,11
1570181850806452,0,-5,2,24,79,14,11,4
1570181850806452,2,0,1,-2,0,9,-38,-16
1570181850827392,-7,-10,-13,1,36,-25,-47,-13
1570181850827392,5,13,23,22,-48,34,70,20
1570181850829387,26,17,4,-38,-101,-16,-10,13
1570181850829387,-10,-5,8,41,96,60,10,-4
1570181850841463,-18,-20,-24,-78,-128,-93,-8,-4
1570181850841463,1,5,12,28,127,2,-27,-34
1570181850848619,21,21,11,17,-80,-31,-33,16
1570181850848619,10,13,14,-7,-11,12,18,18
1570181850864370,-22,-21,-14,6,89,-17,-5,-1
1570181850864370,4,-2,10,14,52,27,-22,8
1570181850866288,-9,-10,-5,26,127,46,49,13
1570181850866288,9,4,-6,-19,-94,-58,-28,-3
1570181850887233,12,25,30,36,-24,22,-19,-15
1570181850887233,0,17,-39,-42,-65,-17,-37,-25
1570181850889229,-12,-41,17,-5,-31,-13,6,-15
1570181850889229,16,42,18,10,-5,6,15,24
1570181850901199,-25,-71,-1,16,29,25,35,-2
1570181850901199,-8,-1,-7,-5,-5,-11,4,22
1570181850910170,10,44,-24,-8,-23,12,32,33
1570181850910170,-11,-11,2,-17,8,-4,14,6
1570181850925135,22,55,24,10,10,13,69,13
1570181850925135,-6,-32,-10,-1,-18,-27,10,7
1570181850926375,-7,-12,-7,-1,0,-8,-30,-46
1570181850926375,7,-5,-13,-2,12,-4,31,-11
1570181850947080,24,71,-1,3,22,31,-2,-22
1570181850947080,-21,-32,8,-1,-21,0,-17,-22
1570181850949067,13,-4,-4,-10,-7,-15,-3,6
1570181850949067,-14,-27,-20,-8,8,-7,-4,-15
1570181850961176,-6,-8,4,7,4,25,-17,5
1570181850961176,23,30,-17,-14,-11,-11,3,43
1570181850970013,-35,2,42,16,11,5,-31,-14
1570181850970013,44,-22,-14,-3,-3,-5,8,20
1570181850985014,29,13,-8,2,10,10,-14,20
1570181850985014,-25,-6,-3,-7,-7,-2,13,-3
1570181850986086,15,18,-5,-7,-1,-5,-16,58
1570181850986086,-63,-62,-15,5,4,2,-8,-22
1570181851007104,-6,-18,5,4,4,10,-8,4
1570181851007104,21,5,0,-1,-1,-3,7,15
1570181851008908,-11,-13,-3,-7,-5,7,10,-29
1570181851008908,-7,12,-9,-5,0,-10,-5,-14
1570181851020876,14,-11,13,12,12,18,9,-1
1570181851020876,-5,-3,6,2,-5,-2,11,-13
1570181851029850,10,2,-15,-8,4,-8,-27,0
1570181851029850,27,49,1,-8,-22,-5,15,6
1570181851044814,-34,-31,13,14,16,12,2,-4
1570181851044814,7,-1,-3,0,-6,-3,-6,-8
1570181851046804,-45,-20,-19,-12,-7,-4,7,-4
1570181851046804,0,-2,-5,-3,10,2,1,-1
1570181851067748,38,16,-3,-1,-4,-1,-5,26
1570181851067748,-54,-20,12,5,0,1,2,0
1570181851068747,15,-6,-7,-6,-4,-3,-20,4
1570181851068747,-12,16,6,0,2,1,-3,-10
1570181851080719,20,1,0,1,0,2,-4,6
1570181851080719,14,-1,-3,-1,2,-2,-8,11
1570181851089984,-8,10,-1,2,-1,0,27,-16
1570181851089984,-10,-12,2,-3,-1,-2,-9,-1
1570181851104666,-25,-10,-13,-2,1,-3,-6,-24
1570181851104666,37,22,12,1,4,6,12,13
1570181851106667,-4,-7,10,6,-1,-2,-13,2
1570181851106667,16,-20,-19,-9,-2,-4,9,1
1570181851127691,22,16,-7,-3,-1,1,8,-4
1570181851127691,-31,-22,-8,-5,-3,1,1,-11
1570181851128662,-13,14,9,1,-2,1,-10,-22
1570181851128662,2,-8,-1,2,2,-2,6,4
1570181851141553,-31,-7,-2,-2,-2,-1,-11,-19
1570181851141553,15,10,-2,-1,-2,0,8,0
1570181851148538,8,5,-5,-5,0,0,7,2
1570181851148538,2,7,22,12,8,4,-6,1
1570181851164490,39,-3,-7,-4,-5,-3,3,5
1570181851164490,1,11,-3,-4,0,-5,-4,-4
1570181851167593,2,-29,-14,-2,-3,-3,-12,-8
1570181851167593,-57,-13,5,0,-1,-2,-13,-3
1570181851187704,-6,8,-4,-1,3,3,4,15
1570181851187704,0,-5,-1,-2,0,-3,1,-8
1570181851188917,9,-1,-2,0,1,0,-21,-16
1570181851188917,25,19,6,2,3,1,3,49
1570181851201392,-11,13,2,-1,-1,-1,1,-37
1570181851201392,-9,-19,-14,-4,-2,0,-3,11
1570181851210367,-3,-9,12,3,-1,-1,4,-5
1570181851210367,4,4,-9,-5,-5,-4,-2,-25
1570181851225328,-8,-5,0,-2,2,1,2,-5
1570181851225328,-6,-2,3,0,-2,-3,-2,-23
1570181851226326,-3,1,-7,-2,-3,-1,17,-4
1570181851226326,9,3,3,0,0,-2,-14,-13
1570181851247380,2,6,4,0,3,1,-4,23
1570181851247380,-11,-7,-7,-2,-5,-6,-7,-30
1570181851249266,0,1,-7,-4,-2,-1,2,1
1570181851249266,-3,-5,4,2,2,1,5,2
1570181851261232,-12,-3,1,1,0,-5,0,7
1570181851261232,4,-3,4,0,0,0,-3,5
1570181851270207,3,7,0,2,-1,-2,5,0
1570181851270207,0,2,0,0,-2,2,4,-2
1570181851285169,-6,-8,-3,-3,-3,-3,-3,3
1570181851285169,4,2,1,-1,-1,1,5,0
1570181851286264,0,-1,-3,-2,-2,-4,-10,-3
1570181851286264,0,-1,-2,-2,1,0,11,7
1570181851307154,-1,-1,0,-1,0,2,11,7
1570181851307154,3,1,0,-1,0,-1,-18,-5
1570181851309110,-7,-6,-4,-3,-3,1,6,-11
1570181851309110,2,2,-1,-1,0,2,2,21
1570181851321074,-4,0,0,-1,0,1,-3,2
1570181851321074,4,2,1,1,1,0,0,12
1570181851330194,2,-1,-1,1,1,-1,-6,-9
1570181851330194,-3,-1,0,1,-2,-2,2,-14
1570181851345008,-1,-1,0,0,1,0,-4,2
1570181851345008,1,-1,0,2,1,1,3,-5
1570181851350992,3,1,-1,-1,1,-1,-3,7
1570181851350992,-2,1,-1,-1,-2,-1,-3,-10
1570181851366957,1,-1,0,2,0,-1,-1,8
1570181851366957,-3,-2,-3,-3,-2,-2,-2,-2
1570181851369153,3,0,0,0,-1,-1,-3,7
1570181851369153,0,-2,-2,-1,-1,-1,1,15
1570181851380915,-1,-1,-1,0,1,0,1,0
1570181851380915,-7,-2,-2,-1,-6,-2,-1,5
1570181851390050,0,2,0,-1,1,0,-6,5
1570181851390050,-5,-4,-3,-3,-3,-1,13,-30
1570181851403858,5,3,3,1,0,-4,-5,5
1570181851403858,0,1,0,-2,0,5,2,-5
1570181851410830,-1,-3,-2,-2,1,-2,-6,-11
1570181851410830,-1,0,0,-2,-2,1,2,-4
1570181851426792,-4,-3,-1,-1,0,2,2,4
1570181851426792,-1,0,1,0,2,-2,-7,15
1570181851428784,5,0,0,0,-2,-1,2,-8
1570181851428784,-10,0,2,1,1,-1,-13,21
1570181851440856,1,2,0,0,-2,-2,0,-8
1570181851440856,5,-7,-4,-1,-2,-6,-2,-5
1570181851449727,4,4,-1,-2,-2,0,-2,-6
1570181851449727,-21,-12,-3,-1,-3,-2,1,-31
1570181851464222,12,6,2,4,2,-2,-10,39
1570181851464222,23,9,3,-1,-1,5,-6,-10
1570181851470748,38,4,-4,-4,-4,-2,-1,31
1570181851470748,-9,-10,-6,-2,-2,-3,1,-4
1570181851487630,-13,3,5,1,-2,-7,5,-21
1570181851487630,-25,-7,1,3,9,10,2,-2
1570181851488666,13,10,3,-1,-5,-2,0,10
1570181851488666,40,19,0,2,5,7,1,58
1570181851500709,-21,-39,-14,-5,-6,-4,2,-12
1570181851500709,-26,1,1,2,-2,-5,-2,4
1570181851509567,-5,-4,-3,0,12,2,-4,-19
1570181851509567,-7,5,-2,-4,-6,-3,5,-21
1570181851524533,30,19,5,0,5,1,-8,28
1570181851524533,-43,-21,-8,-7,-8,-9,-2,-13
1570181851531584,4,5,5,2,-4,3,-1,37
1570181851531584,-18,-15,-6,-5,2,0,3,-11
1570181851547467,29,18,8,7,-3,8,-21,13
1570181851547467,-7,-10,7,8,4,-8,-7,-2
1570181851549463,24,3,-9,-13,-9,-9,-6,-12
1570181851549463,-33,-11,-4,2,4,-9,-8,-31
1570181851561428,63,10,2,1,1,14,17,5
1570181851561428,15,7,-5,-7,-8,4,6,10
1570181851569454,-85,-29,-6,2,2,-13,-8,-34
1570181851569454,10,15,1,-1,-4,-4,0,-12
1570181851584366,-34,-26,-6,-6,0,-16,-4,-47
1570181851584366,43,8,-3,-3,-5,-2,2,-11
1570181851591352,13,1,0,-1,1,5,7,-2
1570181851591352,15,2,-1,-1,-12,4,0,11
1570181851607393,24,33,13,7,4,2,9,2
1570181851607393,71,15,0,0,0,4,4,-3
1570181851609300,-96,-28,-5,-6,-11,-4,-5,-16
1570181851609300,127,58,15,7,12,4,0,12
1570181851630244,-126,-71,-16,-9,-4,3,-4,-22
1570181851630244,-4,-10,-8,-1,-4,-3,-2,-9
1570181851631248,100,59,5,3,-3,3,6,44
1570181851631248,-74,-36,-1,-2,3,-5,-4,-8
1570181851644212,57,30,5,1,1,11,8,30
1570181851644212,-33,-7,-6,-8,-6,-9,15,-9
1570181851651193,62,-7,5,9,13,3,-10,0
1570181851651193,-5,15,5,4,2,5,6,25
1570181851667180,-75,-10,-10,-5,-5,-5,-4,-24
1570181851667180,-38,-26,-10,-6,-8,-5,-8,-13
1570181851669145,-1,20,12,4,-2,3,4,9
1570181851669145,13,1,-1,-3,-10,0,-2,-5
1570181851690130,9,-2,-3,-8,21,2,0,-14
1570181851690130,6,19,3,0,4,3,-1,15
1570181851692083,-4,-6,1,2,-4,-1,3,-13
1570181851692083,-58,-19,2,-1,-3,-1,-5,-5
1570181851704047,-16,-9,-7,4,6,-2,2,6
1570181851704047,37,19,7,-1,6,3,3,15
1570181851711285,-26,-29,-4,-3,-4,-1,2,-11
1570181851711285,-10,-10,-6,-4,1,1,12,-41
1570181851727023,33,10,4,2,-13,-2,-2,15
1570181851727023,11,5,1,3,7,1,2,4
1570181851728981,3,5,-1,-1,-4,4,-3,18
1570181851728981,14,1,1,0,-5,-2,-5,16
1570181851749930,15,9,4,6,-4,-7,1,-5
1570181851749930,16,4,4,5,-2,3,4,15
1570181851751919,-16,0,-3,-1,5,3,5,4
1570181851751919,9,-2,-3,-5,-3,0,18,32
1570181851763888,-1,-14,-7,-2,4,1,-2,-5
1570181851763888,-3,6,6,-1,2,-1,-5,4
1570181851772863,2,7,8,4,2,0,-3,1
1570181851772863,11,5,-7,0,17,4,0,-48
1570181851787085,-2,2,11,3,-9,-9,-20,33
1570181851787085,18,-19,-22,-11,-27,-7,9,8
1570181851788926,-31,-6,-7,-7,-3,-2,14,-54
1570181851788926,-3,6,0,1,-2,-8,-13,47
1570181851817744,22,8,-1,-5,1,6,13,43
1570181851817744,-10,1,6,4,28,17,-12,-4
1570181851818743,1,-7,0,1,6,27,0,34
1570181851818743,1,-10,-2,-2,-2,-38,-9,-40
1570181851823785,0,-1,0,0,-7,-3,-1,-30
1570181851823785,-5,4,7,4,-14,-7,4,6
1570181851832707,11,-4,-3,4,11,-7,-1,-8
1570181851832707,-18,-11,0,-2,-1,24,-11,-46
1570181851847666,10,9,-3,-3,-3,-5,-1,-36
1570181851847666,-13,4,-1,0,-5,-4,-5,-45
1570181851848756,11,3,0,-1,-2,0,1,-7
1570181851848756,6,-2,-2,1,-7,-2,-4,24
1570181851869610,-4,6,-4,-2,-4,-6,1,59
1570181851869610,-13,0,0,1,7,6,-2,57
1570181851871610,-2,-15,-4,-1,3,-7,-2,120
1570181851871610,15,9,0,-2,0,-3,2,91
1570181851883577,-5,-5,-2,2,-2,3,0,40
1570181851883577,10,3,1,2,3,-1,-2,2
1570181851892545,-36,-22,-3,-1,6,3,0,-42
1570181851892545,15,8,-1,-1,-8,2,-4,-57
1570181851908501,-3,2,-1,-5,-3,6,2,-78
1570181851908501,-12,-5,-1,-1,-2,-3,-9,-77
1570181851909499,-3,1,-2,-4,-15,-20,-5,-60
1570181851909499,-4,-6,0,3,18,7,0,-40
1570181851930442,1,-2,-2,-1,3,26,10,-12
1570181851930442,-3,1,2,2,-3,-18,1,-17
1570181851931532,-5,2,0,3,0,8,-7,-70
1570181851931532,-2,-2,-2,-4,-6,-10,-9,-9
1570181851943415,-2,-1,-2,-6,-19,-5,1,-49
1570181851943415,-5,-2,-3,0,14,6,3,-6
1570181851952383,19,9,3,3,3,0,-16,62
1570181851952383,0,-4,-2,0,0,2,0,14
1570181851967578,-5,2,-2,0,3,-4,-2,-9
1570181851967578,-2,-5,0,-3,-9,-1,2,24
1570181851969339,-10,1,0,-2,-3,0,7,-12
1570181851969339,0,-1,-1,0,2,4,6,27
1570181851989329,5,-2,-1,-2,-9,-5,-6,28
1570181851989329,-4,-1,1,0,-2,0,-1,20
1570181851991279,-2,2,-4,-2,2,5,1,-11
1570181851991279,-10,-6,-1,-2,-5,-3,2,14
1570181852003246,0,-1,1,-1,5,-4,0,1
1570181852003246,-3,-1,-2,-2,1,0,-4,8
1570181852012440,-5,-2,-3,-4,-7,-5,0,-4
1570181852012440,2,-1,1,1,0,6,2,5
1570181852027183,-6,-4,0,0,1,-9,1,-8
1570181852027183,1,-1,0,-3,-3,3,0,3
1570181852029177,4,2,-1,-2,-2,-4,1,15
1570181852029177,-2,-1,1,1,-2,-2,1,0
1570181852050123,1,-2,-1,1,4,-2,-1,1
1570181852050123,-2,-2,0,0,-7,-2,-1,-2
1570181852051122,4,0,-1,1,11,0,2,5
1570181852051122,0,0,-1,-2,-4,-2,-2,-2
1570181852063090,-2,-1,-1,1,2,-8,-2,6
1570181852063090,8,1,0,2,12,9,7,6
1570181852073061,-2,-1,-2,-2,-7,5,-1,-7
1570181852073061,0,1,0,1,2,1,2,5
1570181852087023,8,1,-3,1,-2,-1,2,21
1570181852087023,-6,-2,-2,-2,1,-1,-3,-8
1570181852089020,-2,0,1,1,4,-6,0,-2
1570181852089020,2,-2,2,1,-2,0,0,5
1570181852110094,-7,-1,0,-4,-3,1,-2,-15
1570181852110094,1,0,-1,-2,-5,-5,-3,-2
1570181852110960,0,0,0,-1,-5,-1,1,-2
1570181852110960,-4,-2,-2,0,-4,-10,-2,-9
1570181852122999,-5,-1,-1,-1,-3,-4,-1,-10
1570181852122999,1,0,-1,0,0,-3,-3,-6
1570181852133035,1,0,-3,-3,-2,2,3,-2
1570181852133035,-1,0,-1,2,3,2,0,-20
1570181852146869,0,-1,1,0,1,1,-3,-18
1570181852146869,-1,0,-1,-2,-4,-3,0,-8
1570181852148865,-1,-1,-2,0,0,-1,0,0
1570181852148865,2,-2,-1,-2,0,4,-1,9
1570181852169806,0,1,-4,-2,-4,-6,2,7
1570181852169806,-2,-1,0,-1,-2,1,0,1
1570181852171797,0,-2,-1,0,-2,-2,-1,8
1570181852171797,-1,0,-1,-1,0,1,0,4
1570181852183837,-2,-1,0,2,14,3,-2,4
1570181852183837,-2,-4,0,0,-9,-2,0,4
1570181852192747,1,-1,0,1,-2,-5,-1,-20
1570181852192747,-2,-2,0,-3,-3,0,-3,-14
1570181852207719,0,1,0,1,5,2,2,-4
1570181852207719,-1,1,0,-1,3,0,1,9
1570181852208698,-3,-1,2,1,-2,-1,0,-3
1570181852208698,-2,1,-2,-3,-9,0,-1,9
1570181852229646,0,-1,-1,-3,1,-2,-3,7
1570181852229646,-1,1,-1,0,1,3,-1,11
1570181852231638,0,0,-1,-3,-5,-1,-3,2
1570181852231638,-1,0,0,0,2,1,0,3
1570181852243606,0,-1,0,0,-5,2,-1,3
1570181852243606,-1,-2,-2,-1,1,-1,-3,-5
1570181852252778,1,-1,1,0,1,-1,-1,5
1570181852252778,0,0,1,-1,1,-1,-1,2
1570181852267540,-1,0,-1,-1,-3,1,0,2
1570181852267540,1,1,0,-1,2,0,0,-3
1570181852269535,0,-1,-2,-1,-2,-2,-2,0
1570181852269535,0,0,-2,0,-1,2,4,15
1570181852289594,-2,0,-1,1,-1,1,-3,-8
1570181852289594,0,0,-1,2,1,0,2,6
1570181852291478,-1,-2,-2,-3,-3,-1,-1,-8
1570181852291478,-3,-2,-2,0,-1,-1,-1,-5
1570181852303452,4,0,-1,0,0,0,1,5
1570181852303452,-1,0,-2,-2,-1,-2,0,-4
1570181852318408,0,-1,0,0,-2,-3,1,9
1570181852318408,-3,-3,-2,-1,-1,-8,-3,-4
1570181852327380,-1,0,-1,-2,0,10,1,1
1570181852327380,-2,-1,0,0,0,-2,-3,-4
1570181852329375,-1,0,-1,0,-2,1,-2,1
1570181852329375,2,0,0,-2,0,0,0,-3
1570181852349322,-3,-1,0,0,-2,-3,-1,1
1570181852349322,1,-1,1,1,0,1,-1,-2
1570181852351657,-1,-1,-1,0,0,-1,-1,-1
1570181852351657,0,0,-1,0,-2,0,1,0
1570181852363284,-1,-2,2,0,-2,-2,0,2
1570181852363284,2,-1,-2,1,2,0,1,6
1570181852372260,-1,0,-1,-1,-1,-3,-1,2
1570181852372260,0,-1,-1,-1,0,1,-1,-1
1570181852387226,-1,0,-1,0,-1,-1,-1,0
1570181852387226,-1,0,1,-1,-2,-2,-1,-2
1570181852389254,-3,-2,1,-3,0,0,-1,-7
1570181852389254,0,-1,-3,0,-1,0,0,2
1570181852410158,-2,0,-1,-1,-1,-2,-2,-6
1570181852410158,-2,-1,-1,-2,-1,-1,-1,-1
1570181852412154,1,0,-1,-1,-1,-1,-1,0
1570181852412154,-1,1,0,1,-1,0,-2,-5
1570181852424122,-1,-1,-1,-1,-2,-2,-3,-5
1570181852424122,-1,-1,0,-1,-1,1,0,-4
1570181852433100,0,0,-1,0,-1,0,1,3
1570181852433100,-1,-2,0,-1,0,1,1,-4
1570181852447096,1,-1,-1,-1,-1,-2,-1,4
1570181852447096,-2,-1,-1,-1,-1,0,-2,-1
1570181852449055,-2,-2,-2,-2,-1,0,-1,-5
1570181852449055,0,0,0,-1,0,0,-2,-1
1570181852470009,-1,0,-1,-2,1,0,0,-4
1570181852470009,-1,0,-1,-1,-1,0,0,-2
1570181852470996,0,0,0,1,-1,-2,1,0
1570181852470996,-1,1,0,1,0,0,-1,1
1570181852482968,-1,-2,-1,-2,-1,0,-1,-1
1570181852482968,-1,-1,0,0,0,-1,-1,-3
1570181852492938,-1,-1,0,0,-1,-2,1,2
1570181852492938,0,-1,-1,0,-1,0,-2,-2
1570181852506906,0,-1,-1,0,1,-2,0,-1
1570181852506906,0,0,0,0,0,-1,0,-2
1570181852508896,0,-2,-1,0,0,0,-1,2
1570181852508896,-1,0,-1,-1,-1,-1,-3,0
1570181852537630,-1,-1,0,-1,-1,-1,3,-2
1570181852537630,-1,-1,-1,1,0,2,1,-1
1570181852538816,1,0,-1,-3,-4,-2,-1,1
1570181852538816,-2,-1,-1,0,-3,-2,-3,0
1570181852552923,-1,-4,-3,-1,-2,-1,2,-2
1570181852552923,1,-1,0,0,0,-1,-3,1
1570181852553779,0,0,0,0,1,2,0,-8
1570181852553779,0,0,-1,0,0,0,2,4
1570181852566746,3,0,-1,-2,-3,-1,-1,2
1570181852566746,-1,0,-1,0,0,-1,0,-1
1570181852573722,1,-1,0,-1,-1,-1,-1,4
1570181852573722,-4,-1,-1,0,0,0,-2,-2
1570181852589679,-2,1,0,-1,-1,0,-1,-2
1570181852589679,1,0,-2,2,0,2,2,3
1570181852591674,0,-1,1,1,1,1,0,0
1570181852591674,2,-1,-2,-4,-9,-5,-1,-3
1570181852612624,0,0,2,1,-3,-1,-1,1
1570181852612624,-3,0,0,-2,-3,-3,-3,-7
1570181852614101,-2,1,-2,-1,2,0,0,3
1570181852614101,1,-2,-1,0,5,3,2,-1
1570181852627579,0,0,-1,1,-1,-1,0,1
1570181852627579,-1,-2,0,-3,-2,-1,-1,-2
1570181852633565,-1,-1,-1,1,-1,0,-2,0
1570181852633565,0,-1,1,0,0,-1,0,0
1570181852649523,0,0,-2,-1,-1,0,-2,-7
1570181852649523,3,-1,0,0,2,0,2,8
1570181852651513,-1,-1,-2,-1,-2,-1,-1,-1
1570181852651513,-3,0,-2,-1,1,1,-2,0
1570181852672459,-3,-1,-1,-1,-1,-3,-2,-2
1570181852672459,0,0,-1,-2,-1,-2,-1,1
1570181852673456,1,-1,-1,-1,-1,-3,-1,0
1570181852673456,-3,1,0,0,1,0,-1,-3
1570181852686430,0,1,0,0,2,-1,1,1
1570181852686430,-1,1,0,-1,-1,0,-4,-3
1570181852693403,-1,-1,0,-1,-3,-1,0,-2
1570181852693403,0,0,0,-1,-1,-2,0,0
1570181852709501,0,-3,-2,-2,-1,0,-1,2
1570181852709501,-2,1,0,0,-1,-1,2,2
1570181852711359,-1,-1,-2,-1,-1,1,0,-6
1570181852711359,-1,-1,-1,0,-1,0,1,1
1570181852732304,1,-1,0,-1,0,0,-1,2
1570181852732304,-3,-1,0,-1,-2,-2,-1,-5
1570181852734292,0,0,-1,0,0,0,1,5
1570181852734292,1,-2,1,0,0,0,1,0
1570181852746305,-1,1,-2,0,1,1,0,-1
1570181852746305,-1,-2,-2,0,-1,-3,-2,-2
1570181852754602,-1,-1,-1,-1,-3,-2,-2,-1
1570181852754602,3,-2,-1,-1,-1,-2,-1,0
1570181852769202,-7,0,-2,-1,-1,-1,-3,-5
1570181852769202,5,0,-1,0,1,1,1,4
1570181852770196,0,-2,0,0,0,-1,0,-2
1570181852770196,1,1,-2,-2,-1,1,-1,3
1570181852792141,-3,-3,0,0,1,0,-2,-11
1570181852792141,-2,-2,-1,0,-1,-1,-2,-2
1570181852792420,0,-1,0,0,0,-1,0,2
1570181852792420,0,-1,0,-1,-1,1,-1,-4
1570181852806101,2,1,-1,-1,0,-1,0,4
1570181852806101,2,-1,0,0,1,-1,0,-2
1570181852814129,-1,1,0,-2,0,-1,-1,-3
1570181852814129,-1,-1,-1,0,-1,0,1,2
1570181852829038,1,1,0,1,-3,-1,0,3
1570181852829038,-2,1,-2,-1,-2,-2,-1,0
1570181852830036,-3,0,0,-1,0,1,-1,-4
1570181852830036,-1,0,-1,-2,0,0,0,1
1570181852852022,1,-1,0,-3,1,0,1,1
1570181852852022,-2,-2,1,0,-1,-1,-1,-6
1570181852852253,2,0,-1,-1,0,0,-2,2
1570181852852253,-1,-1,-1,1,-1,0,-3,-8
1570181852865943,0,-2,-1,0,-1,-1,-1,6
1570181852865943,-1,0,0,-1,-2,2,0,-1
1570181852873921,0,-2,-2,-2,-2,-1,-1,1
1570181852873921,-1,0,-2,0,1,-1,1,-1
1570181852888878,0,0,0,0,0,-2,-1,0
1570181852888878,-2,0,-3,0,-2,-3,-1,-1
1570181852889877,-3,-1,-2,1,-1,0,0,0
1570181852889877,0,0,-2,-1,0,-2,-1,-2
1570181852911863,0,-2,-1,1,1,1,1,-2
1570181852911863,0,-1,-2,-2,-1,-2,1,1
1570181852912815,1,0,1,-1,-1,0,-1,1
1570181852912815,-2,-2,-1,0,0,-1,0,2
1570181852925781,0,0,2,-1,1,0,0,7
1570181852925781,1,-1,-1,0,-1,1,-1,-9
1570181852933802,0,-1,0,1,-1,0,-2,-4
1570181852933802,3,-1,-3,-2,-3,0,0,5
1570181852948722,0,1,-1,-1,0,0,-1,3
1570181852948722,-2,-1,-2,-1,0,-1,-1,0
1570181852949935,-1,-1,-3,0,-1,-1,0,-1
1570181852949935,1,-2,0,-1,0,-1,0,-1
1570181852971664,-2,-1,0,0,-2,1,-2,-7
1570181852971664,3,1,0,-1,0,0,-1,12
1570181852972655,1,-1,0,-1,0,0,-1,0
1570181852972655,-1,-1,-1,1,-1,0,0,1
1570181852985623,1,-1,-2,0,-2,0,1,-1
1570181852985623,-3,-1,-1,-1,-1,-1,-1,-8
1570181852994606,2,1,-2,-1,2,2,1,11
1570181852994606,-2,1,-1,1,0,-2,-1,4
1570181853009556,-1,-2,0,-1,0,0,-3,-15
1570181853009556,4,-1,0,-2,-2,-1,-1,1
1570181853009556,-1,1,-1,-1,-1,0,-1,-2
1570181853009556,-1,0,0,0,0,0,1,-3
1570181853031502,0,0,-1,0,-1,-1,0,3
1570181853031502,-3,0,0,0,-1,-1,-1,1
1570181853032503,-1,0,0,0,-3,-3,-1,-5
1570181853032503,0,0,-1,0,0,0,0,0
1570181853045463,-1,-1,-1,-1,1,-1,-1,0
1570181853045463,-3,-2,1,-1,1,0,1,0
1570181853054436,-3,0,0,0,-1,0,-2,-6
1570181853054436,0,0,-2,0,-1,0,0,1
1570181853069401,-2,-1,-1,0,-1,-1,-3,-3
1570181853069401,1,-1,-3,-1,0,-1,3,14
1570181853069721,2,-1,-1,0,-2,-1,0,-4
1570181853069721,-3,-1,1,-1,-1,-1,-4,-6
1570181853091380,0,-1,-1,0,-3,0,0,1
1570181853091380,-1,-1,-1,-1,0,0,-1,-3
1570181853092335,-2,-3,-1,1,-2,0,0,-3
1570181853092335,1,-1,0,-1,0,0,2,2
1570181853106297,-1,0,1,-1,-2,-1,-1,-1
1570181853106297,-1,0,0,-1,-1,0,-3,-5
1570181853114276,-2,1,-1,-1,1,0,-1,0
1570181853114276,-2,0,-1,0,0,0,-1,-5
1570181853129240,0,1,0,0,-1,-1,0,3
1570181853129240,-3,0,-1,-3,-2,-3,0,-4
1570181853130234,-2,-2,-1,-2,1,-1,-1,0
1570181853130234,0,-1,-1,-1,-1,1,1,1
1570181853151221,-1,-1,0,-2,-1,-1,1,-2
1570181853151221,0,-1,-1,0,0,-1,0,-1
1570181853152175,-1,0,-1,0,-1,-2,0,0
1570181853152175,-3,-1,0,-2,-1,0,-3,-2
1570181853174563,1,-1,-1,-2,-1,0,0,5
1570181853174563,1,-1,2,1,-1,0,-2,-6
1570181853175114,0,-1,0,-1,-1,-2,2,1
1570181853175114,0,0,-1,-1,-1,-2,-1,0
1570181853189076,-3,-1,0,0,0,-1,-1,-5
1570181853189076,-2,0,0,-1,0,1,0,4
1570181853190075,1,-1,-2,1,0,0,1,3
1570181853190075,-1,0,0,-1,-2,0,-1,1
1570181853212015,-1,-1,-2,0,-1,-1,1,-2
1570181853212015,0,-2,-3,-2,-1,-1,-2,-2
1570181853212546,-1,0,-1,0,0,1,-2,-3
1570181853212546,1,-2,-1,0,0,-1,-1,-1
1570181853226022,-2,1,-1,0,0,0,-3,-3
1570181853226022,1,-1,-1,0,-1,-2,0,2
1570181853234572,2,-2,0,-1,1,1,0,2
1570181853234572,-4,-2,-1,0,-1,0,-2,-3
1570181853248915,3,-1,-1,-1,-1,0,-1,-4
1570181853248915,-1,-2,0,0,-2,-1,0,-2
1570181853249987,-2,0,1,-3,0,-1,0,-1
1570181853249987,0,1,0,0,0,-1,0,-2
1570181853271856,0,-1,1,-1,-1,-1,0,1
1570181853271856,-2,-1,0,1,1,1,-2,-3
1570181853272354,2,0,0,0,-1,-1,-1,0
1570181853272354,0,-2,0,1,-1,0,-1,-1
1570181853285922,-1,1,-2,-3,-1,0,0,3
1570181853285922,-1,-1,-2,-1,-1,0,0,-2
1570181853293887,-2,-1,-2,0,-1,-2,-1,-3
1570181853293887,0,0,0,0,-2,-2,-1,-2
1570181853308911,-3,-1,0,-1,0,-1,-3,-3
1570181853308911,-2,-2,-2,-1,0,-1,-1,0
1570181853309758,1,0,-1,-2,-1,-2,-1,2
