timestamp,emg1,emg2,emg3,emg4,emg5,emg6,emg7,emg8
1570179139286618,-2,0,0,-1,0,0,-3,-2
1570179139286618,-1,0,0,0,-2,-1,-2,-7
1570179139287615,-1,2,0,-1,-2,1,0,0
1570179139287615,-1,-3,-1,-1,-2,0,0,-2
1570179139288501,-11,1,1,1,0,1,-1,-4
1570179139288501,12,-4,-2,-2,0,-2,0,-1
1570179139289614,12,3,2,-1,1,0,0,-1
1570179139289614,-21,0,1,1,-1,-1,-1,-8
1570179139296741,5,-2,-4,-4,-2,0,-1,-1
1570179139296741,-7,1,3,-1,0,-2,0,1
1570179139304680,1,5,1,2,2,1,0,1
1570179139304680,14,-5,-5,-2,-1,-3,-1,1
1570179139312551,-1,1,0,0,0,-1,1,1
1570179139312551,-12,-6,-4,-3,-1,0,-1,-1
1570179139327605,16,7,8,4,0,-1,-2,0
1570179139327605,2,-3,-3,-2,-2,1,0,9
1570179139333746,7,3,1,0,-2,-1,-1,8
1570179139333746,-3,-7,-3,-2,-2,2,2,-1
1570179139348452,-14,-1,-2,0,-2,-1,-6,-9
1570179139348452,0,-2,1,0,1,1,1,6
1570179139360420,7,7,0,2,0,0,0,-9
1570179139360420,0,3,-1,-2,-2,0,-2,0
1570179139372391,-33,-28,-10,-7,-3,-3,-6,-21
1570179139372391,3,-1,3,1,1,0,2,2
1570179139413279,-9,-17,-5,0,0,-2,1,9
1570179139413279,-7,-19,-9,0,2,-2,0,-3
1570179139417269,-3,-2,-2,-1,-2,-2,-1,-5
1570179139417269,0,3,2,1,0,-1,1,-5
1570179139418462,5,9,0,-1,-2,1,3,4
1570179139418462,-8,1,1,-2,-1,-1,8,-10
1570179139419263,-8,-2,0,0,1,-2,-17,-21
1570179139419263,9,1,-3,-2,-1,-3,-2,5
1570179139424250,14,3,1,0,0,-2,-3,7
1570179139424250,-1,0,-1,-1,0,0,7,-1
1570179139431282,-1,-1,-3,-1,-1,0,9,-9
1570179139431282,-11,-3,-1,0,0,-1,6,-21
1570179139438521,-10,-7,-2,-2,0,-1,-16,-19
1570179139438521,4,5,0,-1,-1,0,-3,-7
1570179139453172,3,4,1,-1,0,0,0,18
1570179139453172,-19,-4,-2,-2,-1,2,2,5
1570179139461151,14,-1,-2,0,-2,-4,8,31
1570179139461151,-6,3,2,1,4,10,-9,-7
1570179139485087,-11,-7,-2,-1,-5,-7,-6,-32
1570179139485087,-25,-17,-3,1,-1,-3,-5,-29
1570179139485919,47,19,-1,-3,-4,-1,-5,10
1570179139485919,-15,-8,-1,0,1,3,-4,-2
1570179139507028,-3,-10,-3,-2,0,1,5,44
1570179139507028,34,18,1,-2,-1,-1,-1,34
1570179139508026,-36,-6,4,1,2,-1,2,-11
1570179139508026,43,16,0,-2,-4,-3,-3,8
1570179139521989,-27,-26,-1,2,3,4,6,5
1570179139521989,-4,-1,2,3,6,5,1,1
1570179139521989,24,15,-5,-8,-8,-7,-7,-9
1570179139521989,-13,-5,1,0,-2,-1,3,-4
1570179139545206,-3,6,2,1,0,0,1,-4
1570179139545206,-14,-21,0,2,1,5,3,28
1570179139545924,38,34,-1,-2,-1,-3,-6,-8
1570179139545924,-21,-18,-3,-2,-3,-4,-2,14
1570179139558889,-6,-1,1,1,1,3,-3,-1
1570179139558889,6,6,0,-1,-6,-7,-4,-4
1570179139559887,-26,-15,-2,2,2,0,2,0
1570179139559887,0,11,4,2,5,4,2,-23
1570179139581828,8,-1,1,0,3,5,5,8
1570179139581828,-13,-4,0,-3,-1,-1,-4,-18
1570179139582828,-15,-2,1,3,2,0,5,-4
1570179139582828,10,8,-1,-1,-4,-5,-3,-3
1570179139605764,2,-1,0,-3,-2,-2,-2,0
1570179139605764,8,10,-1,-1,-1,0,0,0
1570179139605764,-24,-18,0,2,1,6,1,-9
1570179139605764,-8,-6,0,-1,0,-4,-2,-1
1570179139618730,15,11,2,-3,-2,-1,-1,2
1570179139618730,-1,-2,-2,-4,-2,-4,-4,1
1570179139619726,-8,-9,-1,-2,1,2,-6,-24
1570179139619726,-4,1,-1,0,0,-3,-2,2
1570179139642664,14,7,-1,-2,-1,-4,-1,-3
1570179139642664,2,-1,-1,-1,0,2,1,17
1570179139642813,-11,-6,-1,-1,3,1,2,11
1570179139642813,5,5,0,1,-2,-1,0,14
1570179139664643,8,1,-1,1,-1,1,2,-4
1570179139664643,2,-1,-2,0,-2,-2,2,-10
1570179139665963,-1,-1,0,0,-2,-1,-7,-2
1570179139665963,2,-2,-1,-1,-3,-4,3,4
1570179139679081,1,2,0,1,0,0,-3,-3
1570179139679081,3,-1,1,-1,-2,0,-1,-6
1570179139679979,-6,-2,2,2,-1,1,9,-5
1570179139679979,2,-3,-2,-3,-2,-2,-14,-3
1570179139701540,-6,-1,-1,-1,-1,-1,-1,-7
1570179139701540,8,2,-1,-1,-1,1,-2,2
1570179139702639,-5,-4,1,-2,1,2,4,-5
1570179139702639,5,-1,1,2,2,0,4,9
1570179139724447,0,1,-1,-2,-2,-3,-3,-8
1570179139724447,1,-2,-3,0,0,-1,-1,5
1570179139725444,1,-2,-2,0,-1,-1,0,7
1570179139725444,-2,2,-1,2,1,2,-1,-7
1570179139739408,5,-1,-6,-5,-9,4,8,13
1570179139739408,-8,0,1,3,1,-31,-5,-16
1570179139739408,10,-1,0,1,7,38,6,14
1570179139739408,-1,-1,1,-1,-1,-24,-11,3
1570179139761624,0,2,1,-2,2,17,4,1
1570179139761624,-3,2,-1,-2,-1,3,-2,-8
1570179139762504,-3,-7,-3,-1,-7,-11,-3,-2
1570179139762504,4,5,-2,-4,-5,-4,2,0
1570179139784875,9,4,3,4,10,4,3,6
1570179139784875,-7,-3,0,-2,0,7,0,7
1570179139785302,8,3,-1,-1,-2,-25,-9,-20
1570179139785302,-3,-11,0,1,2,29,15,10
1570179139799247,-9,-3,-3,-2,-2,-27,-18,-19
1570179139799247,15,0,1,1,-7,-19,-7,7
1570179139800243,-25,3,1,0,10,37,15,5
1570179139800243,7,2,0,0,9,10,4,-1
1570179139821290,-5,-3,-4,-4,-15,-10,-2,-2
1570179139821290,1,-2,-1,-3,0,33,12,-1
1570179139822185,-3,-2,0,-2,-3,-4,1,5
1570179139822185,-5,-2,-1,1,-4,-24,-6,-2
1570179139845173,-10,-2,-1,-1,4,0,-6,-12
1570179139845173,5,8,0,-1,-4,-9,0,-2
1570179139845173,-5,-7,-1,-4,-15,-19,-3,-7
1570179139845173,2,4,1,1,0,2,2,0
1570179139858090,18,10,1,2,16,7,4,0
1570179139858090,-12,-9,-2,-2,0,7,3,-6
1570179139867065,10,5,-2,-1,2,-10,-16,-1
1570179139867065,6,-1,-1,-1,-6,0,-3,1
1570179139881218,-7,-3,0,0,-5,-6,-2,4
1570179139881218,5,0,-1,-1,2,2,-4,1
1570179139882025,-5,-1,0,3,-2,1,4,2
1570179139882025,-9,-3,-2,-1,0,0,-2,-5
1570179139905003,7,2,-2,-1,-1,5,2,3
1570179139905003,-3,-1,-1,-1,0,1,2,4
1570179139905962,-1,-4,-2,0,0,-4,1,-1
1570179139905962,1,1,-2,-4,-2,-1,0,-4
1570179139917929,-3,-4,-2,-1,-3,-2,0,1
1570179139917929,0,0,-1,-2,-2,-1,-3,-14
1570179139927047,2,-2,-1,-3,2,-6,-3,-12
1570179139927047,0,0,-1,-1,1,2,-2,-5
1570179139941865,-5,-2,0,0,-2,1,1,3
1570179139941865,-1,-1,-1,-2,0,1,-2,10
1570179139942862,2,1,-2,0,2,1,1,13
1570179139942862,-6,-2,0,-2,-2,2,0,5
1570179139964839,5,-4,-1,-2,-2,-2,3,27
1570179139964839,1,-1,0,-1,-1,1,12,6
1570179139965801,-5,-1,1,0,-1,-3,-4,-9
1570179139965801,9,0,-2,-2,-3,-2,-2,-4
1570179139978766,2,0,-2,0,-1,-3,0,-10
1570179139978766,-16,-1,0,-1,2,-1,-3,-44
1570179139986783,25,-3,-3,-5,-2,-4,-5,3
1570179139986783,-1,-2,-2,0,-1,0,0,-1
1570179140001920,2,0,-1,0,-1,2,1,6
1570179140001920,12,3,1,0,0,-1,3,19
1570179140002702,-9,-3,0,-1,0,1,2,11
1570179140002702,-17,-2,0,-1,-1,-4,-12,-25
1570179140024645,12,-1,-3,-2,-2,-1,2,19
1570179140024645,0,-2,0,0,0,-1,-3,20
1570179140025642,-11,-2,1,1,0,-3,-4,-18
1570179140025642,4,-1,0,-3,0,0,4,0
1570179140038691,-10,0,0,0,-1,1,-1,-12
1570179140038691,0,-1,-2,-2,1,0,-2,-3
1570179140046585,0,1,1,0,0,2,2,-3
1570179140046585,4,-1,-1,0,0,2,3,8
1570179140061560,-7,-1,-1,-2,0,-2,-1,-19
1570179140061560,6,-2,-3,-1,-1,0,0,-1
1570179140062577,-6,-1,-3,0,2,0,-4,-14
1570179140062577,-2,1,0,-2,1,-1,3,-14
1570179140084517,-2,0,0,-2,-2,0,-1,-4
1570179140084517,3,2,-2,1,1,1,-1,7
1570179140085741,-2,0,0,-2,-3,0,2,6
1570179140085741,0,-1,-1,0,-1,0,0,6
1570179140098449,-1,0,1,2,-1,-2,-2,-3
1570179140098449,-8,-2,-1,0,0,-1,7,-28
1570179140106832,-4,2,-1,1,1,-1,-1,0
1570179140106832,-5,0,-1,-1,1,-1,-7,1
1570179140121391,2,-1,0,-1,-1,-2,3,3
1570179140121391,-13,-2,-3,-1,-1,-2,-7,-14
1570179140122383,-1,0,0,2,-1,1,3,0
1570179140122383,7,0,1,-1,-1,3,8,22
1570179140144323,2,1,0,1,-1,1,-2,-4
1570179140144323,4,0,0,-2,-1,-2,-5,3
1570179140145441,-1,0,-1,-1,1,0,3,4
1570179140145441,-2,-2,-1,1,0,-3,-3,5
1570179140158287,-2,0,0,-1,-1,0,-6,-2
1570179140158287,7,3,1,1,1,0,-10,23
1570179140166300,7,-1,0,-3,-1,2,4,10
1570179140166300,4,8,1,-1,-4,-1,-1,3
1570179140181273,-7,-8,-2,-1,1,-1,1,-2
1570179140181273,1,5,2,0,0,-2,-2,0
1570179140182343,-2,-2,-1,0,0,-1,-3,0
1570179140182343,-3,-1,-2,0,-1,-1,-1,2
1570179140205161,-3,0,-1,-2,-2,-2,-8,-26
1570179140205161,8,0,0,-1,1,3,2,28
1570179140205325,0,-2,0,1,1,-1,2,-7
1570179140205325,2,-2,0,1,1,-2,-8,-109
1570179140218126,2,-1,-3,-1,-1,-1,4,-93
1570179140218126,-7,-4,-5,-3,-3,-4,-6,-103
1570179140226105,-4,1,-2,-1,-1,-1,0,-11
1570179140226105,-2,2,-1,-1,1,-1,8,53
1570179140242062,3,-3,1,2,8,35,4,70
1570179140242062,7,1,3,-2,-12,-49,-18,75
1570179140242529,2,2,-3,-3,0,4,2,28
1570179140242529,-8,-6,-3,-2,-4,-12,-13,29
1570179140265013,-3,2,0,1,2,-2,6,33
1570179140265013,-2,-4,-1,-1,4,15,8,23
1570179140265999,11,5,0,0,-2,-11,-9,0
1570179140265999,-2,-8,-3,-2,-5,2,-2,23
1570179140286975,-11,-2,0,0,-2,-2,8,7
1570179140286975,18,11,-3,-1,-3,12,2,8
1570179140287955,8,1,1,1,5,1,3,2
1570179140287955,-11,-13,-10,-9,-7,-2,-4,-15
1570179140301902,-4,3,-1,-1,-2,-19,-12,10
1570179140301902,-23,-9,-2,-1,8,29,8,-11
1570179140301902,6,3,-1,0,1,23,9,-36
1570179140301902,2,-4,4,2,10,0,11,13
1570179140324841,52,32,7,2,-6,-50,-25,41
1570179140324841,-21,-30,-11,-6,-5,-6,-23,-13
1570179140325838,-13,-3,-1,-1,-3,6,-1,-7
1570179140325838,10,5,-1,-2,-5,-14,-6,-3
1570179140347780,-11,-6,0,-2,-6,8,8,-22
1570179140347780,2,5,5,5,5,27,6,-2
1570179140348152,1,-2,-3,3,25,-42,-31,19
1570179140348152,-6,-1,0,1,-4,-8,8,5
1570179140361744,1,-3,-2,-8,-24,8,-1,16
1570179140361744,6,5,4,5,16,7,3,12
1570179140362741,-5,-6,1,1,-22,-18,7,58
1570179140362741,11,7,2,4,26,-1,3,118
1570179140383781,-10,-2,-2,-3,0,29,0,100
1570179140383781,-3,-7,-2,-5,-13,-22,2,63
1570179140392661,2,1,-2,-3,-9,2,4,34
1570179140392661,2,3,1,1,-5,10,-6,-27
1570179140407620,-9,-8,-2,-1,2,-5,5,-42
1570179140407620,-1,3,1,0,-3,6,7,-45
1570179140408617,2,-1,-2,-3,0,-4,3,-31
1570179140408617,-4,1,2,0,-6,10,5,-45
1570179140429778,-6,-6,-2,1,10,10,-1,-16
1570179140429778,5,7,0,0,-2,-20,0,-28
1570179140431577,-1,-2,2,-1,-1,10,-5,-40
1570179140431577,-11,-6,-2,-3,-1,1,4,-56
1570179140443713,3,0,0,0,2,-4,3,-34
1570179140443713,9,2,2,2,0,0,0,-10
1570179140452500,-2,-2,-3,-1,-4,3,-7,-13
1570179140452500,2,0,0,-1,-2,7,-6,-8
1570179140467460,0,-2,-4,-3,2,-7,1,-37
1570179140467460,0,1,1,-2,0,3,18,-19
1570179140468458,-4,-3,-1,-1,2,6,7,-6
1570179140468458,3,2,-1,2,-1,-4,0,-15
1570179140489401,-2,-2,-1,-2,2,0,4,-13
1570179140489401,-3,-1,-2,-1,-2,-2,-1,-9
1570179140492394,-1,0,-1,-1,-2,1,4,-11
1570179140492394,0,0,0,0,0,2,-5,-2
1570179140503625,-1,-3,-1,1,2,2,0,0
1570179140503625,3,1,1,0,-1,-5,-7,4
1570179140512341,0,1,-2,-2,0,0,1,-5
1570179140512341,-2,-1,-1,-1,-2,0,0,-1
1570179140527300,-6,-5,-2,-1,1,1,0,-8
1570179140527300,-1,0,2,-3,-1,-4,-5,0
1570179140529295,1,0,-1,0,-1,2,-1,3
1570179140529295,-3,-3,-1,0,1,4,2,1
1570179140550238,3,2,1,0,0,-4,-1,-1
1570179140550238,2,0,-2,0,-1,-1,-3,-12
1570179140551721,-6,-2,-1,-3,-1,0,1,-4
1570179140551721,6,2,-1,-1,-1,0,2,6
1570179140563256,-4,-2,-1,-1,0,-6,-8,1
1570179140563256,2,-1,-1,-1,0,0,0,11
1570179140572220,-3,-1,0,0,0,2,-2,4
1570179140572220,1,0,1,0,0,-1,1,2
1570179140587171,-2,0,-2,0,0,0,0,-3
1570179140587171,-2,-1,-1,-2,-1,0,1,4
1570179140589135,-2,-1,-1,-2,-2,0,-1,3
1570179140589135,0,1,-1,0,-2,-1,0,3
1570179140610102,-1,-1,-2,-3,-1,0,3,6
1570179140610102,-4,-1,2,1,-3,-1,-7,-1
1570179140611076,-2,0,0,0,0,-2,-3,-3
1570179140611076,0,-1,0,-1,-2,-3,-4,-1
1570179140623097,-1,-1,-1,0,1,0,3,-2
1570179140623097,-2,-1,-3,0,-1,-2,3,7
1570179140632507,-5,-2,-2,-2,-1,-1,-3,-12
1570179140632507,2,0,1,0,0,4,1,7
1570179140645983,1,3,-3,-1,-1,1,-1,5
1570179140645983,-2,-7,2,-1,-4,-3,-4,4
1570179140655148,0,-2,-1,-1,0,-1,1,8
1570179140655148,-1,-1,0,-1,-1,0,-5,-8
1570179140669918,-3,-2,6,2,0,-1,-3,-9
1570179140669918,0,4,-2,-2,-1,-1,1,-6
1570179140670916,3,0,0,0,-2,-1,2,5
1570179140670916,-3,-3,-4,0,-2,-3,1,-7
1570179140683882,1,0,-1,-1,-1,0,-1,-2
1570179140683882,1,-1,-2,1,0,0,-1,-3
1570179140692857,1,-1,2,-1,0,3,8,2
1570179140692857,-3,0,-1,-1,0,0,1,-2
1570179140706819,-7,0,0,1,-1,0,-7,-9
1570179140706819,2,1,-2,-1,-1,-1,0,2
1570179140708927,-3,-2,-1,-2,-2,-2,-9,-3
1570179140708927,4,2,1,-1,0,-2,0,3
1570179140729876,-3,-1,0,2,1,0,-1,-4
1570179140729876,-3,-3,0,0,-1,2,3,1
1570179140730873,1,-1,0,1,1,0,6,3
1570179140730873,-3,-2,1,-2,0,1,0,-2
1570179140743878,0,-2,-1,-2,-2,-3,-9,-3
1570179140743878,-1,1,-3,-1,-2,-2,-4,-2
1570179140752816,-1,-1,-1,0,0,0,-2,3
1570179140752816,-1,0,-2,-1,-1,0,5,0
1570179140766778,3,-3,-1,-1,0,2,2,3
1570179140766778,-1,0,-2,-1,1,1,4,0
1570179140768773,-2,1,-1,-1,-2,0,-3,-10
1570179140768773,0,-1,-1,1,0,-1,6,9
1570179140789717,-5,-1,-2,0,-2,-2,-19,-17
1570179140789717,5,1,-1,0,0,-5,-9,9
1570179140791743,1,-2,0,-2,0,0,4,10
1570179140791743,-2,-2,-2,-1,-1,-1,2,-1
1570179140812656,0,-1,-1,-2,-1,0,11,3
1570179140812656,-8,-1,0,-1,1,1,2,-17
1570179140813692,0,2,-1,2,2,1,0,3
1570179140813692,-1,-1,0,-2,-3,-1,-2,5
1570179140827681,0,-3,-2,-4,-3,-3,8,5
1570179140827681,1,1,-1,0,0,0,-7,10
1570179140828641,1,-2,-1,-2,0,-3,-1,8
1570179140828641,-2,0,-2,0,0,-2,-8,-10
1570179140850199,-2,0,1,1,2,1,0,-5
1570179140850199,3,-1,-1,-1,0,2,7,15
1570179140851581,2,-1,2,0,0,0,-2,-1
1570179140851581,-1,-1,2,0,-2,-3,-8,-16
1570179140872495,-15,-3,-2,-2,-2,-3,2,-7
1570179140872495,5,0,0,0,-1,0,0,-3
1570179140873492,4,0,-2,1,-2,0,-2,3
1570179140873492,4,1,0,0,0,1,6,18
1570179140887461,2,0,1,0,1,0,-4,4
1570179140887461,-5,-2,1,0,0,-1,-2,-10
1570179140888459,0,-1,0,0,-1,0,1,-5
1570179140888459,-4,-1,-2,-2,-1,0,-11,-8
1570179140909397,7,-1,-2,-1,-1,-1,-4,2
1570179140909397,0,-1,-2,-1,0,-2,-4,3
1570179140911393,0,0,0,-2,-1,-1,-5,-1
1570179140911393,-4,-2,-1,0,-2,1,6,-5
1570179140932376,-1,0,-1,1,1,1,2,-12
1570179140932376,0,-2,1,-1,-3,1,-1,-12
1570179140934331,-6,0,-2,-1,-1,0,0,-8
1570179140934331,0,1,0,1,1,-1,-2,5
1570179140946299,4,0,-1,-1,-1,-1,1,15
1570179140946299,3,-2,-1,-1,0,0,3,8
1570179140953345,-8,-2,0,-1,0,-1,-1,-10
1570179140953345,11,0,-2,0,-1,-1,-1,30
1570179140970235,3,0,-1,-1,-3,-2,-2,7
1570179140970235,2,0,-1,0,1,1,4,9
1570179140971232,-4,0,0,1,-1,0,-1,-45
1570179140971232,-1,-1,0,0,0,-2,-4,-62
1570179140992175,1,0,-2,-2,0,-1,2,-58
1570179140992175,-4,-1,-2,-1,-1,-1,-1,-46
1570179140994171,3,-1,-2,-1,-1,-1,-2,-5
1570179140994171,-6,-1,0,0,0,0,1,7
1570179141006251,1,-2,-2,-2,0,1,1,30
1570179141006251,-4,-1,0,-1,-2,-2,-2,-23
1570179141014208,1,0,-2,0,0,0,-2,-8
1570179141014208,0,-3,-2,-2,0,0,1,8
1570179141030074,-1,0,0,0,1,2,0,20
1570179141030074,-4,0,-2,-1,-1,0,-5,42
1570179141031072,1,0,0,0,-1,-2,1,45
1570179141031072,0,1,2,-2,0,-1,2,33
1570179141052262,-2,-1,0,0,1,0,-3,18
1570179141052262,-3,-3,0,0,2,-1,-2,11
1570179141054009,-1,-2,-1,-3,-2,1,10,9
1570179141054009,-4,0,-1,-1,0,-2,-10,11
1570179141066976,4,-1,-1,0,-1,1,2,22
1570179141066976,-3,-1,-2,0,-2,-1,3,10
1570179141072994,3,-3,-3,-1,-1,-3,-10,19
1570179141072994,-2,-3,-4,-1,-1,-1,6,1
1570179141089915,-9,-3,-2,0,-1,-1,1,-6
1570179141089915,6,0,-1,-2,-2,0,-1,13
1570179141090912,-1,0,1,2,0,1,3,12
1570179141090912,3,-1,2,1,-1,-1,-5,-3
1570179141111857,3,2,2,0,0,-3,-5,-8
1570179141111857,-5,-1,-1,-2,-1,0,0,-10
1570179141113932,-4,-1,-4,-1,-2,-2,-1,-8
1570179141113932,-17,-3,-3,-2,-3,-1,-1,-60
1570179141127014,3,2,1,1,2,2,6,10
1570179141127014,-1,-1,0,0,-1,2,4,-6
1570179141133797,2,0,0,2,0,-1,-5,5
1570179141133797,0,-1,-1,0,0,1,2,6
1570179141149755,-1,-1,-1,-1,-2,0,-2,-1
1570179141149755,-1,0,1,0,-2,0,-1,-7
1570179141151749,-2,-3,-2,-2,-3,-3,1,-28
1570179141151749,-5,1,1,1,1,1,-4,13
1570179141172693,1,0,-1,-1,0,-1,0,-3
1570179141172693,4,0,0,-2,-2,2,0,8
1570179141174045,-4,-2,-1,-1,-1,-2,-6,-4
1570179141174045,0,-1,-1,-1,-2,-1,2,5
1570179141186719,-1,-1,-1,2,0,-1,0,-2
1570179141186719,-2,0,-1,-1,0,-2,-7,2
1570179141193637,-1,0,1,-1,-1,-1,3,4
1570179141193637,9,0,-1,-2,-1,1,4,19
1570179141210593,-4,-1,0,-1,0,-1,-4,-11
1570179141210593,-1,-1,-1,0,0,-1,3,-8
1570179141211616,4,0,0,0,0,2,5,23
1570179141211616,2,0,0,-1,-1,-1,-1,6
1570179141232537,1,0,-1,-1,1,-1,-1,-4
1570179141232537,1,0,0,1,0,-1,-1,3
1570179141233536,-2,-1,-1,-2,-1,0,-2,-6
1570179141233536,-3,0,0,1,1,0,-4,-7
1570179141246566,0,-2,-3,-1,-2,0,2,3
1570179141246566,2,-3,-2,0,-1,-2,-2,-3
1570179141253708,-1,-1,-2,0,-1,-3,-4,3
1570179141253708,1,-1,-2,-1,0,2,2,-5
1570179141269440,-1,-1,-1,-2,0,-1,-1,-6
1570179141269440,-1,-2,0,0,0,1,-3,-2
1570179141271688,-2,0,0,0,1,0,3,-7
1570179141271688,-2,1,1,0,0,0,5,-4
1570179141292562,5,3,2,2,-1,0,-2,19
1570179141292562,1,1,-1,-2,0,-2,0,-3
1570179141294376,3,0,0,-1,0,0,-1,8
1570179141294376,-7,-4,-2,-2,-2,-4,-2,-8
1570179141306420,-2,0,-1,-1,-2,-1,-3,-5
1570179141306420,0,-3,1,-1,-1,-3,1,-3
1570179141315320,0,0,1,0,0,0,-3,-2
1570179141315320,3,0,1,0,0,-2,-2,0
1570179141330418,-2,-2,1,-1,-2,-1,2,-2
1570179141330418,0,0,-1,0,-1,-1,-3,-3
1570179141331290,-2,-2,-2,-2,-1,-2,0,-5
1570179141331290,4,-2,-4,-2,0,0,-5,6
1570179141352424,-4,-1,-1,-1,0,0,1,-11
1570179141352424,-2,0,0,-1,-2,-1,0,-9
1570179141354209,1,0,-1,-1,0,2,1,8
1570179141354209,-2,-2,1,-1,-3,0,2,-4
1570179141366184,0,0,1,0,1,0,-1,0
1570179141366184,-3,-1,-1,1,0,-1,-1,5
1570179141375153,-1,1,1,0,-1,1,-1,-11
1570179141375153,1,0,-1,2,1,-1,-4,3
1570179141390161,1,-2,-3,-1,-1,-1,3,-1
1570179141390161,3,1,0,-1,-1,-2,-2,0
1570179141391111,-5,-3,0,-2,-3,-1,2,-13
1570179141391111,-1,1,2,1,1,0,-4,-4
1570179141412055,4,1,0,-1,-2,-1,6,4
1570179141412055,-2,0,-1,0,-2,2,3,5
1570179141414050,-3,-1,-2,-1,0,0,-1,-3
1570179141414050,-2,-1,-1,-2,1,-1,-2,-7
1570179141426110,4,-2,1,1,1,0,0,5
1570179141426110,-1,1,-1,-1,-1,0,-3,-6
1570179141434993,2,-1,-2,-1,-1,-1,-3,-1
1570179141434993,-2,-1,0,0,-2,-2,1,3
1570179141450082,0,-1,-1,-1,-1,0,-3,3
1570179141450082,0,-2,-2,0,-1,-3,0,3
1570179141451250,0,0,0,1,-1,0,-3,-7
1570179141451250,1,-1,0,-1,1,0,0,-4
1570179141472089,-3,-1,1,1,-1,-1,-1,-6
1570179141472089,-3,0,0,-2,-2,0,-1,-4
1570179141473889,-5,0,-1,-1,-1,-2,-3,-9
1570179141473889,5,-1,-1,-2,-1,0,1,2
1570179141485859,3,-2,-2,-2,0,2,2,18
1570179141485859,1,-1,-1,0,0,0,1,3
1570179141494833,1,0,-1,0,1,0,-1,6
1570179141494833,1,1,-1,0,0,1,-1,6
1570179141509791,-4,-1,-2,-2,-2,0,-3,-14
1570179141509791,-1,1,-1,0,1,0,2,0
1570179141511787,-3,-1,1,-1,-1,-1,0,0
1570179141511787,4,-1,0,-2,0,-1,3,16
1570179141532736,-5,-1,1,0,-1,-1,-2,-3
1570179141532736,-3,1,-1,-1,0,1,-1,-4
1570179141533728,6,2,1,1,0,-3,-15,8
1570179141533728,-1,-3,-4,0,0,-2,0,6
1570179141545697,-2,0,-1,-1,0,-1,-1,-3
1570179141545697,-1,0,0,0,-2,-1,-1,-1
1570179141554891,-3,-2,-1,-1,-1,-1,1,-4
1570179141554891,-4,0,0,0,0,0,0,-10
1570179141570105,5,1,0,-2,-1,0,-1,11
1570179141570105,-1,-2,-1,0,0,-1,-1,-5
1570179141571629,2,0,-1,-1,0,0,6,5
1570179141571629,-6,-3,-2,-1,0,-2,-6,-21
1570179141592576,-4,-2,-2,0,-1,-2,0,-9
1570179141592576,-1,1,-1,-1,0,-1,1,1
1570179141594566,1,-1,0,1,-2,1,4,3
1570179141594566,0,-1,1,0,-1,1,0,0
1570179141606536,-2,1,-1,-1,-1,-3,-5,-12
1570179141606536,-2,-3,0,-1,0,-1,-6,-7
1570179141614513,0,-1,-1,-3,-1,-1,-1,-5
1570179141614513,2,-1,-1,-1,-3,-1,-1,3
1570179141629834,-1,-1,1,-1,0,1,1,-2
1570179141629834,-1,0,0,-2,0,0,-1,2
1570179141631469,0,-1,-1,1,0,2,0,-3
1570179141631469,-8,-2,-2,-1,-1,0,14,-15
1570179141652412,-2,-2,-1,0,-1,-2,-11,-11
1570179141652412,1,-1,-2,-2,2,1,2,6
1570179141654407,-3,-1,-1,1,3,1,-1,1
1570179141654407,0,0,-1,0,0,0,1,5
1570179141666373,-1,-1,-1,2,0,-1,0,-9
1570179141666373,1,0,-3,0,-1,-1,-1,-1
1570179141675350,0,-1,0,-3,-1,-1,-1,1
1570179141675350,-1,-1,0,-1,0,-3,-6,-3
1570179141690316,1,-1,-3,-1,-1,-1,2,2
1570179141690316,0,-2,-1,0,-2,-1,-2,1
1570179141691307,0,-1,-2,0,0,0,0,2
1570179141691307,0,-1,1,0,-2,-1,-3,4
1570179141712251,-1,-2,1,-2,-1,1,1,2
1570179141712251,0,-1,2,0,-2,1,2,2
1570179141714244,-3,-1,-2,-2,0,0,-2,-2
1570179141714244,2,0,0,-1,0,0,-4,3
1570179141735190,2,0,-1,0,-1,0,-1,5
1570179141735190,-2,0,0,1,-1,0,0,-4
1570179141736187,-2,0,-1,-1,-1,0,0,-3
1570179141736187,0,0,-1,0,-2,0,1,3
1570179141750433,-8,-1,0,0,-2,-1,-3,-18
1570179141750433,4,-2,-4,-4,-2,2,9,8
1570179141751409,1,-1,0,-2,-1,-3,1,2
1570179141751409,-1,0,-1,-1,-1,1,1,4
1570179141772086,0,1,0,0,2,-1,-1,3
1570179141772086,-1,-1,0,0,0,0,-1,-2
1570179141773984,1,0,0,2,-1,-1,-2,-1
1570179141773984,-1,0,0,0,-1,-1,-1,-4
1570179141794963,-1,-1,-1,-2,-2,-1,5,3
1570179141794963,0,0,2,2,0,-1,-4,1
1570179141795966,0,-1,-4,-2,-1,0,0,2
1570179141795966,-4,-1,-2,-1,0,-2,-7,-10
1570179141809983,0,-2,1,-2,-2,-1,-1,-7
1570179141809983,-1,-1,0,-2,0,0,-1,0
1570179141810982,0,-1,1,0,-2,-1,0,1
1570179141810982,-1,0,-1,-1,-2,-1,2,-1
1570179141831936,2,0,-1,0,-1,-2,-2,6
1570179141831936,-1,0,-1,0,0,-1,-3,-3
1570179141833919,-5,-1,0,-1,-3,-3,-4,-24
1570179141833919,4,-2,-2,-1,0,0,0,9
1570179141854557,1,1,-1,0,-1,0,2,6
1570179141854557,-2,-1,0,-1,0,0,-2,-2
1570179141856478,-2,-1,0,-1,0,-1,0,7
1570179141856478,0,-1,1,0,0,0,0,-1
1570179141869445,-2,0,0,0,-1,-2,0,3
1570179141869445,-3,-2,-3,-2,-1,-1,1,-5
1570179141876523,-1,-2,-1,-2,-2,-1,-6,0
1570179141876523,2,-1,-2,-1,0,-1,-3,4
1570179141892871,2,1,-1,-1,2,2,6,9
1570179141892871,-1,1,1,0,-1,-1,-1,0
1570179141893871,1,-1,0,0,0,2,4,1
1570179141893871,2,0,1,0,-3,1,0,3
1570179141914813,-1,0,-1,0,0,0,-5,3
1570179141914813,-3,0,0,-1,-2,0,2,-2
1570179141916808,-1,-1,0,-1,1,0,1,2
1570179141916808,-1,2,0,1,-1,-1,-3,-4
1570179141928776,-2,0,-1,0,-1,-1,0,-11
1570179141928776,0,-2,-5,-4,-2,0,10,-2
1570179141935845,-1,0,0,-1,-1,-2,-4,3
1570179141935845,-1,0,-1,-1,0,0,0,-1
1570179141952796,1,1,-1,-1,0,1,2,9
1570179141952796,-2,-1,-1,2,0,-1,-4,-11
1570179141958787,2,-2,-4,-1,0,-1,1,6
1570179141958787,1,-1,0,1,0,-1,0,4
1570179141974896,-1,-1,-2,-1,-1,-2,-1,-1
1570179141974896,0,0,0,-2,-1,0,-4,2
1570179141976733,-2,0,1,-2,-1,0,3,-5
1570179141976733,2,-1,-1,-1,-2,-1,-4,4
1570179141988701,5,1,1,-1,1,-2,-4,12
1570179141988701,-1,-1,0,1,-1,-2,-4,-1
1570179141995803,-2,1,-1,0,0,0,1,-4
1570179141995803,0,-1,-2,-3,1,0,3,-3
1570179142012695,-2,-1,-1,0,-1,-2,-1,-6
1570179142012695,1,-3,0,0,-2,-1,-3,3
1570179142014173,-1,-1,-1,-2,1,-1,-4,0
1570179142014173,-2,-2,1,-1,-2,-1,-2,0
1570179142042860,0,-2,0,-2,-2,1,2,2
1570179142042860,-6,-3,-1,-1,-1,-1,5,-28
1570179142047847,1,-1,-1,1,-1,1,-1,3
1570179142047847,-1,-2,-1,0,1,1,1,-2
1570179142048845,-1,-4,0,-2,0,-2,0,0
1570179142048845,-3,-1,1,0,1,-2,-2,-12
1570179142055827,4,-1,-2,0,-1,0,0,5
1570179142055827,-2,2,0,1,-1,0,-1,0
1570179142072780,1,1,-3,0,-3,2,0,-3
1570179142072780,1,1,1,1,-1,1,-3,12
1570179142073777,-1,0,0,-1,0,-1,-3,-10
1570179142073777,-2,-1,-1,-2,-1,-1,-3,-9
1570179142094722,2,-2,-1,-2,0,0,2,0
1570179142094722,0,1,-1,-1,0,-1,-2,9
1570179142096716,-4,-1,0,-1,-2,-2,0,-5
1570179142096716,-1,-2,-1,0,1,-1,2,2
1570179142109682,-5,-1,-1,0,1,-1,-2,-6
1570179142109682,2,-1,-2,-3,-2,-2,-4,-6
1570179142115888,-4,-1,2,1,1,-1,-2,-5
1570179142115888,1,0,-1,0,-1,-2,1,4
1570179142132619,-9,-4,-1,-2,-2,1,10,-15
1570179142132619,5,2,0,0,1,0,-7,3
1570179142136612,0,-2,-1,-1,-1,0,1,4
1570179142136612,-1,0,-2,-1,-1,-1,-2,0
1570179142154568,0,0,0,0,-2,-1,0,8
1570179142154568,0,-1,-1,-2,1,-1,1,4
1570179142156763,-2,1,-1,-1,-1,-2,0,-3
1570179142156763,4,-1,0,1,0,0,1,10
1570179142168525,-1,0,-2,0,0,-1,-5,-3
1570179142168525,-2,-2,0,1,-1,-1,0,2
1570179142177498,1,1,-2,0,-1,-2,-2,3
1570179142177498,-3,-1,-1,1,-1,0,-2,-6
1570179142192457,1,2,-1,-1,-2,-1,-2,2
1570179142192457,0,-2,0,-1,-2,-2,-2,-7
1570179142193456,-8,-4,-2,-2,-2,0,4,-13
1570179142193456,0,-1,-2,-2,0,-1,0,-6
1570179142214399,2,-1,0,0,1,-1,-4,-1
1570179142214399,-2,0,0,1,-1,0,0,2
1570179142216394,3,0,0,-2,0,0,2,3
1570179142216394,-4,-1,1,0,1,-1,-1,0
1570179142228362,-2,-1,0,0,0,-1,1,-9
1570179142228362,4,2,-1,-1,-1,-3,-10,10
1570179142237338,4,1,1,1,0,0,-3,5
1570179142237338,-1,-3,-1,-1,-3,-1,-1,2
1570179142252298,0,-1,-1,0,-2,-2,-1,-1
1570179142252298,-4,-1,-2,-1,-1,0,4,3
1570179142254292,3,-1,-2,-2,-1,1,-1,3
1570179142254292,0,-1,-1,0,-1,-3,-5,-3
1570179142275347,-1,-2,-2,0,0,-1,-3,1
1570179142275347,-6,0,0,0,0,0,0,-13
1570179142277233,2,-1,0,-3,0,-1,-4,4
1570179142277233,1,1,-1,-1,1,0,3,0
1570179142288449,1,0,-1,-1,0,0,-3,-1
1570179142288449,-2,-1,0,0,-1,1,-1,-6
1570179142297178,1,0,-1,0,-2,-1,2,7
1570179142297178,-1,0,-1,1,0,0,-3,-3
1570179142312244,0,0,-1,-2,-3,-1,-3,-8
1570179142312244,0,-2,0,-1,-1,-1,2,5
1570179142314408,-2,-2,-1,-1,0,1,0,-5
1570179142314408,-1,-1,-1,0,-2,-1,0,-2
1570179142335178,2,-1,0,-1,-1,0,1,6
1570179142335178,0,-2,-1,-1,1,-1,3,6
1570179142337176,-2,2,1,0,-1,-1,-2,-4
1570179142337176,0,1,1,-2,1,0,-1,-3
1570179142348228,0,0,0,0,0,-1,-2,1
1570179142348228,0,0,0,-1,0,0,2,4
1570179142357534,-2,-1,-1,0,0,0,-1,-4
1570179142357534,-3,-3,0,-2,-1,0,12,-9
1570179142372088,0,-1,0,-1,0,-2,-1,0
1570179142372088,-2,-2,-3,-1,-3,-2,2,2
1570179142374076,-4,0,-1,0,0,-1,-2,-6
1570179142374076,2,-1,0,-2,-2,-1,3,7
1570179142395140,1,0,0,0,0,1,2,10
1570179142395140,2,0,-2,-1,0,-1,0,0
1570179142396795,-2,-1,-2,-1,-1,0,2,-3
1570179142396795,-1,1,0,0,0,1,-4,-4
1570179142408981,0,1,-1,-1,0,-1,-2,-1
1570179142408981,1,2,1,-1,-1,0,-1,3
1570179142416965,4,1,0,1,-2,-1,1,5
1570179142416965,-5,0,-2,-2,-1,-2,-5,-9
1570179142431920,-2,1,-1,-1,1,-1,-1,3
1570179142431920,0,-1,-1,-1,0,0,-1,-1
1570179142433915,-1,-1,0,-2,0,-1,-2,0
1570179142433915,-2,-1,-1,0,-1,-1,-2,-3
1570179142454859,-3,-1,1,0,-1,0,1,-6
1570179142454859,0,1,-2,1,-1,-1,1,4
1570179142456853,-1,-4,-2,0,-1,1,6,-18
1570179142456853,4,1,-1,0,1,0,-10,13
1570179142468823,0,-1,-3,0,-1,-1,-3,-4
1570179142468823,0,-1,1,-1,0,0,1,5
1570179142477797,-1,-1,-2,-1,0,0,0,1
1570179142477797,-2,0,-2,-1,-1,2,2,-6
1570179142491803,2,0,-1,1,-2,-3,0,2
1570179142491803,1,1,-2,-1,-1,-1,-2,-2
1570179142493808,-1,1,-1,0,-2,-2,-3,3
1570179142493808,-1,0,0,-2,-1,-1,1,5
1570179142514793,-5,0,-1,-1,0,-1,-2,-4
1570179142514793,0,-3,1,0,0,-1,-1,-1
1570179142516693,-1,0,-1,0,2,-1,0,2
1570179142516693,2,-1,0,-2,-3,-1,-2,1
1570179142528660,0,-1,1,-1,-2,-1,0,2
1570179142528660,1,-2,-1,-1,-2,-1,-2,-9
1570179142537635,0,0,-1,-1,-1,-1,-1,3
1570179142537635,-1,-1,-1,0,-2,-1,-5,2
1570179142552695,-4,-2,-2,0,0,1,-1,-10
1570179142552695,-1,0,-2,0,0,0,0,0
1570179142553593,3,1,0,-1,-1,-1,-4,9
1570179142553593,0,-1,0,-1,0,-1,2,-3
1570179142574536,2,1,2,0,-1,-2,-12,7
1570179142574536,-1,0,-1,0,0,-1,1,2
1570179142576531,-2,-4,-1,-1,-1,0,1,-5
1570179142576531,-1,-2,0,0,0,-1,-2,-1
1570179142588698,-3,-1,-1,0,-1,1,3,-6
1570179142588698,5,0,-2,0,-1,-1,0,14
1570179142597475,2,1,0,-2,0,-3,-3,1
1570179142597475,-1,0,-5,0,-1,1,3,-4
1570179142612435,2,1,0,-2,1,1,2,3
1570179142612435,-1,-1,0,-2,-3,-1,-2,-1
1570179142613432,-1,1,-1,0,-1,1,0,-2
1570179142613432,-1,-2,0,0,0,-1,0,3
1570179142634377,-1,-1,-2,-1,-2,1,2,-1
1570179142634377,-5,-2,-1,-2,0,1,-4,-11
1570179142636736,2,1,-2,0,1,0,2,15
1570179142636736,0,0,-1,0,0,-2,0,-5
1570179142648339,0,-1,1,-3,-1,-1,-1,2
1570179142648339,-3,-2,-1,0,1,0,1,-1
1570179142657337,0,-1,1,-1,0,0,-1,-3
1570179142657337,0,-1,0,1,-1,0,0,-1
1570179142672276,0,-1,0,-1,0,-1,1,1
1570179142672276,0,-1,1,-1,0,0,-3,-1
1570179142674271,-3,0,-1,-1,-1,-1,-2,-3
1570179142674271,0,1,1,1,1,-4,-20,-4
1570179142695214,3,1,0,-1,1,-1,1,5
1570179142695214,0,-1,1,-1,0,1,1,1
1570179142696212,2,-1,-1,0,-1,-2,-3,1
1570179142696212,-3,-2,-1,-2,0,-1,5,-5
1570179142717156,-2,-3,-2,-3,-1,-3,0,-1
1570179142717156,1,0,-2,0,0,-1,-2,2
1570179142719190,-1,1,0,0,-1,0,2,-2
1570179142719190,1,1,1,-1,-1,0,3,2
1570179142732297,-6,-1,-2,-2,-1,-1,0,-7
1570179142732297,4,0,-2,0,-2,-2,2,5
1570179142734152,-1,-1,0,-1,-1,-1,-2,-4
1570179142734152,1,0,-1,2,-2,0,1,2
1570179142755055,-1,-2,0,0,-1,-1,-2,-4
1570179142755055,-4,-1,-1,0,-1,-1,-1,-6
1570179142756052,-1,-1,0,-1,-1,0,-2,1
1570179142756052,0,-1,0,-1,-1,-2,0,-1
1570179142777001,-2,0,-2,0,0,0,-1,2
1570179142777001,0,-1,0,0,0,0,1,3
1570179142779155,-3,-3,2,1,-2,-1,0,3
1570179142779155,0,0,-1,-1,-1,0,3,-2
1570179142791961,1,0,0,0,-2,0,-3,-1
1570179142791961,0,0,0,-2,0,1,1,1
1570179142793952,-1,0,0,-1,-1,4,6,-3
1570179142793952,-1,-1,-1,-1,-1,-1,0,-1
1570179142813902,0,-1,-2,2,-2,0,1,0
1570179142813902,1,1,-1,-1,-2,0,-4,-5
1570179142822880,-1,1,0,0,0,0,2,5
1570179142822880,-1,-1,-2,-2,0,0,1,8
1570179142836837,1,-2,-3,-2,-1,-3,-1,-3
1570179142836837,-1,-1,0,0,-1,-1,3,-1
1570179142838832,-4,0,-3,-1,-1,-1,-3,-8
1570179142838832,-2,-1,-3,1,-1,-1,0,-9
1570179142851798,5,0,0,1,-1,1,0,10
1570179142851798,-3,-1,0,0,-1,-3,-1,-5
1570179142858905,2,0,0,0,0,-2,-3,-2
1570179142858905,-1,-2,1,-2,-1,-1,-3,-6
1570179142874736,-4,0,-2,0,-1,-1,-1,0
1570179142874736,-3,-1,-1,-1,-1,-1,-3,-7
1570179142876731,0,0,-1,-2,-1,-1,0,-2
1570179142876731,-2,0,0,-2,0,0,4,1
1570179142897674,1,0,1,-4,-1,0,0,0
1570179142897674,-1,-2,-1,-1,-1,-1,0,1
1570179142898672,0,0,-2,0,-1,-1,-2,3
1570179142898672,-3,-1,-2,-1,0,-1,-1,-3
1570179142911691,-3,-4,-1,-2,-2,0,0,-7
1570179142911691,2,0,1,2,0,-1,0,7
1570179142918619,-2,-3,-1,-3,-1,-2,-4,-11
1570179142918619,-1,0,-2,-1,-1,0,-1,2
1570179142935573,-1,1,-1,-1,1,0,0,-4
1570179142935573,-2,-1,-1,-1,-1,-1,1,-1
1570179142936573,1,-1,-2,0,-1,0,0,2
1570179142936573,-2,-1,-2,-1,-2,0,1,-6
1570179142957515,5,0,0,0,0,-2,-15,14
1570179142957515,-1,0,-1,0,-2,-1,-4,-5
1570179142963498,-1,0,-1,-2,0,-2,0,-2
1570179142963498,1,0,-3,0,-3,-1,0,-1
1570179142971637,-1,-1,0,1,-1,0,4,-3
1570179142971637,0,-2,-1,-1,0,0,0,2
1570179142978851,0,-2,0,-1,0,0,-3,-1
1570179142978851,4,-1,0,-1,-1,-1,0,3
1570179142994487,-3,-3,-1,-1,-2,-1,1,-6
1570179142994487,0,0,0,-3,-2,-1,-1,-2
1570179142996410,1,-2,0,0,-2,0,3,10
1570179142996410,-1,0,0,-2,2,1,-1,0
1570179143017354,-4,-1,-2,-1,2,0,1,-9
1570179143017354,0,0,-3,1,-1,0,4,18
1570179143019350,1,0,-1,0,-2,-1,0,4
1570179143019350,-1,-2,-1,0,-3,-1,-6,-15
1570179143031316,-1,0,3,-1,-1,0,0,1
1570179143031316,-3,0,-1,-1,-2,-2,-1,-3
1570179143038397,-4,1,-1,0,1,0,-3,-9
1570179143038397,0,-1,-1,0,0,-1,0,9
1570179143055252,-3,0,-1,-3,-3,-1,0,-6
1570179143055252,-1,0,1,0,1,-1,-2,-4
1570179143056415,1,-1,-1,1,-1,-1,-1,0
1570179143056415,0,0,1,-1,0,-1,-1,2
1570179143077281,-1,1,0,-1,0,0,1,-2
1570179143077281,1,-1,0,0,-1,-1,-1,0
1570179143079189,-1,0,-2,-2,0,0,-2,-4
1570179143079189,-1,1,0,0,-1,0,1,0
1570179143091156,0,0,-1,-1,-1,-1,0,1
1570179143091156,-3,-2,-2,-2,0,-1,-1,-1
1570179143098264,5,-2,-1,0,-2,0,-1,6
1570179143098264,1,0,-1,-1,-1,-2,-1,0
1570179143115169,-1,-1,-1,1,0,-1,-2,-4
1570179143115169,0,-2,0,-1,-2,-1,-1,3
1570179143116090,-5,-2,0,-1,0,0,-1,-6
1570179143116090,1,-1,0,0,1,0,0,2
1570179143137035,3,2,-2,1,1,1,4,17
1570179143137035,-2,-1,0,-1,-1,-1,-3,-13
1570179143139321,0,1,-2,-1,-1,-1,-1,-1
1570179143139321,-2,0,-3,0,-1,0,-1,-3
1570179143151997,-1,-2,0,-1,0,-1,-1,-4
1570179143151997,0,1,0,-1,0,-1,1,-1
1570179143157977,-1,-1,0,0,-1,-2,-1,-2
1570179143157977,-1,-2,1,-2,1,-2,-1,0
1570179143174934,-2,-2,-1,-2,-2,-1,0,-1
1570179143174934,-2,-1,0,0,-1,1,0,4
1570179143175930,3,1,1,-1,0,-1,1,-2
1570179143175930,1,-2,-2,-1,-1,-1,-1,4
1570179143196876,-2,1,-2,-2,-1,-3,-2,-6
1570179143196876,-1,-1,0,-2,1,0,-2,-3
1570179143198911,-3,-1,-1,0,1,0,-1,-4
1570179143198911,-4,-3,-3,-2,-3,1,15,-8
1570179143210836,4,-1,1,1,-1,-1,-1,5
1570179143210836,-3,-2,-2,-3,-2,-1,-2,-8
1570179143220164,-2,-2,0,-2,-3,1,-1,-4
1570179143220164,-3,1,1,-1,0,0,0,1
1570179143234774,-2,-2,0,0,0,0,1,-2
1570179143234774,0,0,-2,0,0,1,0,1
1570179143236766,0,-1,0,0,-1,-1,0,1
1570179143236766,1,0,1,2,-1,-2,-5,-2
1570179143257711,0,-1,1,-1,-2,-1,-1,4
1570179143257711,1,0,-1,0,-2,-2,-3,-3
1570179143258709,-2,-1,0,-2,0,-2,1,2
1570179143258709,-1,2,0,-2,-2,-2,-1,2
1570179143270738,-1,-3,0,-1,-1,1,-1,-4
1570179143270738,-3,-1,-1,1,-1,1,1,-5
1570179143280192,0,0,1,-1,-1,0,2,3
1570179143280192,-2,-1,0,-1,0,0,-3,-11
1570179143302592,-1,-1,-2,-1,0,0,1,6
1570179143302592,3,-1,-2,-1,-1,0,2,7
1570179143303588,-2,-1,-1,-1,0,0,-1,-4
1570179143303588,0,-1,0,-1,0,-1,-3,2
1570179143317726,-2,0,0,0,-2,0,-1,-5
1570179143317726,6,1,0,-1,-1,-3,-16,9
1570179143323534,0,-1,-1,0,0,-1,-1,2
1570179143323534,2,0,0,1,-1,-1,3,10
1570179143330764,-1,-1,0,0,-1,-1,-5,-16
1570179143330764,-1,0,0,0,-1,0,4,-2
1570179143339492,0,-1,-2,-2,-2,0,-2,-1
1570179143339492,0,0,0,-1,-1,0,-3,3
1570179143354451,-2,-1,1,-1,1,0,1,-1
1570179143354451,-1,-1,0,-1,-1,0,2,-6
1570179143356502,1,0,-1,0,0,-2,-1,-3
1570179143356502,-4,-1,-1,-2,-1,0,0,-6
1570179143377390,2,0,-1,-1,0,-1,1,4
1570179143377390,0,-1,-2,-1,-2,0,0,1
1570179143378388,0,0,1,0,-1,-1,-1,4
1570179143378388,-1,-1,-1,1,-2,-2,-3,1
1570179143391355,-3,0,-1,-1,-2,-1,-2,-8
1570179143391355,0,-1,-1,-1,-1,0,1,0
1570179143400330,-1,-1,-1,1,0,0,0,1
1570179143400330,-2,-1,-1,0,1,-1,-2,8
1570179143415289,-1,-3,-1,-1,0,-1,0,-3
1570179143415289,-2,1,0,0,-1,-1,1,5
1570179143416286,-3,-2,-2,-1,-1,1,-3,-2
1570179143416286,0,-1,0,0,-1,-1,-2,-3
1570179143437558,2,0,0,0,0,1,2,7
1570179143437558,-2,-1,2,2,-2,-1,-1,-6
1570179143439226,-1,0,-1,0,-1,0,-1,-4
1570179143439226,1,-1,-1,-3,0,0,-2,3
1570179143451194,7,2,1,-1,-1,-4,-13,14
1570179143451194,0,0,0,-1,-1,0,0,-2
1570179143460171,-2,-2,-3,0,-1,0,-1,-1
1570179143460171,3,0,-1,-1,-2,-1,-1,-1
1570179143475128,-3,0,1,1,0,1,5,4
1570179143475128,-2,-3,-2,0,-2,-1,1,-3
1570179143476729,2,-2,1,-1,-2,-1,-1,0
1570179143476729,0,0,0,0,-1,1,2,2
1570179143497070,-2,-2,0,-1,-1,0,0,0
1570179143497070,1,-1,0,-1,0,-2,0,-1
1570179143499183,-2,0,0,-1,1,0,3,-3
1570179143499183,0,-2,-1,0,-1,1,-1,-5
1570179143511032,-1,1,-4,0,0,-2,-1,-5
1570179143511032,-1,-2,-2,0,-1,0,0,1
1570179143520008,-1,0,-1,-2,-2,-1,-3,-2
1570179143520008,-2,-2,-1,0,0,-1,-1,-11
1570179143534970,-3,-1,0,0,0,-1,-1,-1
1570179143534970,-1,-2,-1,-1,-1,0,0,-1
1570179143535966,0,-1,0,1,0,-1,0,2
1570179143535966,-1,-1,-1,1,0,0,1,-2
1570179143557908,-4,-2,-1,-1,-2,-1,2,-8
1570179143557908,-1,0,0,-1,-1,-1,0,5
1570179143558904,-5,0,-2,2,-2,-2,-2,-9
1570179143558904,1,0,1,-1,-3,-2,-2,7
1570179143571020,-3,-2,0,-1,-1,1,-1,-4
1570179143571020,1,-1,-1,-3,-1,-1,1,5
1570179143579881,-1,-1,0,-2,0,-1,1,1
1570179143579881,-1,-2,-1,-1,-3,-1,-2,-4
1570179143594809,1,0,-2,-1,0,0,-1,3
1570179143594809,-1,-2,0,1,1,-1,-1,-5
1570179143596803,0,0,-3,-1,-1,-1,-1,1
1570179143596803,-3,0,-1,0,0,-2,0,-4
1570179143616753,-4,-4,-3,-2,-1,2,13,-12
1570179143616753,0,2,-1,-1,2,0,-2,7
1570179143618745,2,0,0,0,0,-1,1,1
1570179143618745,1,-2,-1,0,0,0,1,3
1570179143639688,0,-1,-1,1,-1,-2,0,2
1570179143639688,-2,-2,-1,0,-1,0,1,-4
1570179143641683,-1,-2,0,-3,-2,0,1,7
1570179143641683,-1,1,-2,-2,0,1,0,-2
1570179143654725,1,0,0,0,-2,-2,-3,0
1570179143654725,-4,1,-1,1,1,-1,-2,-7
1570179143655646,3,0,1,1,1,-1,-1,4
1570179143655646,-3,-1,0,-1,1,0,-1,-3
1570179143677587,1,0,-2,1,-2,-1,-3,1
1570179143677587,-1,1,-1,-2,-1,1,-1,-5
1570179143678585,-1,-1,0,-1,-3,-1,2,6
1570179143678585,2,-1,-1,-2,0,-2,-2,2
1570179143700533,0,-1,0,1,-1,0,-3,-1
1570179143700533,0,-2,0,-1,-2,-1,-1,-2
1570179143705576,-2,-1,-1,-1,-1,1,0,-5
1570179143705576,-1,-1,-1,0,-3,-1,-1,-5
1570179143714489,0,1,0,0,1,0,-2,3
1570179143714489,-1,-2,-1,-1,-1,-1,-1,-1
1570179143716485,-1,0,-1,-1,1,0,-1,-3
1570179143716485,-2,0,0,1,-1,1,0,1
1570179143737490,0,-1,-1,0,-1,0,0,-1
1570179143737490,-1,0,0,1,-1,-2,-1,0
1570179143738425,0,-1,0,0,-2,-1,-1,-1
1570179143738425,0,-1,0,1,-2,-1,0,0
1570179143759433,1,0,-1,-1,0,0,1,2
1570179143759433,-2,-1,-1,-1,-2,1,-1,3
1570179143761363,-2,-2,-1,-1,-1,-2,-2,-8
1570179143761363,0,1,-3,0,-1,0,2,3
1570179143774328,-1,-1,0,-2,-3,-2,-1,-1
1570179143774328,-2,0,-1,1,1,-2,1,3
1570179143781310,-3,0,0,-1,-1,-1,-1,-9
1570179143781310,2,-2,0,0,-1,-1,-2,6
1570179143797267,-1,0,1,-1,-2,0,0,2
1570179143797267,0,0,-1,0,-1,0,0,-1
1570179143799262,-3,0,1,0,0,-2,0,0
1570179143799262,-4,-3,0,-1,-1,0,-3,-3
1570179143820207,-2,1,-2,-1,0,0,-3,2
1570179143820207,1,0,0,-1,0,-1,0,-2
1570179143821204,0,-1,-2,1,-1,2,0,1
1570179143821204,-1,0,-1,0,-2,-1,0,-1
1570179143834169,-2,0,-1,0,-1,0,-2,-3
1570179143834169,0,0,-2,0,-2,1,0,-3
1570179143841154,1,-2,-2,0,-1,0,-2,1
1570179143841154,-1,-1,1,0,0,0,0,0
1570179143857107,-1,-2,0,-1,0,0,-2,-5
1570179143857107,3,-1,0,0,1,-1,1,4
1570179143859102,3,0,0,-1,-2,0,-1,-8
1570179143859102,-1,-1,0,-1,-1,-2,-1,-3
1570179143880045,1,-2,0,0,-2,0,0,2
1570179143880045,0,-1,-3,0,-1,0,0,2
1570179143881044,2,-2,-1,-1,-1,-2,0,5
1570179143881044,-4,-2,-1,-1,2,-1,-3,-15
1570179143894403,2,-2,0,0,0,-1,3,2
1570179143894403,-1,-1,-1,0,-1,-2,-1,-2
1570179143900992,1,0,-1,0,1,-1,1,3
1570179143900992,-2,0,-1,0,-1,-2,-3,-8
1570179143917089,-3,0,0,-2,0,-1,-2,-1
1570179143917089,1,0,1,0,-1,1,0,1
1570179143918942,-4,-1,0,0,0,0,-1,-1
1570179143918942,1,-1,-2,0,0,-1,0,5
1570179143939886,-1,0,-1,0,0,-3,-1,0
1570179143939886,-2,0,0,-1,-1,-2,0,2
1570179143940884,1,-2,-2,0,0,0,-1,-6
1570179143940884,1,0,-1,0,-1,1,1,5
1570179143953903,0,0,-1,1,-1,1,-1,-4
1570179143953903,2,-2,0,-1,-1,0,-1,1
1570179143960851,1,0,0,-1,-2,-2,1,14
1570179143960851,-2,0,0,-1,0,-1,-1,-4
1570179143977786,3,2,0,0,0,0,0,2
1570179143977786,-1,1,0,0,0,-2,-1,-7
1570179143978784,1,-1,1,-2,-1,0,0,7
1570179143978784,-2,0,0,0,-2,-1,2,3
1570179143999729,-1,0,0,-1,-1,-2,-1,0
1570179143999729,0,-1,-2,-1,1,-1,-2,-2
1570179144001838,-2,0,-3,-1,0,-1,-1,-3
1570179144001838,0,0,0,-1,0,-1,0,1
1570179144013691,-1,-3,-2,0,-1,-2,-1,-2
1570179144013691,0,-2,0,-1,-3,-1,-4,-10
1570179144021115,-2,-2,0,0,1,1,-1,-5
1570179144021115,0,-2,-1,1,-1,0,0,3
1570179144036753,0,0,0,0,0,-1,0,-8
1570179144036753,-4,-1,-2,-1,-1,-1,-1,-5
1570179144043615,-3,0,0,-1,-1,-2,-3,0
1570179144043615,2,1,-1,-1,1,0,0,2
1570179144059664,-3,-1,-1,-1,-1,0,-1,1
1570179144059664,0,-1,-1,-1,-1,1,0,1
1570179144061817,-3,-1,-1,-2,-1,0,-1,-10
1570179144061817,4,-1,-1,0,-1,-1,0,7
1570179144074529,-1,-2,-1,-1,0,0,-1,1
1570179144074529,-3,0,-2,1,0,-1,-1,2
1570179144080513,-4,-1,0,-1,0,-2,0,-5
1570179144080513,-2,-1,0,-2,0,-1,-2,-6
1570179144097466,0,-1,0,0,-1,-1,-1,0
1570179144097466,2,-1,0,-2,0,-1,1,6
1570179144098463,-1,-1,-2,-1,-1,0,-1,1
1570179144098463,-1,-1,-2,-2,0,-1,-1,0
1570179144119438,1,-1,-3,-1,-2,0,-1,2
1570179144119438,-1,0,-1,-2,-1,-1,0,-1
1570179144121698,2,0,-2,-1,0,-2,3,6
1570179144121698,0,-1,-1,0,-2,0,1,-1
1570179144134370,-2,-1,-2,2,-1,-2,-1,-3
1570179144134370,-1,0,0,0,-2,-1,0,1
1570179144142347,1,-1,-2,-2,-1,-1,-2,3
1570179144142347,-3,-1,-2,0,-1,0,0,-2
1570179144157306,1,-2,0,-3,-2,-1,1,4
1570179144157306,-2,0,-1,-1,-1,-1,-1,-1
1570179144159300,0,0,-1,0,0,0,-1,0
1570179144159300,-1,1,-1,-1,2,-1,-1,1
1570179144180247,1,0,-3,1,-1,0,-1,-7
1570179144180247,0,-2,-1,0,-1,1,0,1
1570179144181244,0,0,0,-2,-1,0,0,-3
1570179144181244,-3,-2,-1,-2,-1,-1,-2,-5
1570179144193453,1,-1,-1,1,0,-2,1,1
1570179144193453,-2,-1,-3,0,-1,-2,-1,-1
1570179144202642,2,1,-1,1,-2,-1,0,-1
1570179144202642,-1,-2,0,-1,-2,-1,0,0
1570179144217146,1,-2,0,-1,0,0,-1,4
1570179144217146,1,0,1,-2,2,1,0,3
1570179144219279,0,-1,-2,1,-1,-1,-3,1
1570179144219279,0,-1,0,-2,0,-1,-1,-1
1570179144240088,0,0,0,-1,0,1,-1,3
1570179144240088,-2,0,0,-1,-1,-2,-2,-5
1570179144241172,-1,0,0,0,-2,-1,-1,-1
1570179144241172,0,0,-2,-1,0,-1,0,1
1570179144253109,-3,0,-1,-1,-1,-2,-1,-1
1570179144253109,-1,0,-1,-1,-1,-1,-1,-1
1570179144262028,-3,0,-1,-2,0,0,0,-4
1570179144262028,0,1,0,0,-2,-2,1,4
1570179144276990,-2,-1,0,-1,-1,0,0,-3
1570179144276990,2,-2,-1,-1,-2,0,1,0
1570179144278980,-1,-1,0,0,-1,-2,-1,0
1570179144278980,0,-3,-1,-2,1,0,-2,-3
1570179144299927,0,0,-2,-1,0,0,-1,3
1570179144299927,1,-1,-2,-1,-1,-1,-1,-3
1570179144300921,-1,-1,-1,-2,0,0,1,1
1570179144300921,-2,0,-1,0,-3,0,0,1
1570179144313890,-2,-1,-1,1,0,0,-1,1
1570179144313890,0,0,0,0,-1,-2,-1,-1
1570179144322864,-2,-1,-2,0,-2,0,0,-1
1570179144322864,5,-1,1,0,0,0,1,15
1570179144336827,-2,-1,1,-1,-2,0,0,-4
1570179144336827,-4,0,0,-1,0,0,-2,-3
1570179144338821,1,-1,-1,-3,-1,-1,0,3
1570179144338821,-1,-1,0,0,-1,-1,-2,-3
1570179144359765,-3,-2,0,0,-1,0,-2,-4
1570179144359765,4,-1,0,0,-1,0,2,6
1570179144361758,0,0,-1,-1,0,-1,0,-2
1570179144361758,-3,0,-3,-2,2,0,-2,-5
1570179144373732,1,-1,-1,-3,0,-2,1,-1
1570179144373732,-2,-1,-1,0,-1,0,-1,1
1570179144382704,-1,-1,1,1,-1,-1,-3,-6
1570179144382704,0,-2,0,0,0,0,-1,-1
1570179144397671,0,0,0,0,-1,-1,1,-5
1570179144397671,-2,0,0,0,0,-1,0,2
1570179144398661,2,0,0,-2,0,0,-1,5
1570179144398661,-1,0,0,0,-2,-1,-1,-5
1570179144419613,-2,-3,-1,-1,0,0,0,-2
1570179144419613,-2,-2,-2,-2,-1,-2,0,-4
1570179144421599,1,-1,-1,0,0,-1,-1,5
1570179144421599,0,0,-1,0,-1,0,0,-4
1570179144433573,2,2,-1,0,0,0,-1,3
1570179144433573,-2,-1,-1,0,-1,-2,-1,1
1570179144442696,0,-2,2,0,0,-1,0,-2
1570179144442696,-1,0,-1,0,0,-2,-1,0
1570179144457620,-2,-2,0,0,-1,-2,-2,-8
1570179144457620,-1,1,0,1,1,1,1,2
1570179144458500,4,2,-2,1,0,-2,0,4
1570179144458500,2,1,-1,-3,-1,-1,0,-5
1570179144479450,-1,-2,-2,0,1,0,-1,-1
1570179144479450,-1,-2,-1,-1,0,-1,-3,-4
1570179144481443,-3,-1,-1,-1,0,1,-2,-2
1570179144481443,0,0,0,0,-1,-1,-2,1
1570179144493512,1,0,0,-2,0,-2,-1,3
1570179144493512,0,0,-1,-1,-1,-2,0,-3
1570179144502383,-1,-2,-2,-1,-3,-1,-2,4
1570179144502383,-3,-3,-2,-1,-1,0,-2,0
1570179144517356,-1,0,-3,-1,-3,-2,0,1
1570179144517356,-1,-2,0,0,0,-1,1,1
1570179144519338,-1,-1,0,-2,0,1,0,-1
1570179144519338,1,-2,-1,-1,0,1,-1,2
1570179144540282,-1,0,-1,-2,-2,-1,1,1
1570179144540282,0,-2,-1,0,-1,0,-2,-6
1570179144541281,-3,0,-2,1,0,0,0,-5
1570179144541281,-1,-1,-1,0,-1,-1,-2,-2
1570179144562224,3,1,-1,0,1,1,0,0
1570179144562224,0,0,-1,-3,-1,-2,-2,2
1570179144562224,-1,0,1,2,-1,-2,0,-1
1570179144562224,0,0,1,-1,-2,-1,0,2
1570179144576187,-2,-2,0,-1,-1,0,-1,-1
1570179144576187,0,0,-1,-1,-1,0,-2,-1
1570179144577669,-1,-1,0,0,-1,0,-1,-1
1570179144577669,-2,0,-1,-1,-1,-1,1,0
1570179144599124,0,0,0,-1,-1,-1,1,5
1570179144599124,-1,0,-1,-2,0,2,0,-1
1570179144600125,-1,-1,-2,-3,1,-2,1,-2
1570179144600125,-1,-1,-1,1,-1,-1,0,-1
1570179144622064,1,0,-2,-1,1,0,2,-2
1570179144622064,-1,-2,0,0,-3,-1,0,2
1570179144622064,1,-1,0,-1,-1,-1,-1,6
1570179144622064,-4,-1,2,-1,0,-1,-2,-6
1570179144637027,7,1,2,0,0,2,3,20
1570179144637027,0,1,0,0,-1,-2,1,-1
1570179144637027,-2,-1,-1,0,-2,0,-1,-5
1570179144637027,0,-1,1,1,0,1,0,0
1570179144658967,-3,0,0,0,0,0,-2,-3
1570179144658967,-1,0,-2,-1,0,1,-1,1
1570179144659961,1,0,0,-1,-1,0,0,2
1570179144659961,-3,-2,-2,-2,-2,-1,-2,-4
1570179144681907,-3,0,-3,1,-1,-2,-1,-9
1570179144681907,1,-1,-1,-1,0,1,-2,1
1570179144681907,-2,-1,0,-2,-1,-1,-3,-5
1570179144681907,2,-1,1,-2,1,0,0,3
1570179144696921,-3,-1,1,-2,-1,-2,-1,-2
1570179144696921,-1,0,0,0,0,-2,-1,-1
1570179144697860,0,-2,-2,0,-1,-1,-1,1
1570179144697860,0,-1,-2,0,-1,0,-1,-5
1570179144718906,0,0,1,-1,-3,-2,-1,-3
1570179144718906,-2,-2,1,-1,-1,2,-1,-3
1570179144719803,-1,-1,1,0,0,0,-1,-1
1570179144719803,2,-1,-1,-1,-1,-1,1,3
1570179144741749,-3,-1,-1,0,0,-1,-2,-3
1570179144741749,0,0,1,0,-2,-1,0,-2
1570179144742741,3,-1,0,-1,-2,-1,0,6
1570179144742741,1,0,-3,-1,-2,0,-1,1
1570179144756703,-1,-2,1,0,-1,-1,0,-1
1570179144756703,0,-1,0,0,-2,-2,0,0
1570179144757701,-4,0,0,-1,0,-1,0,-6
1570179144757701,-2,1,1,-1,0,0,-2,0
1570179144779702,1,-1,-1,0,0,0,1,2
1570179144779702,-1,-1,-1,-1,0,0,-1,-1
1570179144779702,1,-2,-1,-3,-1,-3,0,-1
1570179144779702,-3,1,-2,0,-1,-1,0,0
1570179144801588,-4,-2,-1,0,-2,-2,-5,-17
1570179144801588,1,-1,-1,-1,-1,0,0,3
1570179144802581,0,-1,0,1,0,0,-1,-4
1570179144802581,-2,-2,1,0,-3,-1,-1,-3
1570179144816679,3,-1,-3,0,-1,1,-1,5
1570179144816679,-2,1,-2,-2,0,-1,0,0
1570179144817556,0,0,-1,-2,-2,-1,-1,-1
1570179144817556,-1,-1,1,0,0,1,0,1
1570179144839482,-2,-2,1,0,1,0,-2,-2
1570179144839482,1,-1,-1,-1,-1,-1,-1,-1
1570179144839482,2,-1,-2,0,0,1,-1,0
1570179144839482,2,2,-1,0,0,-2,1,3
1570179144862420,-1,-2,-1,-2,-2,-1,-1,0
1570179144862420,-1,-2,0,-1,-1,0,0,-4
1570179144869400,-1,-1,0,-1,0,0,2,2
1570179144869400,-2,-2,1,-2,0,-1,0,3
1570179144876381,-3,1,-1,0,0,-2,-1,-1
1570179144876381,0,-2,-2,-1,-2,0,2,4
1570179144877379,-3,-2,-1,-1,-4,1,-1,-3
1570179144877379,0,-2,-1,-1,-2,-1,-1,-1
1570179144899320,-5,-1,0,-1,-1,-1,-2,-11
1570179144899320,5,0,0,-1,0,0,0,7
1570179144899562,-2,1,-1,-1,1,-2,-1,-3
1570179144899562,0,0,1,0,1,-1,1,-1
1570179144921348,-2,-1,1,-1,0,0,0,-1
1570179144921348,-3,-1,0,-1,1,0,-2,-2
1570179144922262,1,0,-1,0,0,1,0,-1
1570179144922262,-1,1,0,-2,-2,-1,1,0
1570179144936226,0,0,-2,0,-1,1,1,6
1570179144936226,-4,-2,-2,-1,-2,-3,-6,-12
1570179144937297,1,-1,-2,-1,1,-1,0,3
1570179144937297,-2,-3,-2,-1,0,0,-2,-5
1570179144959163,2,0,0,-1,-2,-1,3,3
1570179144959163,2,-2,0,-1,-2,-2,0,4
1570179144960159,-1,-1,-2,-2,-1,-1,-1,-11
1570179144960159,0,-1,-1,-1,0,-1,-1,1
1570179144982099,2,0,1,-1,-1,0,-1,-1
1570179144982099,-2,1,2,0,0,0,-1,-1
1570179144982274,-1,0,0,0,-2,0,-2,0
1570179144982274,0,2,-1,-1,0,0,-1,-1
1570179144997061,0,0,1,-1,-2,1,-1,2
1570179144997061,-3,-1,-3,-2,1,0,1,-3
1570179144997061,-1,0,0,0,0,0,2,3
1570179144997061,0,-2,-1,0,0,-1,0,-2
1570179145018948,-1,-1,-2,-1,-1,-1,-4,-1
1570179145018948,3,0,-1,0,-1,0,1,5
1570179145019898,-3,-1,-1,-1,0,-2,-1,-2
1570179145019898,-1,0,-2,-1,1,-2,0,0
1570179145041997,1,0,0,-1,0,-1,0,3
1570179145041997,-2,1,0,-1,-3,-2,0,-2
1570179145041997,-1,-1,0,0,-2,0,-1,1
1570179145041997,0,0,0,0,-2,1,-1,-11
1570179145056062,0,-1,-1,-1,0,0,1,9
1570179145056062,-4,1,-2,0,-1,-1,-3,-9
1570179145064147,2,2,0,0,0,0,1,11
1570179145064147,-2,-1,-1,0,0,0,0,-2
1570179145079225,2,-2,-1,-1,0,0,-1,-2
1570179145079225,-2,-1,-1,-1,1,-1,0,-5
1570179145080114,1,0,-1,0,0,-1,0,-1
1570179145080114,-3,-3,-1,-1,-2,-1,-2,-1
1570179145101860,-2,1,-1,-1,0,0,-1,-3
1570179145101860,1,-1,0,-2,0,1,-1,4
1570179145102827,-1,-1,-1,-1,0,-1,-1,-1
1570179145102827,0,0,2,-1,1,1,9,14
1570179145117101,0,2,1,0,2,-3,-13,-1
1570179145117101,-3,-2,-1,-1,-1,-1,-1,3
1570179145117948,0,-1,-1,1,-4,-1,-2,1
1570179145117948,0,2,-1,-1,-3,-1,-2,-13
1570179145139500,-6,-3,-2,-1,-2,0,11,-22
1570179145139500,6,1,0,1,0,-1,-1,13
1570179145139890,-2,0,-1,-2,0,0,-6,-6
1570179145139890,-3,-2,0,0,0,-2,-4,-6
1570179145162152,-2,-2,-3,-2,-2,2,16,-8
1570179145162152,-4,0,-1,0,-1,-1,-3,-9
1570179145162949,0,-1,0,-1,-2,0,1,0
1570179145162949,2,0,0,1,1,-1,-2,5
1570179145175901,3,0,-2,-1,-1,-2,0,6
1570179145175901,-2,-1,-1,0,1,0,3,-4
1570179145184096,-2,1,1,0,-2,-3,-1,1
1570179145184096,0,0,-2,-2,-1,-1,1,-1
1570179145199230,1,-1,0,-2,0,0,-5,3
1570179145199230,0,-1,-1,-1,-1,2,-3,-2
1570179145200095,0,-1,0,0,0,0,-1,1
1570179145200095,-2,-2,-2,-1,-3,0,-2,-3
1570179145222184,-1,-1,-2,2,-1,0,-5,1
1570179145222184,3,-1,2,1,1,-1,0,6
1570179145222184,-1,-2,-2,-2,-1,-1,3,3
1570179145222184,-1,-1,-1,-1,0,-1,-1,-4
1570179145236290,4,-1,-1,-1,-1,-3,-2,12
1570179145236290,-4,-1,-1,0,-2,-1,-1,-4
1570179145244263,0,-1,0,0,0,-2,-1,-6
1570179145244263,2,-1,-2,-1,0,1,1,8
1570179145260221,-2,0,1,-2,0,-1,-6,-7
1570179145260221,0,0,-1,-2,0,-1,0,-1
1570179145260221,-1,1,0,-1,0,1,0,-4
1570179145260221,1,-2,0,2,-1,-1,0,-1
1570179145281854,1,0,-1,-1,-3,-1,1,8
1570179145281854,1,0,1,1,-2,0,0,-7
1570179145282818,-2,-2,-2,-3,-1,0,-3,-3
1570179145282818,-1,0,-4,-2,1,0,1,1
1570179145295864,-2,0,0,2,3,-2,-1,5
1570179145295864,2,0,0,1,5,4,2,2
1570179145304802,2,-3,0,-1,-2,0,3,10
1570179145304802,-4,-1,1,-3,-7,-5,-10,-7
1570179145318834,-5,-4,-2,-5,-10,-4,-11,-17
1570179145318834,0,-1,1,1,4,1,3,-3
1570179145319775,11,2,-2,-1,2,4,17,16
1570179145319775,1,2,7,1,-4,-5,-14,5
1570179145341670,-3,2,-1,2,1,0,0,-4
1570179145341670,-6,3,-3,3,2,1,-15,-15
1570179145342666,-1,0,5,3,16,11,11,-15
1570179145342666,7,20,7,-1,1,1,15,5
1570179145356154,0,-13,2,-9,-21,-13,-25,5
1570179145356154,-3,-5,-14,-14,-15,-9,5,-29
1570179145364607,-13,-8,-17,-11,-10,-5,-1,6
1570179145364607,-10,-24,0,8,7,4,18,-5
1570179145379568,24,38,23,18,19,4,-12,8
1570179145379568,5,4,12,8,2,4,-1,10
1570179145380444,-3,-7,4,-4,-5,-4,-12,-5
1570179145380444,-6,-4,-32,-9,2,1,1,-20
1570179145401506,6,5,-2,-8,3,7,13,-51
1570179145401506,-1,14,1,-9,-5,-2,-2,-33
1570179145402641,-3,4,0,3,-9,-4,1,-37
1570179145402641,17,-4,1,-2,-4,-1,-4,-75
1570179145416469,-1,-7,-4,3,-1,-3,3,-113
1570179145416469,-58,-6,12,5,8,0,-5,-121
1570179145424524,3,-6,26,12,-4,-6,-10,-128
1570179145424524,-10,-28,-9,-6,-7,-5,-14,-118
1570179145440405,-4,-9,-13,7,10,7,22,2
1570179145440405,9,0,2,-2,5,4,11,58
1570179145440405,-11,-2,-6,-6,0,-3,-3,108
1570179145440405,15,26,-26,-9,-1,-3,-17,115
1570179145461349,-7,-21,12,-7,-4,-2,0,85
1570179145461349,11,16,0,12,-3,-3,7,95
1570179145462347,18,-6,-3,5,4,1,1,64
1570179145462347,-21,4,25,-1,-1,1,0,57
1570179145485282,0,4,-25,-15,-4,3,21,48
1570179145485282,-18,-33,5,5,-4,-5,-37,42
1570179145486456,5,3,26,2,-6,-3,-1,17
1570179145486456,24,20,-23,2,3,7,31,20
1570179145499250,-4,-19,7,7,2,0,-5,29
1570179145499250,-5,5,-2,-13,-6,-2,17,11
1570179145500274,14,12,-23,-1,4,3,-22,-3
1570179145500274,-26,-25,16,1,-2,-8,-42,18
1570179145521280,-36,11,4,3,2,1,20,9
1570179145521280,47,-2,-10,-10,-6,-4,-15,0
1570179145522414,-27,-2,-11,-2,1,5,5,-1
1570179145522414,11,31,5,8,7,15,52,10
1570179145545256,52,-23,-2,-1,-9,-5,-36,8
1570179145545256,-76,-34,-11,-4,-3,-11,-11,15
1570179145545940,-15,10,-10,-6,-10,-16,-1,40
1570179145545940,-41,-28,-5,3,7,6,-12,49
1570179145558812,63,26,11,11,8,6,9,38
1570179145558812,2,7,8,7,0,2,-9,25
1570179145559850,-2,-10,-5,1,4,8,12,25
1570179145559850,-6,3,2,-3,0,4,24,44
1570179145589728,-5,14,-3,-7,4,-7,29,103
1570179145589728,16,-8,-6,-4,-10,-14,-63,41
1570179145590726,3,11,1,-1,-9,-8,9,110
1570179145590726,22,9,12,1,-2,-4,3,109
1570179145604687,-19,-5,-7,-6,0,5,-18,35
1570179145604687,-21,-13,-7,-4,-8,-3,-24,-11
1570179145605707,27,17,-1,-4,0,-3,-15,-68
1570179145605707,-1,-12,12,5,1,1,8,-70
1570179145618653,7,5,-6,4,0,-4,5,101
1570179145618653,2,-1,-1,-1,5,5,12,127
1570179145619681,-1,-11,-4,-5,-1,6,-4,94
1570179145619681,23,15,-5,-5,-2,-5,-7,-17
1570179145641651,-15,12,11,3,0,-2,-5,-123
1570179145641651,26,-1,-6,1,2,3,0,25
1570179145642624,0,-3,-4,-2,4,4,3,-35
1570179145642624,-8,0,11,10,19,5,-7,-23
1570179145664527,-59,-37,-3,-7,-12,-13,-35,-119
1570179145664527,59,40,-3,-3,-23,-7,19,-128
1570179145665524,-14,0,4,0,0,-2,4,-123
1570179145665524,25,20,-9,-11,-15,-17,-44,-99
1570179145679491,42,11,-3,-4,5,8,-14,-118
1570179145679491,-93,-56,-12,-4,10,6,20,50
1570179145679491,60,27,16,12,7,10,-1,115
1570179145679491,-70,-39,6,4,4,-2,10,49
1570179145703431,1,15,-4,0,4,7,1,20
1570179145703431,51,6,-13,-8,-12,-3,54,-97
1570179145703431,66,7,6,4,5,2,-30,-71
1570179145703431,-41,-24,-12,-8,-13,-16,22,-76
1570179145725405,46,13,9,4,1,-3,-45,-23
1570179145725405,-29,-2,1,3,8,7,27,-72
1570179145725405,-3,5,2,-1,-5,-18,-27,-94
1570179145725405,64,11,-2,-3,0,15,1,-11
1570179145739332,-128,-43,-19,-10,-8,-4,38,-24
1570179145739332,45,34,9,5,8,2,-4,-30
1570179145740328,-26,-12,-2,-4,-3,-3,-5,9
1570179145740328,33,17,4,6,3,3,-6,10
1570179145761318,7,-5,-9,-7,-8,-5,1,-3
1570179145761318,63,28,8,2,6,5,6,-32
1570179145762271,-84,-46,-18,-11,-4,2,1,-65
1570179145762271,-3,2,5,3,-4,-1,8,-21
1570179145785363,43,23,7,3,0,-6,-24,10
1570179145785363,7,5,7,1,3,8,21,-15
1570179145785363,-14,-6,-6,-2,0,1,-7,-18
1570179145785363,-24,-10,-6,-3,-3,5,23,-21
1570179145799169,30,12,4,5,-2,-7,-4,-13
1570179145799169,-14,-7,1,1,3,1,6,-8
1570179145800166,5,-3,-6,-3,-3,0,14,-18
1570179145800166,9,-1,0,-2,-1,3,-1,-8
1570179145822107,-13,-2,1,0,0,4,5,-14
1570179145822107,-6,3,-6,-2,0,-5,-14,-6
1570179145822107,-8,-15,6,5,-1,1,27,-11
1570179145822107,13,5,-5,-4,-4,-6,-20,-7
1570179145845046,-9,-5,0,2,5,6,2,17
1570179145845046,-12,1,5,2,5,1,-1,8
1570179145846045,10,-1,-7,-6,-11,-3,-8,14
1570179145846045,-9,-2,2,5,10,-6,10,7
1570179145867986,-2,-5,0,-4,-12,-7,-25,1
1570179145867986,2,-6,-2,-4,1,1,10,16
1570179145868148,1,11,4,5,30,12,9,2
1570179145868148,-3,-7,-3,-6,-36,-9,11,14
1570179145889980,-14,-9,-5,-5,-36,-22,-18,-13
1570179145889980,9,3,0,3,41,10,-22,15
1570179145890928,0,4,0,-3,-38,-8,40,11
1570179145890928,3,4,7,22,70,41,-16,4
1570179145904891,9,1,1,-7,-4,30,26,22
1570179145904891,-14,-14,-9,-14,-42,-46,-19,2
1570179145905884,0,6,4,13,-21,1,18,8
1570179145905884,5,3,-5,-12,31,6,-9,5
1570179145927880,-10,-7,-6,-7,-1,18,-13,-3
1570179145927880,-4,-2,-3,6,31,6,24,-3
1570179145927880,3,5,0,-15,10,4,30,17
1570179145927880,-9,-17,-9,7,-57,-22,-46,-11
1570179145941946,-5,1,3,22,19,-27,-46,-12
1570179145941946,-6,-10,-18,-34,7,0,32,12
1570179145942790,7,7,3,2,64,17,-12,6
1570179145942790,-4,-3,0,6,-57,-12,-23,4
1570179145964836,0,-2,-11,-25,-21,-27,-8,0
1570179145964836,2,-3,1,11,15,48,27,33
1570179145965725,-18,-15,-16,-18,-35,-39,4,-27
1570179145965725,7,2,2,-11,-20,-7,-25,23
1570179145978943,-7,-5,1,2,-12,-13,4,12
1570179145978943,17,20,16,15,-41,10,19,12
1570179145979687,-12,1,-14,4,75,25,-21,-42
1570179145979687,10,7,1,-9,-44,-10,23,54
1570179146002003,-12,-36,4,11,4,-29,-2,1
1570179146002003,5,11,12,20,34,40,36,10
1570179146002625,-7,-5,3,4,-36,-13,-62,-3
1570179146002625,3,14,-16,-6,25,2,35,-14
1570179146024566,17,39,15,1,5,23,69,48
1570179146024566,-7,-38,-1,4,-26,-15,-47,-1
1570179146025563,7,6,4,5,-17,-7,24,1
1570179146025563,-8,-5,5,2,32,13,3,-8
1570179146039526,6,14,-4,-7,13,28,38,1
1570179146039526,-1,4,3,-6,-25,-27,-22,-13
1570179146039526,3,-21,4,7,2,6,-8,-1
1570179146039526,-10,-7,-4,-7,16,3,-50,-45
1570179146061981,13,18,-5,0,-12,-10,-15,-3
1570179146061981,40,98,9,2,-3,-10,-3,20
1570179146062465,-65,-68,12,7,-6,0,-7,-27
1570179146062465,49,-5,-18,-9,-11,-10,2,12
1570179146085404,27,-19,-11,9,7,7,13,3
1570179146085404,4,50,0,-6,2,-3,-26,-13
1570179146085404,7,8,43,16,-1,8,19,19
1570179146085404,12,-4,0,1,0,-5,12,31
1570179146099405,-2,-4,-37,-19,0,-2,-16,-30
1570179146099405,-34,-26,10,-9,-5,-3,14,11
1570179146100368,-31,-37,-9,8,-2,3,15,8
1570179146100368,16,27,13,4,5,-1,-16,6
1570179146121314,49,25,-5,-2,5,3,-14,-3
1570179146121314,26,-11,0,-1,-4,-3,-5,23
1570179146122305,29,23,-17,-16,-17,-7,1,0
1570179146122305,-12,-3,28,13,10,5,-25,-29
1570179146145249,3,-6,9,3,4,13,49,51
1570179146145249,-19,5,-8,0,-7,-10,-44,-50
1570179146145249,-12,-20,-8,-11,-7,-3,-2,26
1570179146145249,-35,5,-28,-6,-1,-3,10,-3
1570179146158213,7,63,47,13,9,6,-4,8
1570179146158213,-35,-77,-8,6,3,-5,8,-27
1570179146167192,105,9,-25,-15,-10,-4,-13,-13
1570179146167192,-11,-13,-10,-10,-8,-7,7,-13
1570179146181477,-18,1,-3,2,0,4,3,-1
1570179146181477,35,26,9,0,-6,-1,6,-1
1570179146182276,-61,19,27,22,13,3,-19,0
1570179146182276,25,-14,-9,-10,-4,0,19,-11
1570179146205214,10,-12,-1,5,3,0,15,11
1570179146205214,27,37,-8,-3,-6,-8,-43,-6
1570179146206080,6,-2,-2,-3,-2,-3,-12,-8
1570179146206080,-65,-36,10,3,-4,-4,5,-17
1570179146218054,-39,-53,-18,-13,-6,-3,-10,-19
1570179146218054,13,-5,4,5,3,-1,5,-10
1570179146227033,36,44,-8,0,3,-1,-10,45
1570179146227033,-4,10,28,13,9,7,34,0
1570179146242039,72,30,-7,-11,-9,4,20,9
1570179146242039,-19,-64,-13,-1,1,-3,-13,-13
1570179146242039,30,36,-3,-1,1,2,15,-21
1570179146242039,-72,-38,-17,-8,-2,-5,-36,-5
1570179146264930,23,-7,12,4,0,-3,-1,-11
1570179146264930,18,8,4,3,4,-1,13,16
1570179146265922,13,6,-1,-1,-2,3,7,20
1570179146265922,36,45,-8,-6,1,3,0,15
1570179146278894,-91,-48,7,10,5,-5,-27,-16
1570179146278894,-11,-5,-1,0,2,1,12,1
1570179146286865,0,-8,0,-3,-3,-4,-11,-5
1570179146286865,10,-3,-3,2,1,1,12,14
1570179146301824,0,10,9,2,0,0,-13,3
1570179146301824,-19,-14,2,-6,-6,1,24,-27
1570179146302822,4,37,3,-3,-2,-1,-9,-1
1570179146302822,21,-28,-7,3,2,-3,7,11
1570179146324764,-8,-6,2,-2,-2,1,3,-22
1570179146324764,-25,-17,-12,-4,-2,-1,-6,-40
1570179146325761,-19,-5,-5,-4,-3,2,19,18
1570179146325761,31,15,9,-2,-1,-3,-22,-5
1570179146338727,1,11,-8,-1,4,6,32,8
1570179146338727,-9,-1,-2,-1,-2,-8,-30,15
1570179146346707,5,-6,2,2,1,2,11,2
1570179146346707,16,11,2,1,1,1,-11,4
1570179146361668,-11,-9,-5,2,6,1,9,-2
1570179146361668,7,8,5,-4,-28,3,29,24
1570179146362662,-8,-11,-6,-1,18,0,-47,-11
1570179146362662,2,5,1,1,-20,-11,24,4
1570179146384863,-4,3,8,7,16,12,2,6
1570179146384863,2,-8,-6,-7,-6,-11,11,10
1570179146385603,3,0,-3,-1,2,9,-25,0
1570179146385603,-3,1,2,-4,-26,-5,8,-12
1570179146398565,2,-1,1,5,27,8,-6,0
1570179146398565,4,1,-5,-4,22,4,-9,17
1570179146406551,-2,0,8,18,22,2,2,1
1570179146406551,-2,-2,-9,-11,14,-8,4,-6
1570179146421786,-6,-5,-6,-11,-63,-38,-19,-11
1570179146421786,4,5,0,12,40,22,-13,7
1570179146422502,-15,-19,-18,-34,-62,-18,-3,-8
1570179146422502,11,4,6,12,33,-3,-18,-1
1570179146444451,-11,-5,-13,-16,-30,-11,6,-13
1570179146444451,19,21,19,27,30,30,18,15
1570179146445440,-4,-8,0,-4,24,11,21,0
1570179146445440,9,6,7,5,24,-4,33,20
1570179146467387,-18,-8,-2,-6,-66,-16,-43,-21
1570179146467387,-6,-8,-8,-2,10,-20,-1,-10
1570179146468638,4,9,16,25,43,3,-15,-9
1570179146468638,3,14,7,6,-27,18,26,21
1570179146481349,-4,-14,-8,-17,18,-12,8,1
1570179146481349,8,9,5,0,18,44,50,38
1570179146482346,-32,-39,-29,-35,-128,-98,-82,-39
1570179146482346,13,11,7,8,120,70,45,6
1570179146506278,21,43,-12,-17,-79,-8,113,38
1570179146506278,-23,-35,13,-18,-84,-51,-73,-44
1570179146507400,-12,-52,-36,-1,70,38,0,-7
1570179146507400,-8,-1,-10,-2,-73,-49,-29,-11
1570179146527230,32,39,3,-7,-4,13,22,40
1570179146527230,1,-4,6,-4,4,-12,-45,29
1570179146528543,17,24,14,1,-17,0,32,5
1570179146528543,-8,-12,-2,6,21,13,-44,7
1570179146542190,4,1,-2,8,43,31,27,28
1570179146542190,-1,0,-14,4,10,-16,21,-4
1570179146543179,3,15,6,2,-8,22,-2,-11
1570179146543179,-2,0,0,-10,-27,-6,0,-5
1570179146565120,-2,-17,0,7,23,-7,-64,-16
1570179146565120,-7,-13,-4,0,-7,9,-10,-23
1570179146565120,0,0,6,7,17,2,12,-32
1570179146565120,8,35,6,-5,-10,-4,17,-26
1570179146587063,4,11,14,2,-7,-6,-26,-40
1570179146587063,-24,-45,-13,8,10,2,-5,-29
1570179146588230,5,-7,6,3,-2,7,27,29
1570179146588230,2,12,-21,-14,-38,-19,-3,19
1570179146602114,-6,-2,6,9,38,14,-36,19
1570179146602114,-21,-26,37,18,0,4,26,20
1570179146602114,2,-10,-14,-3,0,3,22,42
1570179146602114,-16,42,-12,-9,-8,-10,-32,-12
1570179146624962,21,-8,30,13,26,22,28,52
1570179146624962,27,31,-25,-11,-10,-10,-24,6
1570179146625958,-16,39,-7,-7,-16,5,43,32
1570179146625958,22,-19,12,3,1,-5,-13,13
1570179146645921,-28,-9,7,6,8,-4,-45,-53
1570179146645921,37,2,-18,-13,-8,-1,4,9
1570179146653884,-20,37,10,7,1,5,33,-18
1570179146653884,-58,-105,-5,-5,-9,-5,-50,-45
1570179146661861,6,-1,-22,-9,2,-2,3,-28
1570179146661861,43,39,17,5,-5,2,7,5
1570179146662860,-23,0,-9,-3,6,-2,-5,-35
1570179146662860,-2,52,19,2,-5,-1,5,-10
1570179146684801,-54,-62,0,4,0,-3,-7,-40
1570179146684801,35,29,-23,-10,-1,0,-8,2
1570179146685798,-31,-22,-1,-7,-2,-4,2,19
1570179146685798,53,-16,31,11,-2,1,9,9
1570179146707743,-19,8,-22,-5,2,-8,-6,-6
1570179146707743,-102,-20,6,3,-3,5,6,-15
1570179146707743,-9,-31,11,3,-1,-3,-5,-13
1570179146707743,69,33,-11,-2,1,8,44,-37
1570179146721843,-59,-68,-28,-2,5,-6,-31,77
1570179146721843,73,37,-6,-13,-9,-3,32,25
1570179146722699,-8,19,23,9,1,5,-17,9
1570179146722699,9,-18,-5,-1,2,-6,-43,-14
1570179146744642,9,37,2,-5,-2,0,18,-9
1570179146744642,-71,-31,13,7,-1,-2,-12,-17
1570179146745638,26,-6,-2,1,1,2,12,8
1570179146745638,10,14,-7,-1,0,3,4,26
1570179146767670,10,-7,-4,-1,-2,-2,-3,-59
1570179146767670,18,12,-4,-8,-4,-3,-18,-11
1570179146767670,33,8,12,8,3,-2,6,-20
1570179146767670,-57,-16,-2,1,4,5,15,-12
1570179146781565,34,-1,-7,-6,-5,-8,-14,4
1570179146781565,-46,-24,-11,-2,-3,-4,17,-37
1570179146782649,74,28,-2,-4,1,-1,-26,36
1570179146782649,-17,-8,-2,2,-3,-2,3,28
1570179146804480,0,19,-2,6,7,10,38,20
1570179146804480,3,-10,26,7,2,4,-22,-2
1570179146805546,11,5,-6,-5,-3,-9,-16,8
1570179146805546,-33,-4,-10,-5,-2,-1,21,5
1570179146827417,21,11,5,0,1,-4,-41,-14
1570179146827417,13,4,-1,3,0,-1,14,19
1570179146828415,-11,-1,0,-6,-4,0,10,-18
1570179146828415,-10,-34,-6,-1,-1,-1,-10,-61
1570179146841383,-19,16,-8,-2,-1,0,10,7
1570179146841383,23,9,2,0,1,1,-13,38
1570179146842380,-13,-12,-1,2,2,3,-1,-2
1570179146842380,11,10,-9,-2,-2,1,14,15
1570179146865317,12,5,17,11,6,1,2,9
1570179146865317,-7,0,-9,-5,-1,0,3,-9
1570179146865317,4,-10,-6,-2,-1,-2,-3,11
1570179146865317,2,13,8,-1,-1,4,2,25
1570179146887603,0,-7,-2,-2,-2,2,19,-17
1570179146887603,2,-7,-2,0,2,-1,-6,16
1570179146888256,3,9,-3,-4,0,1,6,2
1570179146888256,-5,-4,-1,0,0,0,-6,9
1570179146901221,1,-7,7,3,2,2,1,-1
1570179146901221,3,6,-8,-1,-1,-1,13,-23
1570179146902504,-1,3,1,-4,-1,-2,-6,-30
1570179146902504,-5,-3,1,1,2,1,-2,-18
1570179146925159,3,-5,1,0,-2,0,1,-49
1570179146925159,1,6,-2,-3,-4,-2,10,29
1570179146925588,-4,-3,-3,2,1,-1,-5,15
1570179146925588,-1,-6,0,-1,0,-2,-3,-5
1570179146947102,7,8,5,3,4,1,-1,-10
1570179146947102,-7,-4,-4,-3,1,-5,1,-24
1570179146948235,-5,-6,-1,1,-3,0,3,5
1570179146948235,4,2,-5,-2,4,1,-1,24
1570179146962191,-2,-1,3,1,2,1,9,22
1570179146962191,-1,-2,-3,-1,2,1,-3,10
1570179146963130,-3,-2,0,-2,-5,6,2,25
1570179146963130,0,3,1,-2,-5,6,-4,-2
1570179146984999,7,1,4,1,4,-10,-19,18
1570179146984999,-10,-6,-4,-1,0,3,7,1
1570179146985995,5,-2,-4,-1,0,-3,2,13
1570179146985995,4,-1,-5,-1,-4,-3,0,8
1570179147006944,2,0,-1,0,-4,3,-2,2
1570179147006944,-6,1,-2,2,0,-1,-3,5
1570179147007937,6,3,3,2,1,-10,2,4
1570179147007937,0,-10,-5,-4,-1,5,-2,41
1570179147021899,3,0,-1,-1,-2,1,-1,18
1570179147021899,-5,2,-2,-1,-1,-1,-1,-17
1570179147022898,-12,-7,-3,-5,-9,4,4,16
1570179147022898,15,10,6,3,3,-5,-2,-17
1570179147044844,-10,6,6,3,-1,0,-2,-21
1570179147044844,47,7,1,-2,0,2,-1,29
1570179147045836,-39,-22,-8,-3,1,-2,-3,-26
1570179147045836,-21,-5,-1,-1,-1,-2,-1,2
1570179147067784,-25,-15,-3,3,2,-1,-1,-13
1570179147067784,6,12,5,5,1,1,2,-13
1570179147068775,12,8,4,0,0,5,-1,-2
1570179147068775,10,-2,-6,-2,5,-4,1,7
1570179147080743,4,-4,-3,-4,-1,0,-1,4
1570179147080743,-1,7,3,2,2,-2,-3,-10
1570179147089718,15,8,10,4,2,1,2,-5
1570179147089718,-21,-7,-1,3,-7,-1,-1,-16
1570179147103687,11,-10,-10,-9,-4,-4,-4,-18
1570179147103687,-20,-4,-11,-8,-4,-4,-4,-11
1570179147112668,18,-10,-3,1,1,-1,-2,-7
1570179147112668,24,32,6,0,-2,-1,0,-9
1570179147127618,-44,-36,-5,-1,-2,-2,2,13
1570179147127618,-7,-12,-1,-3,-6,-3,-5,3
1570179147129612,33,9,-15,-8,-4,-6,-1,19
1570179147129612,38,18,14,7,8,4,9,14
1570179147141579,20,35,3,1,4,3,-10,15
1570179147141579,-49,-32,-10,-5,-3,-1,-4,-7
1570179147149707,13,0,-2,-3,-1,-4,-2,-1
1570179147149707,17,-5,3,4,-1,4,5,17
1570179147163987,-69,-26,-3,-1,-2,3,8,-6
1570179147163987,39,13,-2,-2,-1,-1,-1,-2
1570179147172874,2,0,1,2,0,-2,-4,4
1570179147172874,-45,-13,1,-3,0,2,13,-3
1570179147187789,-15,-18,-11,-8,-4,-5,-10,-2
1570179147187789,1,1,0,1,1,-1,-1,-1
1570179147188454,-19,0,1,0,0,1,-1,-8
1570179147188454,-14,-4,0,1,0,2,3,-8
1570179147201498,36,32,19,8,3,3,2,16
1570179147201498,4,-2,-8,-4,-5,-3,-4,0
1570179147210397,-37,-24,-12,-4,2,-5,-3,-4
1570179147210397,-9,-1,3,4,3,3,-3,-8
1570179147223757,23,9,-2,-4,-3,2,10,-15
1570179147223757,15,12,9,6,2,3,-4,16
1570179147232433,4,1,4,2,4,1,-1,-11
1570179147232433,0,2,-2,-1,-2,-3,-5,8
1570179147255275,-3,-11,-5,-5,-3,-4,3,-3
1570179147255275,22,14,4,4,0,4,5,4
1570179147256710,-12,2,0,-2,-1,0,-1,-3
1570179147256710,-4,-23,-13,-8,-3,-6,-10,-15
1570179147261268,29,10,1,-2,1,0,1,7
1570179147261268,-2,15,13,12,3,3,5,8
1570179147270235,-41,-14,-2,-3,-4,-1,0,10
1570179147270235,-10,-13,-7,-4,-1,0,-8,-9
1570179147284197,24,27,9,8,-2,-4,-4,-6
1570179147284197,-54,-35,-12,-9,-2,-7,-6,30
1570179147291179,12,4,-3,-3,-1,1,0,-13
1570179147291179,15,5,4,0,-2,3,2,4
1570179147315309,-16,-11,-5,-3,-4,0,-3,10
1570179147315309,50,23,6,1,1,1,2,-36
1570179147316113,-59,-16,-2,7,5,-3,-4,-9
1570179147316113,58,3,-13,-9,-7,-4,-1,20
1570179147321099,-42,-27,-4,1,5,7,0,-4
1570179147321099,-31,-11,-7,-4,3,-3,-2,-9
1570179147330076,38,29,1,-2,-3,0,-4,9
1570179147330076,-23,9,9,2,5,-1,5,1
1570179147344038,61,22,2,3,-2,-5,1,17
1570179147344038,-96,-54,-6,-1,3,0,-6,-12
1570179147351035,6,-10,-10,-8,1,-2,-3,1
1570179147351035,19,23,7,3,-7,-11,-5,-8
1570179147367062,42,30,18,14,12,18,8,15
1570179147367062,29,3,-4,-2,-5,-4,0,18
1570179147368975,35,-2,1,8,7,6,4,-3
1570179147368975,-34,-10,-6,-6,-9,-5,-10,-24
1570179147380952,43,30,2,-2,-2,-6,2,31
1570179147380952,114,43,3,-3,-9,1,4,9
1570179147389918,-66,-56,-7,-2,-2,2,-7,-32
1570179147389918,61,12,-4,-1,-3,-8,2,31
1570179147404543,-62,-28,-10,-9,-4,1,-5,-35
1570179147404543,2,17,5,-2,-1,7,4,8
1570179147410924,18,-1,-1,-4,-3,-16,-5,-16
1570179147410924,-14,0,1,2,3,4,0,-16
1570179147427814,26,12,0,-2,-6,-14,0,23
1570179147427814,17,-6,1,1,-5,-7,-8,-5
1570179147429000,28,29,2,-1,-3,13,5,10
1570179147429000,-68,-26,-4,1,10,6,4,-5
1570179147449761,-19,-18,-5,-4,-4,-2,-8,-14
1570179147449761,-2,5,0,-3,-2,-6,-3,-28
1570179147451750,8,9,6,7,-4,0,2,6
1570179147451750,2,4,2,7,10,4,1,0
1570179147463809,-5,-7,-3,-5,-2,-6,-13,16
1570179147463809,-8,-6,2,0,-1,2,6,1
1570179147470703,-8,5,3,2,2,-1,3,-2
1570179147470703,11,3,-2,-3,-3,5,3,6
1570179147487656,-22,-7,5,5,4,0,8,-27
1570179147487656,1,-17,-10,-4,1,-1,-6,17
1570179147488749,22,13,3,0,-6,-1,2,4
1570179147488749,-19,-24,-8,-4,-8,-7,-10,-33
1570179147509658,18,14,0,-1,2,3,-3,-3
1570179147509658,-14,0,-1,-4,0,-3,-2,-72
1570179147512588,16,9,2,1,2,0,4,-53
1570179147512588,-10,-10,-4,-3,-1,-4,-4,-53
1570179147524563,-24,-14,-3,-3,-2,-1,0,-101
1570179147524563,-9,0,2,1,-2,3,1,-64
1570179147531183,1,3,-3,-4,1,-3,-7,-120
1570179147531183,-16,-4,-2,0,-2,-3,-12,-128
1570179147547585,7,-8,-2,0,4,2,2,-122
1570179147547585,-15,-6,1,0,1,0,0,-74
1570179147548492,9,3,4,1,1,1,-1,34
1570179147548492,-5,3,1,1,-1,1,3,87
1570179147569439,-2,-4,-6,-2,-2,0,1,107
1570179147569439,-2,5,-1,0,1,1,-2,97
1570179147571429,-8,0,0,-1,-1,0,5,90
1570179147571429,0,1,-1,-1,0,-2,-8,80
1570179147583404,6,-3,0,1,-1,0,3,98
1570179147583404,-2,4,1,3,0,-1,0,98
1570179147592373,-2,-2,-2,-1,-3,0,-1,103
1570179147592373,7,-1,0,-1,0,1,4,71
1570179147607651,1,1,-1,-1,-2,-1,-1,44
1570179147607651,-10,-3,0,-1,-1,-2,-2,38
1570179147609406,-7,1,1,2,1,-1,0,19
1570179147609406,15,3,1,-1,-1,0,2,6
1570179147630277,-6,-2,-2,0,-2,-2,4,10
1570179147630277,-15,-8,-4,-2,-3,-2,-7,-3
1570179147631270,3,0,0,-2,-1,-2,-3,4
1570179147631270,2,-2,-2,0,0,1,3,7
1570179147643349,1,-3,-1,-1,-2,2,5,-2
1570179147643349,2,-2,-4,-1,-3,-4,1,-21
1570179147658202,-9,1,0,0,0,0,-1,-27
1570179147658202,28,4,1,1,-1,1,-9,43
1570179147667180,-13,-5,-1,-1,-1,-1,-2,-17
1570179147667180,0,-1,-1,-1,1,0,0,7
1570179147669320,-1,1,1,0,0,2,-3,0
1570179147669320,2,0,0,-1,1,-1,5,12
1570179147690124,5,2,1,-1,-3,-1,-2,-8
1570179147690124,1,-1,-1,0,1,0,3,-2
1570179147691608,-2,-2,0,-1,-1,-1,1,-14
1570179147691608,-11,-1,0,-1,-1,1,4,-22
1570179147703082,2,0,-1,0,-1,-1,-3,-6
1570179147703082,3,1,2,0,1,0,9,7
1570179147712055,17,3,-3,0,-1,1,0,8
1570179147712055,-4,0,2,1,1,-3,-4,-48
1570179147727013,2,3,1,1,2,-1,-3,-12
1570179147727013,-3,-1,-2,0,0,2,4,-20
1570179147729019,-13,-6,-3,-2,-3,-3,6,-30
1570179147729019,0,1,0,-2,1,1,-1,-3
1570179147749952,0,0,-1,-1,-2,-1,-5,1
1570179147749952,-2,-1,0,1,-1,-1,-4,70
1570179147751948,4,1,0,-1,-1,0,0,80
1570179147751948,-4,-2,-1,-2,-2,0,1,51
1570179147764224,-6,-1,0,0,0,-1,-1,23
1570179147764224,-8,-3,-1,-1,-1,1,0,-20
1570179147770896,12,1,0,1,-1,1,2,-4
1570179147770896,-14,-4,-4,0,-1,-2,-12,-49
1570179147786874,5,-2,-3,-3,2,1,6,27
1570179147786874,0,-1,2,1,3,0,-9,-9
1570179147788850,5,3,3,2,2,0,-8,18
1570179147788850,8,1,1,-2,-3,-4,-7,-10
1570179147809797,-5,-5,-6,-5,-6,-3,10,-23
1570179147809797,-3,1,0,1,-2,-1,-1,-27
1570179147811796,-3,-4,-2,-2,-1,-3,-6,-36
1570179147811796,3,1,0,-1,1,-3,-1,-22
1570179147823759,-1,-1,-1,-1,-2,9,0,-21
1570179147823759,4,2,1,-1,3,-3,5,18
1570179147830735,-1,-1,-2,-1,1,3,3,-22
1570179147830735,1,0,-1,0,1,1,9,10
1570179147847691,-2,-2,2,1,1,2,-15,-3
1570179147847691,-4,-3,-3,-4,-5,-14,-2,-28
1570179147849326,-2,4,5,2,2,4,3,-13
1570179147849326,-2,-1,-1,-1,2,0,7,0
1570179147870631,-5,1,-1,0,0,-2,2,-15
1570179147870631,-4,-6,-2,0,-1,0,-9,-10
1570179147871633,7,4,2,0,0,9,-1,22
1570179147871633,-8,-5,-7,-5,-6,-4,-6,-8
1570179147884745,-16,-22,-6,0,1,0,-3,17
1570179147884745,10,17,0,-3,-4,-2,-1,-9
1570179147890579,-7,-3,-1,0,-1,-3,0,-10
1570179147890579,7,2,0,1,2,4,5,-5
1570179147907537,-8,2,4,1,-1,-3,4,-2
1570179147907537,15,-1,-4,1,2,12,-1,-3
1570179147908534,-11,-7,-4,-5,-5,-17,-1,-2
1570179147908534,25,19,4,2,-1,-3,-3,6
1570179147930469,-13,-2,-3,-5,-5,-8,0,-8
1570179147930469,-2,-17,3,2,1,2,-17,22
1570179147931467,-3,4,-2,-1,0,3,1,9
1570179147931467,-7,-8,3,1,5,9,0,7
1570179147943438,13,6,6,3,0,-2,-2,-1
1570179147943438,2,15,-1,-2,-3,1,9,-10
1570179147952411,-7,-24,-2,-1,5,0,0,-16
1570179147952411,-19,2,1,-1,-4,-3,2,-25
1570179147967371,23,10,-1,-2,0,2,2,9
1570179147967371,-7,0,2,1,-1,1,3,-9
1570179147968368,-8,-2,-2,3,1,-5,0,-12
1570179147968368,1,-2,-2,-1,-2,-3,3,-1
1570179147990310,2,3,0,-2,-1,7,-3,19
1570179147990310,3,4,-2,-3,-1,-2,4,26
1570179147991307,5,6,3,3,0,-1,-6,118
1570179147991307,-4,-8,-3,0,0,3,2,115
1570179148003275,-3,-7,-3,-1,-3,-6,-4,81
1570179148003275,-4,-3,-1,-2,-1,-2,-1,7
1570179148012497,1,2,-2,-1,-2,4,0,-62
1570179148012497,-5,-3,-1,-2,-1,-4,2,-60
1570179148027212,3,2,1,2,1,-3,-4,-66
1570179148027212,-20,-13,-3,-4,-1,18,26,-81
1570179148029206,6,4,2,-2,1,-17,-7,-45
1570179148029206,7,1,-3,-4,-8,-1,-3,-34
1570179148050154,4,2,2,3,-2,-4,-7,-34
1570179148050154,-12,-14,-5,-2,-1,-1,-1,-28
1570179148051716,-4,-1,-2,-2,-1,3,4,-16
1570179148051716,4,4,0,0,1,0,-5,-13
1570179148063115,-4,1,-1,-3,-2,0,2,-6
1570179148063115,3,1,2,1,-1,-6,-11,15
1570179148072091,-3,0,-1,-2,-2,3,2,8
1570179148072091,-2,-3,0,-2,3,1,0,9
1570179148087817,3,3,0,-1,1,2,1,-8
1570179148087817,4,1,0,2,1,-1,3,18
1570179148089194,4,-2,-4,-3,-2,-1,0,-16
1570179148089194,-5,-1,0,-1,-1,2,1,-21
1570179148110119,-3,-4,-1,-1,0,-2,-4,-23
1570179148110119,2,0,0,-2,-2,-3,-1,0
1570179148110987,1,2,1,1,0,1,0,-7
1570179148110987,-1,-2,-3,1,0,-2,0,-3
1570179148122958,-2,-1,0,0,1,1,-1,-3
1570179148122958,0,1,-1,-2,-1,-3,2,-2
1570179148132928,0,1,-1,-2,-3,2,0,-16
1570179148132928,-5,-4,-1,1,1,-1,-6,0
1570179148147888,6,1,-2,-1,0,0,3,6
1570179148147888,-6,-1,1,1,0,1,-3,-8
1570179148149883,1,0,-2,-2,-1,2,-6,12
1570179148149883,1,-6,-1,0,-3,-1,11,21
1570179148169829,5,3,0,0,0,-1,3,27
1570179148169829,2,2,1,1,-1,-7,-23,9
1570179148171824,4,-2,2,2,-2,-8,-1,4
1570179148171824,-6,-3,-2,-1,1,9,4,-9
1570179148183793,-4,-11,-1,0,0,2,1,-2
1570179148183793,11,13,1,-1,0,2,10,10
1570179148192774,2,2,-1,0,0,0,-4,-7
1570179148192774,1,-3,-3,-1,1,0,-5,-8
1570179148207733,-6,-10,-3,-1,-1,-1,4,-11
1570179148207733,-11,-12,-2,3,7,15,1,-2
1570179148209118,7,7,2,0,-4,-24,1,-10
1570179148209118,7,12,5,0,1,10,4,-4
1570179148229669,-13,-25,-9,-6,-2,-4,-13,-5
1570179148229669,-7,-12,-4,-3,-3,-3,4,0
1570179148231665,-11,-11,-3,-2,1,11,0,-5
1570179148231665,5,3,0,-2,-1,-14,-10,9
1570179148243634,-3,-3,1,1,4,22,11,9
1570179148243634,14,26,5,0,-2,-4,-4,-5
1570179148252742,-5,-1,-7,-4,-2,1,-2,2
1570179148252742,-11,-25,-7,0,-3,-3,-4,-6
1570179148267568,7,14,0,-2,-3,-6,-2,-2
1570179148267568,-9,-12,0,1,-2,-3,-1,5
1570179148268971,3,8,3,0,0,5,2,3
1570179148268971,2,9,0,-1,0,-3,0,-3
1570179148289615,-3,2,2,0,-2,-6,-4,-8
1570179148289615,-7,-10,-2,-2,-1,1,7,-3
1570179148291769,19,10,3,6,10,20,-6,34
1570179148291769,-2,-3,-1,-4,-8,-17,1,4
1570179148303477,0,-7,-2,2,-4,-13,-4,8
1570179148303477,-1,1,-1,0,1,14,-4,6
1570179148312573,16,14,0,-3,-3,3,0,-1
1570179148312573,-4,-4,-2,-1,2,7,5,1
1570179148327408,12,10,1,1,3,2,3,23
1570179148327408,1,1,-1,-1,-3,-10,-9,2
1570179148329407,-20,-30,-7,-3,-2,-5,1,7
1570179148329407,5,17,1,0,1,5,-2,24
1570179148349355,0,-1,-3,-2,-2,-9,1,14
1570179148349355,-2,-4,-2,1,0,20,4,16
1570179148351344,5,0,-2,-6,3,-11,5,25
1570179148351344,9,10,3,2,-4,-8,-10,26
1570179148372289,2,8,5,2,3,2,1,14
1570179148372289,3,0,2,1,-1,-8,-4,14
1570179148374316,-5,-3,-1,0,3,4,0,-17
1570179148374316,-7,-9,1,1,2,4,1,-30
1570179148387346,-1,3,-2,1,-3,-11,-1,-20
1570179148387346,7,4,-1,-1,4,19,7,-13
1570179148389312,-4,0,1,-2,-6,-10,-3,-15
1570179148389312,-1,-5,-1,-2,0,-1,5,-6
1570179148410189,-3,2,-3,-1,-1,5,3,-13
1570179148410189,0,-1,1,0,3,-9,0,-13
1570179148411186,-4,-2,-2,1,2,5,1,-7
1570179148411186,0,0,1,0,-5,-1,-1,-9
1570179148432129,0,0,0,-3,-1,-3,-2,-16
1570179148432129,5,0,2,-2,-7,-17,-11,-2
1570179148434123,-4,-1,1,0,-9,1,-1,-11
1570179148434123,-3,-1,1,3,2,-3,-5,-19
1570179148447090,1,0,-1,-1,-2,2,-1,2
1570179148447090,-1,-3,-5,-2,2,-3,2,-1
1570179148449082,-7,0,0,1,1,-2,5,105
1570179148449082,2,1,0,3,10,11,-5,95
1570179148470027,0,1,-1,-1,-4,3,4,45
1570179148470027,-3,-1,-1,0,-2,-5,2,-12
1570179148471830,-2,-4,-2,-5,-7,-4,6,-54
1570179148471830,-8,-4,-2,-2,-4,-3,-6,-60
1570179148492327,-2,-1,1,1,0,1,-4,-39
1570179148492327,-2,0,-2,-1,-3,-7,0,-38
1570179148493964,1,-1,2,2,1,3,1,-31
1570179148493964,0,-3,-2,-2,0,-1,4,-15
1570179148507024,3,-1,-1,0,0,1,3,-22
1570179148507024,-2,0,0,0,-2,3,2,-3
1570179148509041,-4,-1,-1,-1,-1,-11,-4,-15
1570179148509041,3,0,-1,-2,0,-3,1,-2
1570179148529875,-6,-1,0,-2,1,2,-2,-20
1570179148529875,3,-1,-2,-2,-1,0,6,10
1570179148531866,1,2,0,1,0,2,-5,-1
1570179148531866,2,0,-2,-2,-1,-1,1,0
1570179148551811,-2,-1,-2,-2,-1,-3,-2,-2
1570179148551811,-4,-3,0,-1,-1,-4,-2,11
1570179148553803,2,0,0,0,-2,2,-3,-2
1570179148553803,-1,0,-1,-1,-2,-2,-1,-7
1570179148566896,1,0,-1,-3,1,5,9,4
1570179148566896,-4,2,3,0,-2,-1,-3,16
1570179148573751,10,0,-1,-2,0,-1,0,16
1570179148573751,-1,-3,-2,0,-1,1,5,0
1570179148589707,1,0,-1,0,0,0,-5,3
1570179148589707,4,0,-1,0,0,-4,1,4
1570179148591837,-6,-2,-3,-1,-2,0,0,-7
1570179148591837,-5,-2,0,0,-1,1,-5,-4
1570179148612652,-1,-2,-1,-2,0,-1,-5,-4
1570179148612652,-6,-2,-1,-2,-2,-3,-2,-8
1570179148614050,-3,-2,-1,-1,-1,3,-2,-6
1570179148614050,2,-2,-2,0,0,1,5,5
1570179148626683,-6,-2,2,2,2,-1,-8,-1
1570179148626683,3,-2,0,-2,-2,-2,-6,-7
1570179148633615,-3,1,2,1,-1,-1,1,-2
1570179148633615,-2,0,-2,-1,0,0,-1,-1
1570179148649554,3,2,-2,-1,-1,0,0,9
1570179148649554,-2,-2,-4,0,0,0,-3,-6
1570179148651753,-2,-1,-2,-2,0,1,4,-4
1570179148651753,-2,0,1,-1,-3,-3,1,1
1570179148672493,0,1,-1,-2,0,0,-2,3
1570179148672493,-1,0,0,1,0,0,1,4
1570179148673861,-5,1,0,0,1,2,3,-9
1570179148673861,4,-1,-2,-2,0,0,0,4
1570179148686449,-1,0,-1,-1,-1,-1,-10,-3
1570179148686449,1,0,-1,0,-2,-1,2,7
1570179148693433,-2,-2,-2,-2,-2,-2,-3,-6
1570179148693433,0,2,3,3,0,0,1,11
1570179148711383,1,1,1,2,-1,0,3,4
1570179148711383,-3,1,-2,-1,-1,0,0,1
1570179148712380,4,-1,-2,-3,-1,0,0,9
1570179148712380,7,-1,-2,-1,-1,1,2,10
1570179148732328,-2,-2,-2,-1,-1,-2,-6,-7
1570179148732328,-1,-1,1,0,1,-2,0,0
1570179148734320,-1,0,0,-1,0,1,0,1
1570179148734320,-1,1,0,-1,-1,-1,-1,-2
1570179148746743,3,-2,-1,-1,-2,0,0,5
1570179148746743,-2,-2,0,-2,-1,0,-2,-4
1570179148753281,0,-2,0,1,-1,-1,-3,-1
1570179148753281,-4,-2,-2,-1,-1,0,-3,-1
1570179148770228,3,0,-1,0,-1,-1,3,6
1570179148770228,1,-2,-2,-1,0,0,1,5
1570179148771892,0,-1,0,-2,1,-1,-2,-2
1570179148771892,-2,-1,0,-2,-1,-1,-5,-5
1570179148792166,-6,-2,-1,1,1,1,2,-6
1570179148792166,3,1,0,2,-1,-2,-1,4
1570179148794167,-3,0,-1,0,-1,1,0,-7
1570179148794167,-3,0,1,0,0,-4,-4,-4
1570179148806175,-1,1,-2,-1,0,0,2,-2
1570179148806175,-2,0,0,-1,0,-1,-1,2
1570179148815106,-1,-1,0,0,-1,0,-2,0
1570179148815106,6,-1,-1,0,-1,1,3,15
1570179148830067,-6,-1,1,-1,-1,-2,-3,-17
1570179148830067,4,-1,-1,-1,-1,0,-2,11
1570179148831065,-1,-2,-3,-1,-2,0,4,-2
1570179148831065,5,2,1,1,1,-3,-16,18
1570179148852010,0,0,0,-2,-1,0,1,8
1570179148852010,0,-2,-2,-1,0,-1,0,-2
1570179148854002,1,-1,0,1,0,-1,-4,0
1570179148854002,0,-2,0,-1,-2,0,2,-10
1570179148865967,0,0,0,0,0,-1,-2,2
1570179148865967,-4,-1,0,-1,-2,-1,-5,-8
1570179148874944,2,0,0,-1,-1,-2,-1,0
1570179148874944,-6,-1,-1,-1,0,-1,3,-16
1570179148889903,-2,0,0,-3,1,-2,-1,-2
1570179148889903,-4,0,-2,-1,2,1,3,3
1570179148890901,3,1,0,0,0,0,-3,5
1570179148890901,-2,-3,-3,-2,-2,0,2,-3
1570179148911844,-2,-1,-1,-1,-2,-4,-3,-3
1570179148911844,0,1,-2,-1,-1,1,0,1
1570179148913903,-3,-2,-1,-2,-2,0,-1,-1
1570179148913903,-3,-2,-1,0,-1,1,1,-8
1570179148925807,-2,-1,1,-1,-2,2,1,1
1570179148925807,2,0,0,-1,0,-2,-1,1
1570179148934783,2,-2,-3,-1,1,0,1,5
1570179148934783,-6,0,-1,-1,1,0,-1,-19
1570179148949744,0,-1,-1,1,1,0,-1,1
1570179148949744,1,-2,-1,0,-1,-1,-3,-2
1570179148951740,-1,-2,0,0,-1,-2,-2,-1
1570179148951740,-1,-1,0,-1,0,-2,1,2
1570179148971687,2,-1,0,-2,-1,-1,1,9
1570179148971687,-2,0,-1,-1,0,-1,-1,-5
1570179148980029,-12,-1,-1,1,-1,-1,-4,-27
1570179148980029,13,0,0,2,0,-1,-1,18
1570179148985697,-2,-2,-3,-2,-1,0,7,3
1570179148985697,-17,-3,-1,-2,-1,-2,-1,-20
1570179148994629,3,0,0,-2,0,-1,2,5
1570179148994629,-4,-2,-2,0,-2,0,0,-11
1570179149009586,0,-1,1,1,-1,-1,0,0
1570179149009586,1,1,1,1,-1,-2,0,1
1570179149011908,-2,-1,0,0,-1,0,-2,-1
1570179149011908,-6,-1,-1,-1,0,-1,1,-5
1570179149032523,3,2,-1,-1,0,-2,0,4
1570179149032523,-1,0,0,-2,-1,0,2,-4
1570179149033522,-2,-2,-3,-2,-1,-1,2,8
1570179149033522,3,-2,-2,-1,0,0,0,1
1570179149046177,-2,1,-1,0,-2,-1,-3,-6
1570179149046177,4,-1,-1,0,0,-2,-2,7
1570179149054677,2,1,0,-1,-1,-1,0,3
1570179149054677,-3,-1,-1,-1,2,0,-1,-1
1570179149070065,1,0,-3,-1,0,2,0,-3
1570179149070065,3,-2,-3,-1,-1,1,4,4
1570179149071631,-7,-4,-3,-1,-2,1,11,-7
1570179149071631,2,2,2,2,-1,-2,-4,15
1570179149092763,-2,0,1,0,-1,-2,-5,-2
1570179149092763,7,0,-1,0,-1,-1,-2,8
1570179149093832,-2,1,-1,-2,0,-2,-2,-3
1570179149093832,-4,-3,-1,-1,-2,1,4,-10
1570179149106485,17,6,3,3,2,0,-10,31
1570179149106485,-3,-2,-3,1,-1,-1,-1,4
1570179149115155,1,0,0,1,0,1,-4,0
1570179149115155,-6,0,-1,-1,-1,-1,1,-9
1570179149129113,4,0,0,1,1,-1,-5,-2
1570179149129113,-1,-2,0,-1,0,-1,-1,-3
1570179149137909,6,0,1,1,1,-2,-7,3
1570179149137909,-11,-3,-6,-5,-4,1,14,-35
1570179149152360,-1,-2,-2,1,3,0,1,16
1570179149152360,-5,-4,0,-2,-1,-3,8,-2
1570179149154354,2,-2,-2,-1,-2,-2,-4,5
1570179149154354,-3,-1,-2,-1,1,-1,-3,-12
1570179149166194,-3,-3,-3,-3,-1,-1,5,-6
1570179149166194,-3,-1,2,-1,1,1,-1,-5
1570179149175163,-1,0,1,1,-1,0,-1,0
1570179149175163,3,-1,-2,0,-2,-1,-3,14
1570179149189644,-6,-3,-1,0,-2,-1,2,-14
1570179149189644,4,2,0,1,1,1,-3,10
1570179149191827,-1,1,0,-1,0,-2,-2,-3
1570179149191827,4,0,1,0,0,-1,-4,11
1570179149212724,-6,-2,-1,-1,-2,0,1,-10
1570179149212724,0,-2,0,0,0,-2,-1,-9
1570179149213945,2,-1,-1,-1,-1,1,-3,-6
1570179149213945,0,1,2,1,-1,0,-2,6
1570179149226416,-3,-2,-1,-1,0,1,4,-3
1570179149226416,-2,-1,0,-2,-3,-1,-2,-2
1570179149234778,5,0,-2,-1,1,-2,0,1
1570179149234778,12,1,0,0,0,0,-12,21
1570179149257574,-4,0,1,1,-1,-4,-4,-11
1570179149257574,-1,-1,0,1,0,3,-1,-2
1570179149259533,-2,0,-1,-1,0,-1,-2,-4
1570179149259533,-1,2,2,1,-1,1,1,4
1570179149272359,3,1,-2,-1,0,0,0,4
1570179149272359,2,-1,0,-2,0,-2,-4,-2
1570179149274316,-3,-3,1,-1,-1,-1,6,7
1570179149274316,4,0,-2,0,-1,-2,-3,-4
1570179149286279,-1,-1,-2,-1,-3,-1,0,-4
1570179149286279,0,0,-1,1,-1,-1,-1,3
1570179149295267,0,0,-1,-2,-2,0,0,2
1570179149295267,-2,-1,-1,0,2,-1,0,1
1570179149310439,-2,-2,-1,0,1,-3,0,-4
1570179149310439,2,1,-1,-1,0,0,1,6
1570179149311894,-5,-2,-3,-1,-3,-1,4,-4
1570179149311894,-4,-1,-2,-2,-3,-3,-2,-6
1570179149332388,-2,-2,0,-1,-2,-1,0,-3
1570179149332388,0,-3,-4,0,-1,2,1,-3
1570179149334379,2,-1,0,1,-2,0,8,13
1570179149334379,1,-1,1,0,1,0,0,6
1570179149354916,0,-2,0,-1,-1,0,0,-1
1570179149354916,-2,1,0,0,-2,-1,-2,-6
1570179149356910,-2,-2,0,1,-1,-1,-3,1
1570179149356910,1,-2,-2,-1,-1,0,0,-10
1570179149370139,0,-1,1,0,-2,-1,-1,1
1570179149370139,3,0,-2,-2,-1,-1,1,5
1570179149371871,2,1,0,1,0,0,-5,-4
1570179149371871,-3,-2,0,0,-1,-1,0,0
1570179149392814,-2,-2,-1,-1,-1,0,0,-2
1570179149392814,0,0,-1,0,-1,-2,-1,0
1570179149393812,-1,-1,-3,-1,1,-1,-4,-3
1570179149393812,-1,1,-2,0,-2,-1,1,0
1570179149414756,-3,0,-1,-2,1,2,3,-1
1570179149414756,-4,-2,0,-2,0,-2,-1,-4
1570179149416755,13,6,2,3,2,-2,-17,25
1570179149416755,-4,-1,-3,1,-2,-1,0,-1
1570179149428719,1,1,-1,-1,0,1,1,4
1570179149428719,-3,-2,1,-1,-1,0,-2,-2
1570179149437861,-2,-2,1,-2,-3,-1,1,-8
1570179149437861,0,1,1,-1,0,1,2,1
1570179149452654,-1,0,0,-1,-2,-1,-2,1
1570179149452654,-5,1,1,2,1,0,2,-1
1570179149453655,6,-2,-3,-2,0,1,4,13
1570179149453655,-15,-6,-3,-3,-4,-2,0,-51
1570179149474596,-1,-3,-2,0,-1,-2,-3,1
1570179149474596,-6,-1,-1,-1,-1,-2,-5,-19
1570179149476591,-6,-2,-1,0,0,0,1,-11
1570179149476591,0,-1,0,0,-2,0,1,3
1570179149489557,-4,-2,-2,-2,-1,-1,1,-4
1570179149489557,2,-1,-2,-2,-2,-2,-1,-1
1570179149495707,-2,0,-1,0,-1,-1,-3,-2
1570179149495707,5,1,0,-2,1,1,-5,2
1570179149512496,5,-1,-2,-1,-1,1,-1,2
1570179149512496,3,0,-1,-1,-2,0,-2,11
1570179149514488,-5,-2,-1,-1,-1,0,4,-5
1570179149514488,1,1,-1,0,0,-2,-1,12
1570179149534434,-2,1,0,1,2,-2,-2,-7
1570179149534434,1,-1,0,-1,-1,0,0,-4
1570179149536429,-4,0,0,-1,1,-1,-2,-17
1570179149536429,2,-2,0,-1,1,-1,1,12
1570179149549394,2,1,1,0,0,0,-1,3
1570179149549394,-2,-1,-3,1,-1,0,2,2
1570179149556383,-4,-2,-2,-1,-3,-2,-3,-11
1570179149556383,1,-3,-2,1,1,0,-3,7
1570179149572343,-6,-1,-2,0,-1,0,5,-1
1570179149572343,7,2,3,1,1,-1,-10,7
1570179149574329,1,-2,-1,0,-1,-1,1,9
1570179149574329,-2,0,-2,-2,-1,-1,3,-7
1570179149594274,2,-1,0,0,-1,0,4,6
1570179149594274,-4,-1,0,0,-1,-1,-1,-1
1570179149602252,2,1,-2,0,-1,0,-1,6
1570179149602252,1,1,1,0,1,1,-1,5
1570179149609235,-6,-3,-1,-1,-1,0,2,-9
1570179149609235,7,-1,-2,-2,0,-1,-1,8
1570179149616216,-3,-1,0,0,0,0,0,-6
1570179149616216,1,-2,-1,-1,-2,-1,-1,2
1570179149632743,6,2,0,0,0,1,4,23
1570179149632743,-1,-3,-2,-2,-1,0,0,-1
1570179149633813,0,-2,-1,1,0,-1,-3,1
1570179149633813,1,1,-1,-1,-1,-1,-1,1
1570179149654686,4,-2,-1,-1,-2,1,-2,0
1570179149654686,6,1,2,0,1,1,-1,-7
1570179149656679,-7,-2,0,-1,-2,1,11,-7
1570179149656679,-2,1,0,-2,0,-2,-5,0
1570179149668804,-3,0,0,0,0,0,-2,-3
1570179149668804,0,0,-3,0,-3,-2,2,4
1570179149675661,-4,-1,0,-2,0,-2,-1,-13
1570179149675661,-1,-1,1,1,-1,0,1,-2
1570179149692582,0,0,-2,0,-3,-2,-3,-2
1570179149692582,0,-2,-1,-2,0,1,2,6
1570179149693586,2,-1,-1,-2,-1,0,-3,2
1570179149693586,-1,-1,-1,-1,-2,-2,1,3
1570179149714526,-8,0,0,1,-1,-2,1,-4
1570179149714526,1,2,0,0,0,0,3,3
1570179149716519,2,-2,-2,-1,-1,-3,-5,3
1570179149716519,4,-1,1,1,-2,1,0,-4
1570179149729599,-3,-2,1,-1,-1,-1,-2,-10
1570179149729599,-4,-1,0,0,-2,-1,-2,-8
1570179149736467,-1,0,2,0,0,-1,-1,1
1570179149736467,-8,-1,-1,-1,-2,1,1,-3
1570179149752429,2,0,-1,-1,0,-1,-10,-2
1570179149752429,-3,-1,-3,-1,-1,-3,0,-4
1570179149754419,2,1,-1,1,1,-1,0,1
1570179149754419,-3,-1,0,0,-2,-1,0,-1
1570179149775367,-1,0,0,0,0,1,0,0
1570179149775367,-1,-2,-1,-2,-1,0,-1,2
1570179149776360,-2,0,0,-1,-1,-1,-1,-3
1570179149776360,1,-1,-1,-2,0,-1,0,1
1570179149789359,3,-1,-2,1,0,-1,-1,-1
1570179149789359,0,-1,0,0,0,1,0,4
1570179149796307,-6,0,0,1,-1,0,1,-4
1570179149796307,7,-1,-2,0,0,0,0,15
1570179149812263,-1,-1,-1,-3,-1,0,-2,-3
1570179149812263,-3,-1,-2,-1,-3,0,2,-1
1570179149814259,-4,0,0,-1,-2,-2,-1,-1
1570179149814259,-5,0,-1,0,0,2,0,1
1570179149835203,-1,0,-1,-1,-1,-1,-1,-3
1570179149835203,-1,0,0,1,0,-1,0,-4
1570179149836200,2,-1,-1,-1,-1,0,-1,3
1570179149836200,1,0,0,-1,0,-2,-1,-5
1570179149848169,3,-1,1,0,0,0,1,5
1570179149848169,-5,0,-2,-2,0,-2,-4,-14
1570179149857665,0,-1,-1,0,0,0,0,-1
1570179149857665,-8,0,0,1,0,-2,-2,-11
1570179149872107,-1,0,-1,-1,0,0,0,7
1570179149872107,-2,-4,-2,-2,-1,-2,0,1
1570179149874234,2,0,-1,0,-1,-2,-1,-2
1570179149874234,-1,0,0,-1,0,-1,-1,1
1570179149895098,2,0,0,-1,-1,-2,0,2
1570179149895098,-2,0,0,-1,1,0,-1,0
1570179149896040,-1,1,1,-1,-1,1,-2,-1
1570179149896040,-1,0,1,-1,-2,-1,0,1
1570179149909006,-3,0,0,-2,-2,0,2,-2
1570179149909006,1,0,-1,1,0,0,0,3
1570179149916993,1,0,0,0,-1,-3,-1,-1
1570179149916993,0,-1,-1,0,1,1,1,0
1570179149931950,-1,0,0,-1,1,-1,-1,-4
1570179149931950,-1,1,-1,-1,-1,1,-1,0
1570179149933939,-2,-2,-1,-1,-1,1,-3,0
1570179149933939,1,-1,-1,0,-1,-1,-1,1
1570179149954939,-7,-2,0,-2,-1,-3,2,-22
1570179149954939,2,-1,0,0,-1,2,6,11
1570179149955880,0,-1,-1,-1,0,-1,1,0
1570179149955880,-2,0,-1,0,-1,0,-2,1
1570179149968852,5,-2,-2,-1,-1,-3,-3,4
1570179149968852,-8,-1,-1,1,-1,-2,1,-9
1570179149977823,0,-3,0,-2,-1,0,-1,-2
1570179149977823,4,0,-2,0,1,-1,2,5
1570179149992788,-1,-1,-3,0,-1,0,2,3
1570179149992788,2,0,0,0,-1,-1,-1,-2
1570179149994596,-5,-2,-3,0,0,1,5,-3
1570179149994596,7,0,0,-1,-2,-1,-1,7
1570179150014726,-1,0,3,-1,1,-1,-3,-1
1570179150014726,3,-1,1,-1,0,-2,-1,4
1570179150015721,0,-2,-1,0,1,1,-1,5
1570179150015721,-4,-1,0,-1,0,0,1,5
1570179150028686,5,-1,-2,2,0,0,-3,6
1570179150028686,-1,2,0,1,0,-2,2,-5
1570179150037663,4,1,1,2,0,-1,-6,4
1570179150037663,-2,-1,-1,0,1,-2,-2,-2
1570179150052622,7,-1,-2,-3,-1,0,0,10
1570179150052622,-9,-4,-3,-2,-1,-3,2,-14
1570179150053619,13,4,2,-1,-1,-1,-15,6
1570179150053619,-1,1,0,-2,0,-2,-6,-17
1570179150074565,-1,0,1,2,0,1,0,3
1570179150074565,5,1,-1,2,-1,1,-6,9
1570179150076560,-3,-1,-3,-1,-1,-1,1,-5
1570179150076560,-2,-2,-2,-2,-1,0,2,-9
1570179150088526,-4,-1,1,0,-1,-2,-1,-2
1570179150088526,-3,-2,-1,-1,-3,-1,-2,-3
1570179150097604,-3,0,-1,-1,-2,-1,6,-8
1570179150097604,-1,0,0,0,-2,1,0,0
1570179150111489,-5,-1,-1,-2,-1,-2,0,-13
1570179150111489,0,-1,-2,0,0,1,-2,2
1570179150119470,-1,-1,-2,-1,0,-2,3,0
1570179150119470,0,0,1,0,-1,0,-2,3
1570179150133414,3,1,0,0,0,-1,-1,4
1570179150133414,1,0,1,-1,0,2,3,15
1570179150142667,-2,-1,0,1,1,-2,0,3
1570179150142667,-12,-2,-1,-2,0,-2,-2,-9
1570179150148364,-11,-5,-2,-3,-3,-1,16,-13
1570179150148364,2,0,-2,-2,-1,-1,0,5
1570179150157437,-3,-1,-1,1,0,-2,0,-5
1570179150157437,2,-1,-1,-3,0,0,1,6
1570179150172347,-2,-1,-2,0,0,-1,0,0
1570179150172347,2,-2,0,0,0,-1,-3,-3
1570179150174296,-3,0,-3,-2,-1,2,0,-5
1570179150174296,-1,-1,-1,1,-2,-2,-2,1
1570179150195244,0,-2,-3,0,-1,0,-5,-3
1570179150195244,-8,-2,-3,-2,-1,-2,-4,-18
1570179150196237,2,0,0,-1,-2,-2,-2,3
1570179150196237,1,1,0,0,-1,1,0,1
1570179150208211,3,0,0,0,0,0,-2,3
1570179150208211,1,0,0,-1,0,-1,-2,-2
1570179150217182,-2,-3,-2,-2,0,0,2,-1
1570179150217182,1,0,-1,-1,-2,-2,1,-2
1570179150232402,-1,1,1,-1,0,0,-3,3
1570179150232402,-3,0,-1,0,0,-2,-1,-16
1570179150234137,13,-4,-2,-4,-2,0,-12,9
1570179150234137,9,1,2,3,0,-2,-16,7
1570179150255161,-2,0,0,-1,-2,-1,-4,-9
1570179150255161,6,1,0,0,0,0,-4,3
1570179150261174,-5,-1,1,-1,-2,-1,2,-2
1570179150261174,-2,-1,-2,-2,-1,-1,4,1
1570179150277632,1,0,0,-1,-1,1,2,3
1570179150277632,-3,-1,0,0,0,0,-5,-2
1570179150279017,-4,-2,0,0,-1,-1,3,-4
1570179150279017,0,-2,-1,-1,-1,-2,4,3
1570179150291988,-1,0,-2,1,-1,-1,1,3
1570179150291988,-1,0,0,-2,-1,0,5,4
1570179150293976,-1,1,0,0,0,-1,2,-1
1570179150293976,-2,0,-1,-2,0,-1,0,-3
1570179150314996,1,-1,0,-1,-1,-1,-2,3
1570179150314996,2,-1,-2,-1,-1,-2,0,3
1570179150316915,-1,-1,0,0,1,0,0,1
1570179150316915,-5,-1,0,0,0,1,1,-12
1570179150336861,2,1,-1,0,1,2,0,12
1570179150336861,-2,-1,-1,-1,0,-1,4,1
1570179150338856,-1,0,0,0,-2,-1,-7,-4
1570179150338856,2,1,1,2,0,-1,6,11
1570179150352824,-1,-1,-1,-1,0,-2,0,-2
1570179150352824,0,-1,0,0,-3,0,0,-2
1570179150353818,1,3,0,4,1,-1,2,0
1570179150353818,3,-2,-1,-2,-1,0,-4,0
1570179150374963,-1,-1,-2,-1,-2,0,-4,-7
1570179150374963,-1,-3,1,-1,0,-1,1,6
1570179150376755,-3,-1,0,-1,-1,1,4,-5
1570179150376755,-3,-3,0,-2,0,-1,0,-6
1570179150397705,1,0,2,0,1,1,1,-5
1570179150397705,-1,-3,-2,-2,-2,1,10,1
1570179150399695,-2,1,-1,0,-1,-1,-4,-1
1570179150399695,-3,-1,-2,0,-1,0,1,1
1570179150412662,-2,-1,-3,-1,0,-1,0,4
1570179150412662,-5,2,-2,1,0,0,-3,-7
1570179150413745,-5,-3,-3,-3,-2,0,0,-14
1570179150413745,6,3,0,-1,1,2,2,26
1570179150434605,-1,0,-1,-1,0,1,-2,1
1570179150434605,0,2,0,-1,2,-1,-5,-3
1570179150436595,-5,-1,-1,-1,-1,-1,1,-9
1570179150436595,-2,-2,0,-2,0,-2,-5,-10
1570179150458537,-1,0,-1,0,-3,-2,-3,-2
1570179150458537,7,1,0,1,0,0,-7,12
1570179150458537,2,-1,-1,0,0,-1,-1,8
1570179150458537,-4,-2,-2,-1,-1,2,3,-7
1570179150472498,-1,-1,-1,-1,-1,-1,-2,6
1570179150472498,-1,0,-1,0,0,-1,-2,2
1570179150478578,1,1,0,-2,-1,0,1,15
1570179150478578,2,-1,2,3,-2,-1,-2,-4
1570179150494528,-2,-1,-1,0,0,-1,-2,-5
1570179150494528,1,-1,-1,-1,-1,-1,1,-3
1570179150496435,-6,-2,-3,-1,0,1,2,-4
1570179150496435,-3,-1,-1,0,0,-1,-4,-8
1570179150517377,-2,1,0,0,-1,0,1,-4
1570179150517377,1,-3,-1,-1,-2,0,1,4
1570179150519426,3,-1,0,0,0,0,1,1
1570179150519426,-7,-3,0,-2,-1,0,0,-13
1570179150532440,-7,-3,0,-2,-2,-1,-2,-14
1570179150532440,-2,-2,0,0,-1,0,-2,-1
1570179150538329,0,0,-1,0,-1,-1,-1,-5
1570179150538329,-1,-2,-2,0,-1,0,-1,2
1570179150555379,3,-3,0,0,1,-1,1,4
1570179150555379,0,0,-1,-2,-1,1,-3,-1
1570179150556275,1,-1,0,-2,-1,-1,-2,1
1570179150556275,0,0,-3,-2,-2,-1,-2,-4
1570179150577224,0,0,-2,-1,-2,1,3,11
1570179150577224,-1,-1,-2,-1,-2,-2,2,-4
1570179150579213,10,3,3,3,1,-3,-20,3
1570179150579213,0,1,-1,-1,-2,-1,-2,-1
1570179150592179,-4,-2,-1,-3,1,-2,-1,-3
1570179150592179,1,-2,-1,-1,0,-2,-1,4
1570179150598167,-4,-1,-2,-1,-1,1,8,-1
1570179150598167,2,-1,0,-1,0,1,1,2
1570179150615274,-3,-1,2,0,-1,2,-2,-9
1570179150615274,4,2,1,0,0,0,3,21
1570179150621129,-2,-2,1,-1,-2,-2,2,-4
1570179150621129,-1,1,-1,1,-2,0,-2,-1
1570179150645188,1,0,-2,-2,0,-2,3,2
1570179150645188,-1,-1,0,0,-1,-1,0,-5
1570179150646035,-3,-1,-1,-1,-1,2,0,-2
1570179150646035,1,0,0,-1,0,-1,2,3
1570179150652020,3,1,-1,1,-1,0,-1,7
1570179150652020,-3,0,0,1,-1,-2,0,-6
1570179150660000,-9,-3,0,1,-2,-3,2,-18
1570179150660000,0,-1,-2,-1,-2,0,-5,-7
1570179150674959,2,-2,-1,0,1,0,2,3
1570179150674959,-2,0,-1,-2,-2,-1,0,-6
1570179150676955,-8,-4,-5,-3,-1,-1,8,-11
1570179150676955,0,-1,1,-1,1,-1,0,2
1570179150696901,0,0,0,0,-1,-3,-1,-3
1570179150696901,-2,-1,-1,0,0,-1,-1,-3
1570179150698894,1,-1,-2,0,0,0,-1,4
1570179150698894,2,-2,-2,1,-1,-3,0,5
1570179150711859,4,-1,-1,-1,0,-2,-2,2
1570179150711859,-5,-2,-1,-1,-1,0,0,-12
1570179150719838,3,1,0,-1,-1,-1,-1,9
1570179150719838,-1,1,0,-1,-1,-1,0,-3
1570179150734797,-2,-1,3,-1,-1,1,0,0
1570179150734797,0,1,0,1,0,-1,-3,0
1570179150736792,1,1,0,0,-2,2,-1,11
1570179150736792,2,-3,-1,-1,-1,-2,-1,-4
1570179150757751,-3,-2,-1,-1,-3,0,-2,-1
1570179150757751,1,1,0,-2,-1,-2,-1,0
1570179150758733,-2,-1,-1,-1,-2,-2,-4,-10
1570179150758733,0,0,1,2,1,1,-1,-1
1570179150770730,-3,0,0,0,0,0,-1,-8
1570179150770730,-3,-4,-2,-2,0,-1,-4,-8
1570179150779682,-1,-1,-2,-1,0,0,1,-1
1570179150779682,-4,-1,-1,-1,-1,1,6,2
1570179150794951,4,1,0,1,1,-2,-7,2
1570179150794951,2,-1,-3,0,-2,1,-4,-6
1570179150796632,-1,-1,0,-1,-1,0,3,3
1570179150796632,-3,1,-1,-2,1,0,-1,-4
1570179150817576,1,0,-1,-1,-1,-2,0,0
1570179150817576,-2,-1,0,0,-1,0,0,-2
1570179150819032,1,2,-1,0,-1,0,-3,3
1570179150819032,-5,-4,-2,-3,-1,-1,5,-7
1570179150830705,1,-1,-2,1,-1,-1,-4,1
1570179150830705,-1,-2,-2,-2,0,-1,2,4
1570179150847825,-1,-1,0,0,0,-1,-1,0
1570179150847825,1,0,1,1,-1,-2,1,5
1570179150854477,0,-2,-1,-3,-3,-1,0,-1
1570179150854477,1,-1,0,0,0,1,0,2
1570179150856540,5,2,-1,-2,0,2,2,17
1570179150856540,2,3,0,0,1,-1,-6,-3
1570179150877417,-4,1,-1,-1,0,0,-3,-7
1570179150877417,-2,1,0,0,1,0,1,5
1570179150879411,10,0,0,0,-1,1,1,4
1570179150879411,-1,0,1,-1,-1,0,1,5
1570179150891379,3,0,0,-2,-1,-1,3,4
1570179150891379,-1,-2,-1,0,-1,0,0,4
1570179150900356,-2,-2,-1,-1,-2,-4,-7,-11
1570179150900356,-3,-2,-3,-2,-1,1,6,0
1570179150915315,0,-2,0,-1,-1,2,0,3
1570179150915315,1,0,-1,-1,-1,-2,1,2
1570179150916686,-5,-1,-1,-1,-1,-1,-1,-3
1570179150916686,1,0,1,-1,0,-1,-3,1
1570179150937528,4,1,0,0,0,-2,-9,4
1570179150937528,-1,-1,1,1,0,-1,-2,-4
1570179150939251,-2,-1,-1,-2,1,-2,0,-3
1570179150939251,0,2,-1,0,-1,-2,-3,0
1570179150951216,-3,-1,0,1,0,-1,3,-3
1570179150951216,2,1,-1,0,-1,1,6,15
1570179150960194,0,1,-3,1,0,-1,-2,2
1570179150960194,-2,-3,-1,-1,0,-1,-1,3
1570179150975154,-3,-2,-1,0,1,0,2,3
1570179150975154,-4,-2,-1,-3,-1,-2,-1,-15
1570179150976543,3,-1,-1,0,1,1,3,2
1570179150976543,-1,0,0,0,2,1,-2,0
1570179150997094,-2,0,1,1,1,0,-2,-5
1570179150997094,-3,0,0,0,0,-2,-4,-12
1570179150999089,-4,-3,-1,-1,-3,-1,6,3
1570179150999089,-1,-2,0,-1,-1,1,-2,-4
1570179151011057,2,-2,-2,-3,-2,-1,-1,-7
1570179151011057,2,0,0,-1,-1,-1,1,6
1570179151020033,-2,0,2,0,0,0,1,-4
1570179151020033,2,1,1,0,-2,-2,-2,3
1570179151035158,-4,-1,0,-2,-1,-1,1,-5
1570179151035158,-1,-1,-1,0,1,0,2,1
1570179151035992,-2,-2,-1,-1,0,-1,-3,4
1570179151035992,-1,-1,-1,0,0,1,-1,-11
1570179151056935,1,3,0,1,0,0,-1,0
1570179151056935,0,1,-2,-1,0,0,-2,2
1570179151058930,-2,-2,-1,-2,-1,-2,-3,-11
1570179151058930,1,-2,-1,0,1,-1,0,3
1570179151070898,-1,-2,-3,-1,0,-1,3,0
1570179151070898,-3,-1,1,1,-2,0,-2,-4
1570179151079876,1,1,1,2,0,0,-3,-1
1570179151079876,0,0,-1,0,-2,-1,-1,0
1570179151094909,-2,-1,-2,-1,-2,-2,0,4
1570179151094909,-5,-1,0,-2,-2,1,0,-3
1570179151096829,1,0,-1,1,0,1,-2,0
1570179151096829,2,-1,2,1,0,0,-2,5
1570179151117772,-4,1,1,1,-2,0,4,-1
1570179151117772,6,2,1,1,0,2,-4,5
1570179151118772,0,-1,0,-1,-1,-1,-3,-5
1570179151118772,-1,-3,-3,-2,-1,-1,0,-2
1570179151130836,-2,-2,-1,0,1,-1,-1,-1
1570179151130836,-1,-1,-3,-1,0,-2,1,-1
1570179151140068,-2,1,-1,-1,-1,0,1,3
1570179151140068,0,1,-2,-2,0,0,1,0
1570179151153844,-1,-2,-1,-1,1,-1,0,-1
1570179151153844,2,0,-1,-1,-1,-1,-1,8
1570179151162737,4,1,0,0,1,1,0,6
1570179151162737,-3,2,0,1,-1,-1,-1,1
1570179151177616,-3,-2,1,-1,-1,0,-3,-5
1570179151177616,-3,-1,1,-1,-1,0,0,-7
1570179151178611,-4,-3,0,-1,1,-2,-2,-13
1570179151178611,-2,-3,0,0,-2,0,9,-1
1570179151190736,2,0,0,0,-1,0,-2,2
1570179151190736,-4,-2,-3,-2,-1,0,-1,-4
1570179151199663,0,-2,-2,0,0,0,-1,1
1570179151199663,0,0,-2,0,0,0,-1,0
1570179151214514,0,-1,-4,-3,0,0,0,1
1570179151214514,-1,-1,1,1,-3,1,0,-4
1570179151216509,-5,0,-2,0,-1,0,-1,-9
1570179151216509,0,0,-2,-2,0,0,-3,0
1570179151237455,0,-2,-1,0,-1,-1,1,0
1570179151237455,0,-1,1,-1,1,0,0,3
1570179151238451,2,2,0,-1,-1,0,1,7
1570179151238451,2,-1,-2,0,-2,-1,1,7
1570179151259396,7,3,0,1,0,-1,-6,3
1570179151259396,4,0,-1,-2,-1,-1,0,6
1570179151261390,-2,-1,-1,-2,-1,0,0,-1
1570179151261390,-2,1,1,0,0,-1,-1,0
1570179151275359,-8,-4,-1,-1,-4,-3,1,-15
1570179151275359,-3,0,0,0,1,-2,-1,-6
1570179151276349,-2,-1,-1,-3,-2,-1,-2,-1
1570179151276349,-2,-1,-3,1,0,0,-1,0
1570179151297293,-2,-2,-1,-2,-1,0,2,-2
1570179151297293,5,1,-1,2,-1,-1,-14,4
1570179151299289,-2,0,0,0,0,-3,-1,-3
1570179151299289,0,-1,0,-1,-1,-1,-1,0
1570179151320296,1,0,-1,1,-1,-1,0,4
1570179151320296,-2,-3,-2,-2,-2,-1,1,-9
1570179151322319,-1,-1,-2,0,-2,3,2,3
1570179151322319,2,2,-1,-1,0,-2,-4,0
1570179151335193,-1,1,-1,0,-1,-1,1,4
1570179151335193,5,-1,0,-1,0,-1,2,17
1570179151336189,-3,-2,1,-2,-1,-1,-2,-10
1570179151336189,-2,-1,-1,0,-1,-1,0,-3
1570179151358175,-2,-1,-1,-1,0,1,-1,-3
1570179151358175,1,-1,-1,0,-1,1,2,4
1570179151359606,0,0,1,-1,-1,-2,-1,-2
1570179151359606,-1,0,0,1,0,0,-3,-7
1570179151387059,3,1,0,0,1,-3,-9,1
1570179151387059,-2,1,-2,0,2,1,1,-2
1570179151389050,-1,0,0,0,0,-1,0,3
1570179151389050,-1,-1,-1,0,-1,0,-3,-5
1570179151394035,-6,-1,-2,-2,-1,0,5,-2
1570179151394035,-3,-2,-2,-1,-1,-2,-1,-7
1570179151401019,0,0,-1,0,0,1,-2,5
1570179151401019,-1,-1,0,-3,-2,-1,2,7
1570179151416977,-5,-1,-1,-1,0,2,-3,-4
1570179151416977,5,0,-1,-3,-1,0,1,4
1570179151418968,-1,0,-2,-1,0,-1,0,2
1570179151418968,-2,-2,0,-1,1,-2,-1,-1
1570179151439983,0,-1,1,-1,0,0,1,1
1570179151439983,-2,-1,-1,1,0,0,-1,-5
1570179151441907,1,-1,-2,0,-2,-2,-1,-3
1570179151441907,-1,-1,-1,1,-1,0,-1,-3
1570179151454151,0,1,0,0,-2,-3,-3,-1
1570179151454151,-2,-1,0,-1,-1,-2,1,0
1570179151460859,3,-1,2,-1,0,-1,3,16
1570179151460859,-1,-1,-1,-2,-1,-1,0,-4
1570179151476816,-1,0,-1,0,0,-1,0,2
1570179151476816,-2,0,0,0,0,0,0,-1
1570179151478808,2,0,-2,0,1,-2,0,0
1570179151478808,-6,-4,-1,-2,-3,0,9,-6
1570179151499753,-2,0,-1,0,1,1,-3,-2
1570179151499753,0,0,-1,-1,-1,0,0,-4
1570179151501746,-3,1,-1,-1,0,0,-1,-2
1570179151501746,-1,-1,-1,-1,-1,0,0,-1
1570179151513718,-1,-1,-2,-1,-1,-1,2,0
1570179151513718,-2,-2,-1,1,-2,-2,-1,-4
1570179151521186,-2,0,0,0,-1,-2,-2,-2
1570179151521186,2,1,-1,0,-1,-1,-3,2
1570179151544631,-1,0,1,-2,1,0,-2,-3
1570179151544631,0,0,1,-1,-1,-1,-2,2
1570179151546626,-1,-1,-1,-1,-1,-2,-2,-3
1570179151546626,-1,-1,0,-1,0,0,-4,-5
1570179151559710,1,-1,-1,0,-1,0,2,2
1570179151559710,-2,0,0,-1,0,-2,2,1
1570179151561587,-10,-2,-2,0,-5,-2,-3,-28
1570179151561587,6,3,1,0,3,-1,-3,2
1570179151574551,2,0,-2,0,1,-1,0,4
1570179151574551,0,-1,-1,-1,0,1,1,1
1570179151581533,-2,-3,0,1,0,-2,-1,-2
1570179151581533,-1,-1,-1,0,-2,-1,-3,0
1570179151597491,1,0,0,-1,-1,0,1,1
1570179151597491,2,0,1,1,-1,-2,-9,-1
1570179151598487,1,-1,-3,-2,-1,1,1,3
1570179151598487,2,-1,-2,-1,-2,-1,1,7
1570179151619435,1,-1,1,-1,0,-1,2,3
1570179151619435,-4,-1,-1,0,-1,-1,1,-2
1570179151621674,2,0,-1,1,1,-1,-1,4
1570179151621674,-2,1,-1,0,1,-2,-5,3
1570179151634481,-4,-2,-1,-1,-1,0,1,-15
1570179151634481,2,-1,0,0,-2,-1,1,-1
1570179151641378,2,1,0,0,0,0,1,3
1570179151641378,-3,-2,-3,0,-2,-3,2,0
1570179151657384,-4,2,-1,0,0,0,-1,-7
1570179151657384,-4,-2,-2,0,0,-1,-1,-7
1570179151659326,0,0,1,-1,0,1,-2,2
1570179151659326,-2,-1,0,-1,-1,-1,-4,-15
1570179151680273,-1,0,0,1,0,-2,-1,4
1570179151680273,1,0,-2,0,-1,-1,-1,5
1570179151682264,-6,-3,-2,-1,-2,-1,-1,-11
1570179151682264,1,0,0,0,0,2,-5,-4
1570179151694328,0,-1,0,-1,-2,-1,-1,1
1570179151694328,-2,1,1,-2,0,-1,1,-6
1570179151701214,4,-1,0,-1,-1,0,1,2
1570179151701214,3,-1,-1,-1,1,-2,0,9
1570179151718168,4,-2,-2,-2,-1,0,0,5
1570179151718168,-3,0,0,-1,-3,1,1,-4
1570179151719165,-2,-2,-1,-1,-1,1,3,0
1570179151719165,3,2,0,0,2,-1,-9,3
1570179151740121,-5,-2,-1,0,-2,-2,-3,-2
1570179151740121,2,-2,-2,-1,1,-1,0,-2
1570179151741106,1,0,-1,0,0,-1,4,2
1570179151741106,-1,1,1,1,-2,1,-1,3
1570179151754073,2,-1,-2,-2,-1,-2,-2,-5
1570179151754073,-4,0,0,0,-3,0,-3,-2
1570179151763048,4,-1,-2,-2,1,-2,-1,6
1570179151763048,-1,-1,-1,-1,0,0,2,-1
1570179151777422,-1,0,0,1,0,-1,-1,1
1570179151777422,-3,-2,0,-1,0,0,0,-4
1570179151779006,0,1,0,1,-1,-1,-2,5
1570179151779006,-3,-2,-2,-1,-2,-1,2,-4
1570179151799950,-2,0,-1,-1,-1,-1,1,1
1570179151799950,2,-1,-3,-2,-2,-1,0,3
1570179151800946,0,0,1,-1,-1,0,0,-6
1570179151800946,0,-2,0,-2,-1,-1,-1,-2
1570179151813912,1,0,0,0,-1,-1,1,4
1570179151813912,6,2,1,1,-1,-1,-15,2
1570179151822887,2,1,1,0,0,-1,-2,4
1570179151822887,-6,-1,0,-1,1,2,1,-3
1570179151837593,6,0,0,-1,0,1,1,6
1570179151837593,-4,-2,-3,-2,-1,-1,2,-3
1570179151838993,-3,0,-1,1,-1,2,0,1
1570179151838993,0,1,-1,-2,-1,-1,0,1
1570179151859822,-2,-2,-1,-1,1,0,0,-2
1570179151859822,-1,-1,0,-1,2,-1,3,-2
1570179151861784,-2,0,-2,-1,0,0,-3,-4
1570179151861784,-1,-1,-2,1,-1,0,2,0
1570179151873753,-1,0,0,-1,0,-1,0,-3
1570179151873753,0,0,0,0,-1,0,1,2
1570179151882728,-2,-2,-1,0,0,-2,-2,-10
1570179151882728,-3,-3,0,-2,0,-1,0,-3
1570179151897750,-1,-1,1,1,-2,0,-1,0
1570179151897750,-1,0,1,0,-2,-1,0,0
1570179151898685,1,-2,2,0,-1,-2,1,5
1570179151898685,0,0,-1,-1,-1,0,0,0
1570179151919629,1,-2,-1,-2,0,-1,0,5
1570179151919629,-4,1,-1,-1,1,1,0,-3
1570179151921624,-1,0,-2,-1,-1,0,-1,1
1570179151921624,-3,0,-3,0,1,-2,0,-1
1570179151933590,0,-1,-2,0,-1,-1,-1,-1
1570179151933590,0,-1,-1,-1,0,-2,-2,-1
1570179151942568,-1,1,0,-1,0,0,0,-2
1570179151942568,1,-1,0,-1,0,-1,0,0
1570179151957533,-4,-3,-1,0,-1,-1,0,-5
1570179151957533,7,1,1,-1,-1,-3,-13,9
1570179151958852,-1,0,-1,0,-2,0,0,1
1570179151958852,-1,0,1,-1,-1,-1,0,-5
1570179151979520,0,0,-3,-1,-1,0,-2,-1
1570179151979520,-4,-1,-1,-1,-1,0,7,-3
1570179151981465,3,2,0,-2,0,1,-3,0
1570179151981465,1,0,0,1,0,-1,1,9
1570179151993435,1,-2,1,1,-1,-1,-2,-3
1570179151993435,-2,-2,-1,0,-1,-1,2,-6
1570179152002487,6,2,1,2,0,-1,-3,17
1570179152002487,-3,-1,1,1,0,-1,1,-5
1570179152017372,-1,0,0,-3,-2,0,0,3
1570179152017372,-2,0,-1,1,0,0,2,1
1570179152019362,-3,-3,0,-1,-1,-2,1,-5
1570179152019362,0,-1,-1,-1,0,1,-1,1
1570179152039313,-3,-3,-1,-1,-1,-2,-2,-3
1570179152039313,0,0,-1,-1,-1,0,0,-2
1570179152041304,-3,-2,-2,-1,0,-2,0,-2
1570179152041304,-2,-2,-1,0,-2,-3,-3,-5
1570179152053315,-2,1,-1,-1,-1,0,0,-3
1570179152053315,5,2,1,-1,-1,-4,-13,1
1570179152062573,0,0,-1,1,0,0,1,0
1570179152062573,2,0,1,0,-2,-1,-1,0
1570179152077214,-1,-2,-1,2,0,0,-3,-2
1570179152077214,-3,-1,0,0,0,0,4,-2
1570179152079214,-1,-1,0,-1,-1,-1,-1,1
1570179152079214,5,-1,-2,-3,-1,0,-1,15
1570179152100494,0,1,-1,-1,-1,-1,1,0
1570179152100494,-8,0,-3,-1,0,-1,-1,-12
1570179152101144,-3,-4,-2,-2,-2,2,13,10
1570179152101144,-4,-2,-3,-2,-1,1,8,-4
1570179152113115,-2,0,0,0,-1,-1,0,-1
1570179152113115,2,0,0,1,0,-1,1,3
1570179152122088,-3,-1,-1,0,-2,-1,-3,-8
1570179152122088,-2,0,-1,-1,0,0,-1,-3
1570179152137051,-1,-2,1,-3,0,-1,0,2
1570179152137051,-2,-1,-1,-1,0,-2,3,-2
1570179152140041,-2,-1,-2,-2,-1,-1,-1,-1
1570179152140041,-1,1,-1,1,-1,-1,-3,-2
1570179152159990,3,0,-2,-1,-3,-1,-1,1
1570179152159990,2,0,0,-2,0,0,1,-1
1570179152161706,2,0,1,-1,0,-1,-2,-3
1570179152161706,-1,-1,0,0,0,0,-1,-1
1570179152181931,0,-1,-1,0,1,0,-1,-4
1570179152181931,-1,0,-1,-1,-2,0,0,0
1570179152183922,1,-1,0,-1,-1,-2,-4,-12
1570179152183922,-2,-3,-1,-3,-3,0,2,8
1570179152196564,-3,1,1,0,1,1,0,0
1570179152196564,0,-4,0,-2,-1,0,0,-1
1570179152204870,-3,0,-3,-1,1,0,9,6
1570179152204870,1,0,0,-2,1,-1,-3,-2
1570179152219834,1,-1,1,0,0,-2,-1,3
1570179152219834,-4,-1,2,0,-3,-1,-1,-8
1570179152225814,-1,0,0,-1,-1,-2,0,-1
1570179152225814,-2,0,0,-1,-2,0,-2,-3
1570179152242766,3,-1,0,1,-1,-2,0,4
1570179152242766,-3,0,-1,0,0,0,1,-5
1570179152243853,6,0,0,2,0,-3,-11,5
1570179152243853,0,-1,-2,0,-1,0,-2,-8
1570179152256730,0,2,-2,-2,0,-1,-2,-2
1570179152256730,1,-2,-2,0,1,2,0,7
1570179152264706,-2,-1,-2,-1,-1,-1,-5,-8
1570179152264706,0,-1,-1,0,-2,0,-2,1
1570179152279670,-1,-2,0,-2,1,0,0,-1
1570179152279670,-6,-4,-3,-4,-1,-1,4,-3
1570179152279670,0,1,0,-1,0,-1,-2,-3
1570179152279670,-5,-2,-1,-1,-2,0,1,-6
1570179152301607,2,-2,-1,-1,-1,1,0,2
1570179152301607,0,-2,0,1,-2,0,0,5
1570179152309586,-2,0,0,-2,0,-2,1,0
1570179152309586,1,1,1,0,0,-1,0,5
1570179152316578,-6,0,0,0,-1,0,0,-14
1570179152316578,3,0,-2,-1,-1,1,0,5
1570179152317902,1,-1,0,-2,-2,0,1,2
1570179152317902,-2,-1,-2,-2,-2,-2,5,1
1570179152339506,-7,-3,-3,-1,-4,0,13,1
1570179152339506,2,1,-1,2,1,-1,-5,-3
1570179152339506,1,0,2,0,-1,-1,-3,3
1570179152339506,-2,0,-1,0,0,1,0,-2
1570179152361448,1,-2,0,-1,-1,-1,2,11
1570179152361448,0,0,1,-1,0,-1,2,0
1570179152362445,-4,-1,-2,-1,-1,1,3,-8
1570179152362445,3,-1,-1,0,0,-2,-6,1
1570179152376552,-7,-2,-3,0,1,-4,-13,-22
1570179152376552,10,1,1,0,0,2,-7,14
1570179152377405,2,0,-1,-1,-2,0,-4,7
1570179152377405,0,-1,0,0,0,0,-1,0
1570179152399395,3,1,-1,-1,-1,0,-10,8
1570179152399395,-3,-2,-2,-2,-1,0,3,1
1570179152400351,-3,0,-2,-2,0,0,-1,-7
1570179152400351,0,0,-2,0,0,1,-3,-7
1570179152421291,-2,-1,0,-2,0,-1,0,-9
1570179152421291,-1,0,-1,0,-1,-1,2,1
1570179152422287,-3,0,-2,0,0,-1,-3,-11
1570179152422287,-2,-2,0,-1,-1,-2,4,1
1570179152436324,-5,-1,-2,-1,-1,-1,1,-24
1570179152436324,3,0,1,1,0,1,4,22
1570179152437251,-3,-2,-1,-2,0,2,1,3
1570179152437251,2,1,1,-1,0,-2,-9,-4
1570179152459191,1,1,-1,0,0,-1,0,2
1570179152459191,-3,-1,2,0,-2,-2,-4,-12
1570179152460300,-2,-2,-2,0,-1,0,5,-1
1570179152460300,0,0,1,0,0,1,3,7
1570179152482133,4,0,2,-1,0,1,1,15
1570179152482133,-1,1,-1,0,-1,-2,-6,-11
1570179152482180,2,1,0,0,-2,0,-2,6
1570179152482180,7,1,1,1,0,0,-8,1
1570179152497090,2,0,-1,1,1,0,-1,5
1570179152497090,-3,-2,-3,-3,2,-2,2,-4
1570179152497090,0,-2,1,2,0,1,-1,-5
1570179152497090,-8,-4,-3,-4,0,0,9,-28
1570179152519256,1,-1,-1,-2,-3,-2,-5,1
1570179152519256,-2,-1,-2,0,-1,-1,-1,-4
1570179152520164,0,1,0,-1,-1,0,-1,6
1570179152520164,-2,-2,0,-1,-2,-1,0,3
1570179152541967,-1,-1,-1,1,-1,1,2,4
1570179152541967,-2,-2,-2,-2,-1,-1,1,-4
1570179152541967,-2,-3,0,-1,-2,-3,-3,-5
1570179152541967,3,0,-1,-1,0,-1,-1,7
1570179152556924,-2,1,1,0,0,0,0,-2
1570179152556924,-2,0,0,0,-2,0,-4,-2
1570179152556924,0,-2,-3,-1,-1,1,4,4
1570179152556924,4,2,0,1,-2,0,-4,5
1570179152579256,0,1,-2,-2,0,-1,-1,4
1570179152579256,-2,-2,0,-1,-1,-2,2,-5
1570179152587049,-3,0,-2,-1,0,-3,-6,-16
1570179152587049,3,-1,-1,1,0,-1,3,7
1570179152601809,-4,-1,0,0,-1,0,8,-4
1570179152601809,10,2,3,0,-1,0,-12,15
1570179152602803,-3,-2,1,-1,0,0,-2,-3
1570179152602803,-1,0,-1,-1,1,-1,-1,0
1570179152616861,1,-1,-2,-1,1,1,-2,0
1570179152616861,-3,0,-1,-2,-3,0,3,-4
1570179152617770,1,-1,-1,0,-1,-2,1,4
1570179152617770,-3,1,0,1,0,0,0,3
1570179152638706,-1,0,-2,-1,0,-2,-2,3
1570179152638706,-4,-1,-1,0,0,-2,0,-5
1570179152640137,1,-1,-1,-1,-1,-1,-1,3
1570179152640137,-1,-1,-2,-1,0,-1,1,-1
1570179152661796,-3,-3,-2,-1,-1,-2,-2,-13
1570179152661796,4,0,0,0,0,0,-2,-3
1570179152662643,-1,0,-1,-1,0,0,0,0
1570179152662643,-3,-1,-2,0,-1,-1,1,-4
1570179152677603,-1,-1,1,0,-1,2,1,7
1570179152677603,0,-2,-3,-1,-1,0,3,8
1570179152684656,5,3,1,0,1,0,-13,3
1570179152684656,1,1,0,-1,-1,-1,-1,-1
1570179152698546,-1,-2,0,0,-2,-1,0,-1
1570179152698546,-5,-2,0,-1,0,-1,0,-7
1570179152699716,-2,0,1,0,0,0,3,-3
1570179152699716,0,-1,0,0,0,-1,-4,0
1570179152722484,0,-1,-2,0,-3,-2,-2,3
1570179152722484,1,-1,-1,0,-2,-1,-3,-4
1570179152722484,1,-1,0,-1,0,-1,0,0
1570179152722484,-2,-1,-2,-2,0,-2,-1,0
1570179152735653,-5,0,2,0,1,0,6,2
1570179152735653,1,-2,-1,-3,-1,1,3,4
1570179152744423,-1,0,-1,1,-3,-1,2,2
1570179152744423,0,-2,1,-1,-1,1,0,-1
1570179152759383,1,1,0,-1,0,0,-2,-3
1570179152759383,0,1,0,1,-1,-3,-11,6
1570179152760382,0,-2,-1,-2,-1,0,0,1
1570179152760382,-1,0,0,1,-2,0,1,2
1570179152781328,2,0,1,-1,0,-1,-4,-7
1570179152781328,-3,0,-1,1,2,1,6,-2
1570179152782327,1,0,-1,-3,0,0,6,9
1570179152782327,-3,-2,1,-2,-2,-1,-5,-4
1570179152796344,0,-1,-1,-1,-1,1,-1,0
1570179152796344,-7,-3,-2,-1,-1,0,1,-7
1570179152804266,-1,1,-2,1,0,-1,-3,-5
1570179152804266,1,0,-2,-3,-2,1,2,0
1570179152819230,2,1,-1,0,-1,-1,-2,3
1570179152819230,-1,-3,-1,-3,-1,-2,1,-3
1570179152820314,-2,1,0,1,-1,-2,-1,-13
1570179152820314,0,-1,-1,0,0,0,1,4
1570179152841165,-1,-1,-1,0,0,-1,2,0
1570179152841165,-2,1,0,1,0,1,1,-4
1570179152842598,-1,-1,1,-2,1,1,-2,-4
1570179152842598,-3,-1,-1,-1,0,1,2,8
1570179152856125,2,-1,-1,-1,-1,-1,-3,-3
1570179152856125,-3,-2,-1,0,-1,-1,1,0
1570179152864103,1,-1,-1,-2,-1,0,-2,7
1570179152864103,1,1,0,2,0,0,0,-3
1570179152879406,-5,1,-2,0,-1,-2,-4,-7
1570179152879406,11,2,1,-1,0,2,-3,11
1570179152880200,-8,-3,0,0,-1,0,3,-5
1570179152880200,2,-2,-1,-2,-1,0,-3,-2
1570179152902002,0,0,1,0,-1,0,-2,-1
1570179152902002,-7,-2,-2,-1,0,-1,-3,-21
1570179152902540,2,0,1,-1,0,-1,0,3
1570179152902540,0,0,-1,0,1,-1,-5,-5
1570179152915964,6,1,0,-3,-1,-1,2,10
1570179152915964,-9,-3,-1,-1,-1,0,12,0
1570179152923943,3,1,0,0,-1,-1,-5,-6
1570179152923943,-3,-1,-3,0,-2,-1,2,-4
1570179152938953,0,-1,0,-1,-1,0,2,1
1570179152938953,0,1,1,1,1,0,-4,-5
1570179152939901,-4,-2,-2,-3,-1,-2,-3,-15
1570179152939901,-1,0,1,-1,0,-3,-4,-5
1570179152961844,6,0,1,0,1,1,-8,4
1570179152961844,9,2,2,1,0,0,-4,16
1570179152962839,-12,-4,-1,-2,-2,-3,6,-39
1570179152962839,10,4,0,2,3,-1,-14,-11
1570179152975805,4,1,0,0,0,-2,-4,4
1570179152975805,-4,-2,-1,-2,-2,-3,-2,-18
1570179152983788,-18,-6,-6,-4,-4,-2,1,-33
1570179152983788,-3,-2,-2,1,1,1,2,-4
1570179152998809,12,2,0,0,1,0,4,24
1570179152998809,-1,2,0,1,-3,0,2,-12
1570179152999827,11,4,0,2,0,0,1,36
1570179152999827,-4,-3,-1,-2,0,1,4,4
1570179153022059,-7,-3,-2,-2,0,-1,7,-8
1570179153022059,2,0,-1,-1,1,-2,-6,2
1570179153022907,6,2,1,1,-1,0,0,12
1570179153022907,-2,-1,-1,-3,-3,-2,0,0
1570179153035643,-11,-5,-2,0,-2,-1,0,-14
1570179153035643,-2,-3,-2,-2,-2,-1,1,0
1570179153044627,1,0,-1,0,0,-1,3,13
1570179153044627,3,1,2,0,0,0,-2,-1
1570179153059629,-6,-2,-1,-1,0,0,0,-7
1570179153059629,-1,0,1,-1,0,-1,1,3
1570179153059629,2,-2,0,-2,-1,0,6,18
1570179153059629,-4,0,-1,-3,0,-2,4,-1
1570179153081524,-1,-1,-1,-1,-1,-1,-1,-1
1570179153081524,-1,-1,-1,0,1,0,-1,0
1570179153082521,-1,0,2,1,0,-1,-2,-3
1570179153082521,4,-1,0,0,-4,-1,-7,11
1570179153096068,-5,-1,-2,-1,-3,-1,-1,-3
1570179153096068,7,1,-3,-1,-1,0,2,13
1570179153104380,0,0,0,0,-1,0,-4,-1
1570179153104380,-4,-1,-1,-1,-1,-1,2,-9
1570179153119172,1,0,-1,0,-1,-4,-20,6
1570179153119172,-11,-4,-1,-3,-3,-2,1,-20
1570179153120390,5,1,0,0,0,1,0,6
1570179153120390,4,0,-2,1,0,-1,1,8
1570179153141228,-5,-3,-2,-2,-1,0,2,-11
1570179153141228,-2,-1,-1,0,0,-1,-1,-1
1570179153142220,-1,0,1,-1,0,-1,-6,0
1570179153142220,-4,-2,-2,-2,0,0,3,-5
1570179153165243,5,1,-1,-1,0,-1,10,23
1570179153165243,4,0,0,-2,1,-1,-5,4
1570179153165243,-4,-2,-2,-1,-1,1,7,3
1570179153165243,-9,-3,0,-2,-2,-2,3,-34
1570179153179232,-10,-3,-1,-2,-3,-2,3,-23
1570179153179232,1,0,0,0,-1,0,-1,8
1570179153180328,3,-2,-3,-1,1,-3,-2,7
1570179153180328,-3,-2,0,-1,-1,-1,1,1
1570179153201480,-3,-3,0,1,-2,0,-1,-7
1570179153201480,-1,-2,-3,-1,0,-3,1,-3
1570179153202314,5,3,-1,1,1,0,-3,3
1570179153202314,-5,0,-1,1,-1,-3,-3,1
1570179153225363,2,2,-1,0,1,1,-1,4
1570179153225363,1,1,0,-1,-1,-1,0,9
1570179153226055,1,-1,-1,0,-2,-2,-3,5
1570179153226055,3,0,-1,0,0,-1,0,11
1570179153239203,-1,1,0,0,-1,0,-1,-7
1570179153239203,-2,0,0,-1,-2,-1,2,-3
1570179153240343,0,-2,0,-1,0,-1,1,-5
1570179153240343,3,-1,-1,-1,-1,0,0,6
1570179153262229,3,-1,0,-1,0,-1,-2,2
1570179153262229,-5,-1,1,-1,0,-1,-1,-8
1570179153269390,1,-1,-1,-1,-1,-1,-1,1
1570179153269390,1,0,0,0,-1,0,-3,5
1570179153285401,-1,0,-1,-1,0,-1,0,5
1570179153285401,4,1,-1,0,-1,1,0,-2
1570179153285674,-4,-1,-1,-1,0,-1,-3,-4
1570179153285674,1,-1,-1,-1,-1,-2,-1,4
1570179153299523,-3,-2,0,-1,-2,0,-2,-15
1570179153299523,-1,-2,1,0,-2,1,-1,-1
1570179153300277,-8,-1,0,-2,0,1,-1,-12
1570179153300277,4,0,-1,-2,0,-1,1,15
1570179153321576,0,0,0,0,-1,-1,-1,3
1570179153321576,-1,-2,-1,0,0,-1,-1,2
1570179153322572,-10,-1,-2,0,-1,0,0,-12
1570179153322572,6,1,0,2,1,-1,0,8
1570179153345486,8,1,0,-1,0,0,1,11
1570179153345486,2,0,1,0,1,-2,-1,7
1570179153346198,0,-1,-4,-3,-1,-2,0,-1
1570179153346198,-2,-3,-2,-2,-1,1,2,-2
1570179153359164,1,-1,-1,1,-1,-2,0,-1
1570179153359164,7,1,3,1,-1,-1,-3,-7
1570179153360161,-1,-1,0,1,-2,1,0,6
1570179153360161,-6,-3,-6,-4,0,0,0,-2
1570179153382103,1,1,-4,0,1,-1,0,1
1570179153382103,-3,2,3,0,1,0,0,-3
1570179153382103,5,-1,4,2,-4,-2,-1,1
1570179153382103,-1,-2,-4,0,2,-1,-1,0
1570179153405041,0,1,1,-1,0,2,2,1
1570179153405041,-1,-1,-1,0,1,-1,-1,2
1570179153406038,2,-1,5,0,-2,-2,0,3
1570179153406038,0,2,4,6,3,1,0,2
1570179153419003,1,-7,2,2,-3,-1,-4,-2
1570179153419003,-5,-3,-2,-3,-7,-6,-2,3
1570179153420172,5,0,-7,-8,-5,-2,-1,1
1570179153420172,2,0,-7,-6,0,1,1,2
1570179153441943,-6,4,8,7,8,4,0,-11
1570179153441943,16,0,-4,-2,3,2,6,37
1570179153441943,-4,-1,-4,-2,1,-1,-1,10
1570179153441943,11,3,7,3,-1,1,-1,-6
1570179153464883,0,0,-11,1,12,1,1,5
1570179153464883,-1,0,7,-3,-14,-4,-2,-19
1570179153465879,-7,16,15,-3,-11,-7,-5,-3
1570179153465879,9,34,0,-6,-3,-1,4,22
1570179153478943,-13,-45,9,4,0,0,-1,-12
1570179153478943,4,5,-15,3,5,3,-1,-16
1570179153479842,-14,-14,6,1,5,-2,-4,-9
1570179153479842,-3,0,0,5,1,0,-4,-23
1570179153501929,5,-7,-16,-14,-5,-3,2,11
1570179153501929,-13,-13,-6,-1,6,-1,-4,-9
1570179153502782,-1,4,-1,3,-1,-1,1,21
1570179153502782,-10,15,30,4,-5,-3,-3,12
1570179153524721,21,1,-44,-16,-3,-2,3,21
1570179153524721,15,10,1,-5,1,2,3,32
1570179153525723,-1,16,-3,-6,2,4,3,38
1570179153525723,-18,-16,28,20,2,-1,-5,3
1570179153538684,-12,-22,1,-3,-7,-2,-3,-4
1570179153538684,-14,-13,-13,1,0,-1,-2,-36
1570179153546662,37,41,9,1,3,4,4,-64
1570179153546662,-25,-47,4,1,1,-2,-4,-64
1570179153561872,-16,-16,24,17,-1,-2,0,-43
1570179153561872,-2,-10,-26,-7,-1,-2,-7,-30
1570179153562618,-4,-7,3,2,2,2,-2,-43
1570179153562618,19,30,-26,-18,-6,-1,5,-34
1570179153584559,0,28,7,-10,-9,-4,-7,-56
1570179153584559,3,-7,2,0,-2,1,8,-13
1570179153585556,6,0,-6,10,4,1,6,-9
1570179153585556,-4,-10,-6,-4,2,-2,-2,-17
1570179153599527,-5,-4,-9,-2,-2,-4,-2,-13
1570179153599527,-2,13,16,1,-2,-4,-27,-17
1570179153599527,-5,1,-2,1,-2,-7,-11,-115
1570179153599527,8,2,8,7,1,6,7,-117
1570179153621464,0,11,10,12,5,3,14,-121
1570179153621464,-9,-37,-20,-5,1,6,48,-118
1570179153622458,12,-7,-15,-2,-4,-5,-40,20
1570179153622458,-31,-58,-29,-6,-4,-3,-4,76
1570179153645397,21,45,5,-2,-4,-2,-5,110
1570179153645397,-13,12,21,4,-1,3,-13,101
1570179153645397,1,-1,-7,-10,-1,5,18,85
1570179153645397,34,18,-1,4,-3,1,8,84
1570179153659411,-7,4,8,-1,1,1,-1,72
1570179153659411,0,-10,-7,0,1,0,2,51
1570179153660358,-1,-12,0,-5,-2,-6,-13,47
1570179153660358,-10,28,2,-9,-8,-9,-4,37
1570179153681590,6,-19,-6,-4,-2,-1,-16,27
1570179153681590,-1,12,15,9,2,3,8,18
1570179153682519,25,15,-1,-2,2,2,14,18
1570179153682519,-12,-17,-12,-3,-2,-2,3,10
1570179153704460,5,12,10,-1,4,2,13,6
1570179153704460,22,1,-9,-10,-2,-1,-25,10
1570179153706465,-14,-16,-4,3,14,5,-2,6
1570179153706465,6,5,0,-3,-22,-8,7,2
1570179153718758,-5,-10,-8,-5,-10,-9,-22,6
1570179153718758,-1,7,18,8,4,4,9,5
1570179153726404,22,6,-3,5,8,15,13,2
1570179153726404,3,14,-4,-6,-1,-15,-33,1
1570179153741361,-17,1,5,-3,-9,-8,-1,3
1570179153741361,-2,-12,-5,-3,-10,-6,0,1
1570179153742359,18,18,11,-1,-2,3,10,-1
1570179153742359,-31,-39,-16,0,14,15,29,112
1570179153765650,-1,8,8,3,8,13,37,121
1570179153765650,-30,-17,-8,3,8,5,-44,74
1570179153765650,-11,-11,-1,-5,-12,-10,9,106
1570179153765650,38,11,0,0,-1,0,13,101
1570179153778263,-4,-11,-18,-8,-7,-16,-25,55
1570179153778263,-3,8,8,3,2,4,10,47
1570179153786376,-45,-30,-1,2,4,1,7,96
1570179153786376,56,46,13,2,0,4,-3,17
1570179153802200,-42,-39,-12,-4,-1,1,10,-37
1570179153802200,-14,11,3,-2,0,-6,0,-97
1570179153802200,9,-1,-5,-5,-6,-4,-7,46
1570179153802200,-17,-9,9,4,5,5,-2,83
1570179153825137,59,45,6,5,4,5,-2,33
1570179153825137,-7,-10,-3,-3,-10,-6,-6,-30
1570179153825137,-23,-2,3,-1,-1,2,17,-120
1570179153825137,2,-12,-1,2,4,2,-6,-95
1570179153838860,13,-15,-15,-3,-7,2,13,-60
1570179153838860,20,25,17,9,18,-9,-60,-90
1570179153847079,35,9,-4,5,5,3,-2,-89
1570179153847079,-8,6,11,2,-7,3,-14,-63
1570179153863040,-42,-38,-13,-6,-6,0,11,35
1570179153863040,19,23,-1,-1,-3,-2,17,127
1570179153864157,-9,5,-5,-4,-3,-3,1,77
1570179153864157,-16,6,4,1,4,-4,-27,-31
1570179153884977,4,-4,7,0,1,4,17,-54
1570179153884977,7,1,1,1,-4,3,12,-35
1570179153886064,3,-10,1,2,1,-5,-11,-14
1570179153886064,12,-1,-13,-6,-6,4,15,-17
1570179153906921,-7,7,5,1,2,2,-8,-21
1570179153906921,-10,-2,2,-2,0,2,33,-16
1570179153907916,-6,-3,-4,0,-4,-5,-25,-91
1570179153907916,-7,-12,-7,-3,-2,-6,11,-110
1570179153921884,4,10,8,5,7,2,-41,-99
1570179153921884,-1,0,-6,-7,-8,-1,14,-83
1570179153922876,-9,-9,-1,-2,-4,-1,3,-69
1570179153922876,-11,-6,-1,3,3,-2,-7,-70
1570179153944816,8,19,8,1,0,1,4,-49
1570179153944816,19,4,-8,-2,-3,-4,14,-21
1570179153945813,-23,1,0,-3,-2,-2,10,-29
1570179153945813,-9,-23,-2,2,4,-2,-15,-15
1570179153958779,2,4,-1,2,1,-3,-20,8
1570179153958779,-5,-8,-5,-5,-3,2,6,118
1570179153966760,12,14,2,1,-2,-4,-4,76
1570179153966760,-2,10,0,-2,-1,-3,-3,38
1570179153981719,-1,-6,-4,-1,-3,-1,9,-3
1570179153981719,0,0,2,1,-1,-3,-7,-49
1570179153982716,-7,-12,-2,-1,4,10,11,-31
1570179153982716,2,6,-9,-8,-4,-1,-3,-31
1570179154004659,1,-15,8,3,1,-1,-1,-28
1570179154004659,-2,3,4,3,10,4,12,-22
1570179154005657,1,-2,1,2,-2,4,-1,-15
1570179154005657,-3,1,3,1,-1,-10,-9,-13
1570179154018619,3,9,0,2,-2,10,23,22
1570179154018619,-11,-10,-12,-6,34,7,-20,-1
1570179154026598,-8,-12,-3,-5,-31,-13,-42,-19
1570179154026598,8,7,6,3,-6,-3,31,12
1570179154041622,1,7,4,13,-22,-9,-16,-6
1570179154041622,-8,-12,-12,-25,-29,-24,18,-2
1570179154042555,12,9,9,13,63,42,22,5
1570179154042555,-8,-8,-8,-7,5,16,-20,-13
1570179154064797,-2,-1,-9,-1,44,15,-20,7
1570179154064797,-5,-9,-9,-32,-93,-2,9,7
1570179154065831,-6,-8,-8,2,3,-6,-7,-7
1570179154065831,5,8,5,-5,-41,-10,69,12
1570179154087433,9,7,3,9,68,7,-39,2
1570179154087433,-2,3,14,37,70,24,-4,64
1570179154088434,9,4,-3,-24,-21,-13,-23,17
1570179154088434,-8,3,-2,11,70,26,76,59
1570179154101396,-19,-22,-10,-16,-59,-42,-54,-34
1570179154101396,15,17,10,4,-36,-27,1,24
1570179154102398,-4,2,-4,-18,-48,-21,2,36
1570179154102398,7,6,15,11,-41,-18,-61,14
1570179154124440,8,13,5,11,13,24,65,38
1570179154124440,1,6,18,67,127,84,-23,-47
1570179154125795,-6,-8,-7,-31,-112,-38,23,-24
1570179154125795,22,52,-6,-28,-24,-31,-11,-43
1570179154147722,-18,-49,4,6,37,20,4,-25
1570179154147722,9,-18,-11,0,-8,-8,46,-2
1570179154148273,1,1,5,33,86,31,65,23
1570179154148273,4,11,-9,-3,4,13,-85,-34
1570179154162235,19,81,-10,-40,-74,-45,26,4
1570179154162235,-39,-70,10,1,-4,-10,-47,-86
1570179154162235,-15,-29,-10,18,16,11,104,-27
1570179154162235,-5,-11,-7,-17,-24,-19,-65,-19
1570179154185176,12,33,14,10,8,16,-7,3
1570179154185176,8,26,7,-15,-32,-16,8,21
1570179154185176,-14,-29,-7,4,8,-7,-34,-25
1570179154185176,-10,-26,-7,0,17,11,23,20
1570179154208113,14,45,-5,-4,-18,-8,-6,25
1570179154208113,11,30,4,-2,-8,-6,13,20
1570179154208113,-10,-55,-16,-2,11,1,-28,19
1570179154208113,-3,-5,17,13,13,8,7,16
1570179154222075,-14,-37,-27,-5,-2,-1,-8,1
1570179154222075,9,62,-3,-19,-17,-10,4,13
1570179154222075,31,-66,0,15,12,9,-17,12
1570179154222075,26,29,2,-8,-11,-8,-4,30
1570179154252250,-27,23,18,7,-1,0,36,27
1570179154252250,32,47,-18,-13,-9,-3,-28,-16
1570179154252993,15,-16,39,12,1,-5,-17,-3
1570179154252993,-36,-123,-44,12,15,14,21,11
1570179154266963,1,-5,-3,-4,35,0,33,4
1570179154266963,-44,-8,-18,-21,-68,-23,-42,-21
1570179154267962,40,58,2,-9,-2,1,-6,24
1570179154267962,40,41,10,-3,-2,-1,16,6
1570179154281918,-16,-38,0,7,1,3,-16,-5
1570179154281918,60,17,-1,-1,8,0,19,31
1570179154282914,-73,-7,10,9,13,6,-3,-27
1570179154282914,3,-29,-1,-6,-15,-4,-32,-4
1570179154304857,-37,11,1,3,-5,3,3,3
1570179154304857,18,13,-1,-3,3,-4,4,-3
1570179154306027,-18,-18,-19,-11,-10,-9,-20,-16
1570179154306027,4,19,3,4,15,3,14,-7
1570179154327840,47,23,8,-6,-14,-3,-10,2
1570179154327840,-34,-75,-24,-7,2,-2,1,2
1570179154328791,-52,65,6,-7,-4,-4,-20,-23
1570179154328791,-13,-11,3,15,8,8,16,38
1570179154341760,21,-30,21,6,-8,-3,-2,-4
1570179154341760,16,29,2,-1,1,0,22,5
1570179154342753,-24,-15,-11,-2,3,1,-29,5
1570179154342753,9,53,-23,-14,-8,-8,6,-6
1570179154364694,30,-29,54,32,9,9,21,11
1570179154364694,-84,-77,-24,-7,4,-7,-25,-44
1570179154365890,46,32,0,-4,-5,1,18,22
1570179154365890,-43,7,5,1,6,9,11,-1
1570179154387636,58,30,-19,-12,-7,-5,-6,7
1570179154387636,-55,-18,7,1,0,-6,-9,-25
1570179154388635,31,10,-3,1,1,-1,0,7
1570179154388635,-45,4,9,-4,-2,1,4,-38
1570179154401647,20,0,-11,-5,-2,3,-6,15
1570179154401647,14,-1,12,6,1,-1,0,3
1570179154402592,18,10,-8,-5,-3,-5,-11,-7
1570179154402592,25,12,3,2,3,1,16,5
1570179154424616,-39,-30,-14,-10,-6,-1,5,-15
1570179154424616,21,29,1,2,2,0,-9,22
1570179154425538,6,18,-23,-8,-4,-5,-6,5
1570179154425538,-12,-51,23,13,3,-3,-9,-57
1570179154447803,-9,4,-16,-7,-3,1,16,15
1570179154447803,-2,-13,-3,5,5,6,-5,17
1570179154448469,43,33,19,3,-1,0,11,9
1570179154448469,-32,-27,-7,-3,-1,2,2,4
1570179154461812,-22,11,-4,-4,-7,-8,-36,-22
1570179154461812,24,8,-3,-1,0,0,10,9
1570179154462433,-19,-13,1,2,8,3,-8,-11
1570179154462433,23,17,4,4,1,-3,24,12
1570179154484691,-10,-5,-2,-3,-6,-1,-33,-11
1570179154484691,9,-2,5,1,7,3,15,14
1570179154485455,-2,2,1,-5,-9,-2,-10,1
1570179154485455,8,3,5,1,4,0,10,13
1570179154507315,-5,-10,-13,-2,4,2,6,1
1570179154507315,-1,-7,5,1,-2,4,5,-5
1570179154508400,-6,-1,-1,-4,-2,-4,-9,3
1570179154508400,8,5,-3,6,16,9,12,7
1570179154521275,-9,-9,-2,-8,-9,-17,25,-2
1570179154521275,6,7,5,0,-5,-3,-52,-7
1570179154529262,0,0,0,-9,-3,-6,11,15
1570179154529262,5,-1,-6,0,-2,2,-16,7
1570179154545216,1,-1,-2,1,-13,-8,11,3
1570179154545216,3,4,10,9,27,4,12,8
1570179154545216,-9,-4,-3,-4,-35,-10,-12,-8
1570179154545216,4,-3,-5,-4,-6,-14,-12,-3
1570179154567152,-2,4,3,0,2,4,7,0
1570179154567152,6,3,5,5,8,12,10,1
1570179154568154,-5,-5,-2,-5,16,7,24,-1
1570179154568154,5,4,1,0,2,-5,-49,3
1570179154582118,-3,-1,-2,8,-6,-8,-24,-8
1570179154582118,2,0,1,-4,25,9,41,20
1570179154582245,4,3,3,4,-14,4,-4,-3
1570179154582245,-6,-5,-6,-7,-3,0,14,8
1570179154605054,-1,-1,0,-4,-7,3,-28,-15
1570179154605054,-8,-9,-8,-7,-1,-15,6,-7
1570179154606083,3,4,2,6,-20,3,15,2
1570179154606083,5,1,-1,-5,37,11,-49,-2
1570179154627130,-10,-6,-5,3,82,35,22,8
