timestamp,emg1,emg2,emg3,emg4,emg5,emg6,emg7,emg8
176300231083,1,0,0,1,3,6,31,1
176300231083,-1,1,-1,0,-3,-2,-6,-1
176300232772,-4,-1,-2,-3,-4,-5,-5,-2
176300232772,1,2,2,0,3,2,3,1
176300236698,-2,-1,1,-1,-1,-7,-9,-1
176300236698,-2,0,-1,-1,0,0,3,-3
176300244772,2,-2,0,0,-1,3,3,-1
176300244772,-3,-2,2,0,-1,1,-2,-6
176300259490,1,1,0,-1,-1,-4,-8,-3
176300259490,1,-1,0,0,-1,2,6,4
176300267304,-1,0,-2,0,-1,-8,-10,-1
176300267304,-1,-1,-3,-1,-2,8,4,0
176300290518,0,-2,-1,-1,-3,-3,-4,-3
176300290518,0,1,-1,0,-2,0,1,-3
176300291285,0,-1,-2,-2,-3,-6,-6,-2
176300291285,-1,-1,-1,-1,-2,5,4,4
176300296732,1,0,0,0,2,-8,-3,4
176300296732,-2,0,0,-1,0,6,2,2
176300304956,-2,-1,0,0,2,-4,-8,1
176300304956,-1,-2,-1,-2,-3,-2,1,-2
176300319956,-2,-1,-1,-1,-2,-1,-6,-3
176300319956,1,-2,0,-1,0,-1,-4,1
176300320546,-1,0,-1,-1,0,0,5,-3
176300320546,-2,-2,-1,-2,-3,-6,-8,-1
176300342270,1,-1,2,0,1,-2,-11,-1
176300342270,0,-1,-1,0,0,0,7,0
176300343042,-1,-1,-2,-1,1,8,-1,-2
176300343042,-2,0,0,2,0,0,5,-2
176300365455,0,0,0,0,-2,-3,-3,2
176300365455,-2,0,0,-2,-1,1,-3,-2
176300366294,1,0,0,1,1,1,1,-2
176300366294,2,0,0,-1,-2,-2,-1,4
176300379769,0,-1,-1,-1,-2,0,6,1
176300379769,-2,0,-1,-1,0,-3,-6,-7
176300380541,-1,0,0,-1,-3,-4,-1,0
176300380541,0,1,-1,0,0,5,1,-2
176300402286,-1,-1,-2,-1,-1,5,6,2
176300402286,-1,-1,-1,-1,-1,-4,-5,-2
176300403047,-2,-3,-1,-2,-2,-4,-6,-3
176300403047,-1,-2,0,1,0,1,2,-1
176300416753,0,-2,-2,0,-3,-3,-1,-2
176300416753,-3,0,0,0,0,-1,1,-1
176300424963,-1,-1,-1,0,0,4,10,2
176300424963,0,-1,0,-3,-2,-4,-1,0
176300439862,1,-1,0,0,2,-1,-5,4
176300439862,0,0,-1,0,0,1,4,-2
176300440595,1,1,2,0,-1,-5,-11,-4
176300440595,-2,-2,-2,0,0,-1,-1,-1
176300462433,-2,1,-1,0,1,5,0,-4
176300462433,0,-3,1,-1,-1,-4,-3,3
176300463065,-1,0,-1,1,0,1,2,-3
176300463065,1,0,-1,0,-2,-3,-3,-2
176300476787,-2,-1,-2,-1,-2,-4,0,-5
176300476787,1,1,1,-1,0,3,2,6
176300484824,-2,0,-1,-2,-1,-1,-6,-1
176300484824,-2,-1,-1,-1,0,0,15,-1
176300507937,-2,-2,0,0,-2,-2,-4,-4
176300507937,-1,-1,-1,0,-3,-1,-1,2
176300508828,0,-2,0,0,1,0,2,-1
176300508828,0,0,-1,-1,-2,-7,-14,-2
176300522399,0,-1,0,-1,0,-6,0,1
176300522399,0,0,1,0,1,19,5,-1
176300523023,0,0,1,-1,1,-3,4,-3
176300523023,0,-3,-2,-1,-1,0,1,4
176300536637,-1,0,-2,-1,0,0,-1,-2
176300536637,-2,-1,-2,-3,-3,-7,-7,-3
176300544903,-2,0,0,-2,-2,0,3,-1
176300544903,1,0,-2,1,1,1,-12,-2
176300559833,-2,0,-1,-1,0,6,10,2
176300559833,0,0,-2,0,2,-7,-4,-5
176300560582,0,-1,-1,1,3,2,-1,-2
176300560582,-1,-1,-1,-1,-3,-5,2,0
176300582422,1,-1,-3,0,-4,-2,-12,1
176300582422,1,-2,-1,0,0,0,2,-1
176300582999,1,0,0,1,-1,1,4,4
176300582999,1,0,1,-1,1,1,-3,-3
176300596737,-1,0,-1,0,-2,-2,-4,-1
176300596737,0,-2,-1,0,0,-1,2,0
176300604813,0,-2,-1,-2,-1,-3,4,-1
176300604813,0,0,0,-1,0,5,7,2
176300619680,1,0,1,0,-1,0,0,1
176300619680,0,-2,1,0,1,-3,-5,-2
176300620473,-1,0,0,-1,-3,2,-6,-1
176300620473,0,-1,0,1,3,6,10,-1
176300642333,0,-1,1,-1,-1,-1,2,1
176300642333,-1,1,0,1,0,5,-4,0
176300643043,-1,0,0,-1,1,1,0,0
176300643043,-1,-2,-1,-2,-2,1,1,-2
176300656734,-1,0,0,1,2,-5,-1,1
176300656734,-1,0,0,-2,-1,0,5,2
176300664916,-2,0,0,-2,-1,-4,-1,1
176300664916,-3,0,0,-2,-1,0,0,-2
176300679787,-1,-2,-2,-3,-3,-4,-10,-3
176300679787,-3,-1,-2,0,-2,-6,-10,0
176300680547,1,1,-1,1,1,2,-3,-2
176300680547,0,1,-2,0,-2,-1,0,1
176300702249,0,-2,-1,-1,0,-1,-1,-2
176300702249,-1,-3,-2,-2,-4,5,15,-3
176300703044,1,0,1,1,1,-19,-35,0
176300703044,1,0,-1,1,3,16,20,0
176300716583,0,1,0,-1,1,-10,-16,-5
176300716583,-2,0,-1,-3,-4,0,-2,-1
176300724788,0,1,-1,2,1,2,10,5
176300724788,-3,-3,0,-3,-2,-7,-7,-2
176300739765,1,1,-1,0,1,7,10,1
176300739765,-1,-1,-1,0,-1,-3,-4,-3
176300740511,-2,-2,-3,-1,-4,1,0,-2
176300740511,0,0,-2,-1,-4,-8,-10,-1
176300762458,-1,-2,1,1,2,7,4,0
176300762458,-1,0,-1,-1,-2,-9,-7,-2
176300763043,0,-2,0,-2,-2,8,21,0
176300763043,-3,-4,-2,-2,-2,-19,-21,-1
176300785636,2,1,1,2,4,21,15,3
176300785636,0,0,-1,2,1,-2,7,4
176300786229,-1,1,-2,-1,-1,3,-4,-1
176300786229,-1,-2,-1,-1,-4,-5,6,-2
176300799840,0,-2,-1,-1,0,-8,-3,0
176300799840,-1,-1,-2,0,1,-2,-7,-3
176300800553,0,-1,-1,1,0,2,5,1
176300800553,-1,0,-2,-1,-1,2,-2,0
176300822838,-2,-3,0,-2,-2,-4,-4,-3
176300822838,0,-2,1,0,2,5,7,1
176300823460,-2,-2,0,0,0,-4,-6,-1
176300823460,0,-1,0,0,0,-2,-5,-2
176300845935,-1,0,0,1,-3,0,6,-2
176300845935,-1,0,-3,-3,-3,-4,-3,-2
176300846770,-2,-2,-1,-1,-1,-2,0,-4
176300846770,1,1,0,1,2,-4,-10,2
176300859794,0,0,0,1,1,-2,-2,0
176300859794,0,-1,1,0,1,-2,-2,-1
176300860505,0,0,-1,-2,-1,-1,-2,-1
176300860505,0,1,-1,-1,1,7,6,-1
176300882224,-1,-1,-3,-2,-3,2,3,1
176300882224,1,0,1,1,4,6,18,0
176300883018,-2,0,-1,-2,-1,-3,-2,0
176300883018,-1,-1,0,1,-1,-2,-4,-1
176300905381,-1,-2,0,-3,-3,-5,-2,1
176300905381,0,0,-2,-3,-1,-1,-4,-1
176300906185,0,-1,-1,-1,-1,-2,-5,-1
176300906185,0,1,1,-1,1,4,4,0
176300919856,-1,0,-1,-1,0,-4,-7,-7
176300919856,0,-3,0,-3,-1,-2,-5,3
176300920603,0,-2,-1,-2,-1,0,2,-2
176300920603,1,-1,-1,-2,1,2,0,2
176300942309,-4,-3,-1,-2,-1,1,2,0
176300942309,0,-1,0,1,0,-2,-2,0
176300943040,0,-1,-1,1,1,5,17,3
176300943040,-2,-2,-2,-1,-3,-2,-4,-3
176300965581,0,0,-1,0,-2,-6,2,2
176300965581,-1,-1,1,1,-1,2,-7,-2
176300966212,0,-1,0,-2,-2,-10,-10,-1
176300966212,1,1,-1,0,0,19,15,2
176300979970,0,0,0,-1,0,-8,-8,-1
176300979970,-2,0,0,0,-2,-1,-3,0
176300980442,0,0,-1,1,0,-2,-1,-1
176300980442,-2,-2,-2,0,-3,-4,-1,-3
176301002313,-1,-1,-2,-4,0,3,1,0
176301002313,-1,-1,-1,-1,-3,0,4,0
176301003121,-2,-1,-1,-1,-3,-3,-8,-2
176301003121,-1,0,0,0,-2,1,17,2
176301025582,0,-2,0,0,-2,2,0,-1
176301025582,-2,0,0,-1,0,-9,-5,-1
176301026193,1,-2,-1,-1,0,3,-4,1
176301026193,-1,0,-2,-1,-2,-5,-7,-3
176301039835,0,-1,-2,-2,0,-7,-2,-1
176301039835,1,0,-1,0,-1,3,6,-1
176301040539,-1,-1,-2,-2,-2,-2,-5,-3
176301040539,0,-1,1,-1,1,-3,-10,1
176301062346,-1,-1,-1,-1,0,6,10,2
176301062346,-3,-3,-2,-1,1,1,-1,-2
176301063007,-1,-1,-1,0,1,-1,4,-3
176301063007,-1,-1,1,-1,1,-7,-6,-4
176301085583,0,-1,1,0,-1,-10,-6,4
176301085583,2,0,0,1,2,22,9,0
176301086298,-2,-2,-2,-2,-3,-2,1,-3
176301086298,0,0,-1,0,2,-3,-8,1
176301100211,0,0,0,-1,-2,-4,-2,-2
176301100211,1,0,-1,-2,-1,-4,-2,-1
176301101082,0,-1,-1,-1,0,2,2,1
176301101082,0,-2,-1,-2,-2,0,3,-2
176301122378,-1,0,-1,1,-1,0,-2,0
176301122378,-2,0,-1,0,-1,-5,-4,0
176301123075,-2,-1,2,1,0,1,0,-4
176301123075,-1,-2,-1,-1,-2,-1,0,2
176301145480,-3,-1,0,-1,1,2,0,-2
176301145480,0,-1,-1,-1,-1,-5,-1,0
176301146210,-1,2,0,-1,-2,3,0,0
176301146210,-1,-2,1,0,0,-7,-4,0
176301159853,0,1,-1,0,0,3,0,0
176301159853,-2,-2,-2,-1,-2,-4,1,-3
176301160576,-1,-1,-1,0,1,-4,-13,0
176301160576,-1,-1,0,0,1,2,0,-3
176301182340,0,-1,-3,1,0,5,5,-2
176301182340,-1,0,-1,0,0,-3,-10,1
176301183005,0,1,1,-1,-1,-2,-5,0
176301183005,-2,0,0,0,0,-1,2,-2
176301205495,-2,-2,-1,0,-2,-5,-4,-1
176301205495,0,-2,0,0,-1,2,4,1
176301206215,-2,-1,0,0,-1,-6,3,-3
176301206215,2,2,0,1,2,11,-5,1
176301219720,2,-1,-1,-2,-3,-2,-1,-2
176301219720,-2,1,-1,0,0,-3,-3,0
176301220533,0,0,-2,-2,-1,0,1,1
176301220533,-1,0,-2,0,0,-5,0,-1
176301242277,-1,0,-1,-3,0,-2,-4,-2
176301242277,1,-1,-1,-1,-1,0,-6,-2
176301243118,0,-1,1,0,-2,3,1,2
176301243118,0,-1,-2,0,-2,-2,1,0
176301265591,1,-1,1,1,2,6,5,-2
176301265591,-2,0,-1,-3,-1,-5,0,0
176301266239,0,-1,-2,-2,0,3,1,1
176301266239,-1,-2,-2,-1,-2,-3,0,-1
176301279916,0,1,0,0,-1,-7,-7,-1
176301279916,0,1,-1,0,-1,-2,-4,-5
176301280498,-1,-2,-1,-1,-1,1,3,2
176301280498,-3,-2,0,0,-3,1,5,-2
176301302208,-3,-1,0,-3,-2,2,1,-1
176301302208,2,-3,-1,0,-1,-1,1,2
176301303236,0,0,0,0,0,1,-10,1
176301303236,0,0,0,-1,1,5,15,-1
176301325446,-1,0,-2,1,0,-1,0,0
176301325446,-1,-1,0,0,0,0,1,1
176301326242,-1,0,-3,0,0,-5,0,-3
176301326242,-1,-1,-1,-2,-2,0,-3,1
176301339678,2,0,0,0,-1,2,3,1
176301339678,-1,1,0,-1,-1,-2,0,-1
176301347408,-1,0,-2,2,1,1,1,-2
176301347408,0,2,0,-1,0,-6,-8,-2
176301362387,-2,-2,-2,-2,2,5,14,3
176301362387,0,0,0,2,0,-7,-4,2
176301362959,1,-1,1,-1,-1,0,1,2
176301362959,1,-2,-2,-2,-3,-3,-11,-2
176301385558,-1,-1,-1,0,1,7,17,2
176301385558,1,0,-1,-1,1,-5,-7,-4
176301386196,0,0,0,0,-1,2,10,2
176301386196,1,0,-1,-2,-1,-3,-2,2
176301399237,0,0,-1,-1,-1,1,-6,-4
176301399237,-2,-1,-1,-1,-1,5,0,-2
176301407423,1,-1,-1,0,-1,-2,-6,1
176301407423,-1,-1,-2,1,-3,-4,-3,-1
176301422379,-1,0,0,-1,0,-4,-7,-2
176301422379,1,0,-2,-1,0,8,8,0
176301423010,-1,0,-1,-1,1,0,3,-3
176301423010,-1,-2,-2,0,3,4,2,1
176301445605,1,-1,-1,0,-5,-4,-7,-1
176301445605,-1,1,0,0,0,-2,-3,-1
176301446209,-1,-2,-1,-2,-1,-5,-7,-1
176301446209,0,1,1,0,-2,7,25,1
176301459078,-2,0,0,0,4,-3,-1,0
176301459078,-2,-1,-2,-4,-4,0,-2,1
176301467289,-2,-2,-1,-1,-3,0,4,-1
176301467289,-2,-1,-1,-1,0,-2,-8,-2
176301482201,-1,-1,-1,-1,-4,-5,-6,1
176301482201,-1,-1,0,0,-2,1,3,-1
176301482992,0,0,1,-2,1,0,-5,1
176301482992,-1,0,-2,0,0,-1,-2,0
176301505512,0,0,0,1,2,3,1,-1
176301505512,-1,-3,-3,0,0,-5,-1,1
176301506215,-1,0,-1,-2,-2,3,2,-1
176301506215,-2,-1,1,-2,-5,-5,-6,-1
176301519055,0,-1,0,-2,-1,0,1,0
176301519055,0,-1,-1,2,3,-2,-13,1
176301527328,0,-1,0,4,5,8,24,1
176301527328,0,-2,-1,-5,-1,-4,-8,-2
176301542376,-2,-1,-2,-2,-4,0,2,0
176301542376,-1,-1,-1,-4,-3,1,-3,-1
176301543052,-1,-2,-4,-4,-8,-3,-9,-2
176301543052,0,-1,-1,2,4,3,-1,-3
176301565483,0,-1,-2,-1,-5,-11,-3,10
176301565483,0,0,2,2,4,2,12,-7
176301566223,-1,0,0,6,1,-2,-7,1
176301566223,-1,-1,-2,-5,-6,0,-6,-7
176301579137,0,-2,-1,-5,-3,-1,-3,5
176301579137,-1,1,1,0,-1,-1,-12,-4
176301587420,0,-1,-1,-5,1,0,10,1
176301587420,-1,0,2,12,6,3,0,2
176301602344,-2,0,0,-6,0,3,-1,-11
176301602344,0,1,-1,8,3,-2,6,18
176301602966,-2,0,0,7,-4,-5,-6,0
176301602966,0,-3,-6,-13,-7,-7,-1,3
176301624880,-1,0,-2,-5,-1,-2,-7,-6
176301624880,0,2,-1,-8,0,1,-7,-3
176301625507,1,-1,0,0,2,2,0,-6
176301625507,0,-1,2,2,-3,-2,9,1
176301648061,2,0,-1,-1,0,5,-8,3
176301648061,-2,-3,1,4,0,0,3,-2
176301648697,-1,-2,2,2,3,3,0,-5
176301648697,2,2,1,-7,7,-1,-11,0
176301662379,-2,-2,1,8,2,6,11,1
176301662379,-2,-2,-2,-2,-3,-12,-9,-10
176301663057,2,1,-1,-3,-8,0,12,20
176301663057,0,-1,-1,1,-3,0,2,0
176301684815,-1,1,0,0,-1,-6,-5,-13
176301684815,2,0,0,6,6,5,0,18
176301685574,-3,-4,-7,-10,-9,-7,-11,-9
176301685574,-1,0,-1,11,6,4,0,-3
176301708007,2,1,1,-14,-13,-5,3,5
176301708007,0,-4,-3,-5,-10,-3,6,-12
176301708705,-3,1,0,0,3,2,-10,-2
176301708705,-1,0,0,6,3,4,-4,-2
176301722333,0,0,2,8,7,3,1,1
176301722333,1,0,-3,-12,3,2,13,8
176301723034,0,0,0,-1,-4,-3,-13,-14
176301723034,0,1,1,-2,2,-9,-5,-15
176301744853,-3,-2,0,11,2,6,-3,-3
176301744853,-1,-1,1,-7,-9,2,2,-4
176301745458,0,-2,-4,-6,1,0,7,1
176301745458,0,0,-1,-19,-7,-5,-3,0
176301768014,1,0,-1,21,15,-2,0,10
176301768014,-2,-2,-2,-5,-12,-5,2,-9
176301768704,-3,-3,-2,2,5,-2,-11,-8
176301768704,-1,2,1,-3,-9,5,7,13
176301782379,0,-5,-6,-17,-12,-8,-6,-6
176301782379,1,0,-4,3,2,1,1,2
176301783029,3,2,2,-5,10,0,-6,-4
176301783029,-2,-2,-2,11,9,-3,4,11
176301804878,-5,-1,-1,-7,-5,4,-2,-6
176301804878,-4,-1,2,1,-10,-2,-8,-1
176301805493,-1,1,0,5,1,2,9,7
176301805493,2,-1,3,-1,-1,2,5,-6
176301827957,-2,1,-2,-14,0,-5,-3,-1
176301827957,-1,-3,-4,-3,-2,0,0,-8
176301828674,2,2,3,2,2,1,3,7
176301828674,5,2,1,16,8,7,-1,-5
176301842350,0,1,3,5,0,-1,10,17
176301842350,-3,-1,0,-6,-3,-8,-10,-17
176301842967,-1,-3,-4,-9,-13,1,-8,13
176301842967,0,-2,-2,-1,-5,1,3,2
176301864858,4,-3,-1,-5,16,-2,19,1
176301864858,-3,1,1,9,-10,-4,-8,-4
176301865482,-2,-2,0,-2,-2,6,7,2
176301865482,-5,-4,-1,-5,-2,0,-5,-8
176301895401,-2,-1,-2,0,-5,1,-4,0
176301895401,-1,0,3,11,22,2,-2,2
176301896196,2,-2,-5,-14,-4,-3,-1,-4
176301896196,-4,-2,-3,-6,-8,-8,-5,2
176301902270,1,0,1,7,1,2,-9,-4
176301902270,0,1,2,3,2,-4,5,-2
176301903096,1,-1,-1,2,1,6,2,-3
176301903096,-1,1,2,7,13,-1,4,4
176301924626,-3,-4,-5,-10,-20,-8,-5,-4
176301924626,0,-3,-4,-6,-6,-4,-1,-1
176301932323,-1,0,-1,1,-3,9,4,2
176301932323,-2,2,3,6,6,-6,-8,1
176301946879,0,0,-3,-7,-7,-3,-6,-4
176301946879,4,-2,-1,-7,-3,-5,-8,-6
176301954630,-3,-1,2,2,-2,-6,5,1
176301954630,4,0,0,3,3,9,15,21
176301962158,1,2,4,0,2,2,0,-2
176301962158,-1,0,1,0,-1,2,-1,1
176301962970,-3,-1,0,2,1,-8,-9,-21
176301962970,1,-1,-2,-1,-1,1,2,9
176301984656,2,2,1,5,8,4,3,2
176301984656,-4,-1,-2,-3,6,11,10,-5
176301985586,1,-1,1,3,-3,0,-3,0
176301985586,-3,-3,-7,-12,-8,-2,-3,-6
176302008006,3,0,3,11,4,0,-3,-8
176302008006,-1,-1,-5,-9,-10,-4,-1,4
176302008607,-2,0,0,2,7,3,2,4
176302008607,-1,0,-1,-5,-8,-17,-17,-17
176302022180,-3,-3,-2,-2,-1,12,1,3
176302022180,3,2,5,11,13,12,2,7
176302022961,2,0,-4,-9,-10,-8,1,-3
176302022961,-3,-1,1,-2,-3,2,3,-1
176302044858,-2,-1,-2,2,4,-5,2,-1
176302044858,-2,1,-1,3,3,1,2,5
176302045427,1,3,3,1,2,0,4,3
176302045427,1,0,2,3,-2,-5,-6,-6
176302067881,-3,-3,-1,-1,-3,8,2,-2
176302067881,5,-1,-3,-6,-4,-8,-2,1
176302068737,0,-1,1,7,9,-1,-3,-2
176302068737,-2,0,-2,-1,-2,3,1,-4
176302082376,2,2,0,0,4,0,5,2
176302082376,1,0,-2,-3,0,-6,-4,19
176302083026,-2,-1,-5,-3,-8,-2,-2,-2
176302083026,-1,-1,2,0,1,8,0,-4
176302104722,-2,1,2,3,4,-4,-2,-2
176302104722,-3,-1,-4,0,1,3,0,-3
176302105548,-2,-1,-2,-1,-4,-5,-5,-1
176302105548,0,-2,-3,-3,-7,-4,4,2
176302127858,1,0,0,1,-1,-10,-4,-4
176302127858,2,0,0,0,-3,3,-2,1
176302128716,-1,1,2,2,5,1,7,5
176302128716,-1,-2,-1,-2,0,3,-3,1
176302142234,-1,-1,-2,2,2,-4,1,3
176302142234,-1,-1,-4,-5,-9,-3,-1,-8
176302143143,5,0,0,1,1,3,1,-1
176302143143,-5,1,-1,-3,3,7,0,4
176302164827,1,-1,-3,-1,-6,-8,-8,-3
176302164827,-1,-2,3,4,7,1,9,1
176302165466,-2,1,0,0,-2,-11,-8,3
176302165466,4,0,0,-8,-9,10,6,-8
176302187878,-5,0,-1,-2,2,-10,2,-2
176302187878,-2,0,3,3,3,6,-4,-2
176302188723,1,0,2,4,8,4,4,2
176302188723,4,4,-4,0,-3,-4,-3,7
176302202300,2,-2,-4,-3,-6,-16,0,3
176302202300,2,2,3,1,2,6,3,8
176302203230,-6,-6,-4,-6,-6,4,-3,0
176302203230,-10,-8,-2,-2,0,-5,2,-2
176302233255,-7,3,2,1,0,7,-8,1
176302233255,3,-2,-2,-3,-4,-7,1,3
176302234095,4,1,-1,-2,-1,-5,-19,-16
176302234095,5,4,1,2,-2,0,11,2
176302248008,0,0,-1,-2,-4,2,-1,-3
176302248008,2,-3,0,2,4,3,-1,-5
176302248698,-6,4,2,-2,-6,-6,2,-2
176302248698,-4,-4,-3,1,2,-4,-14,-15
176302262316,1,1,1,-1,3,6,8,14
176302262316,-3,-2,-3,-2,-4,-4,1,1
176302262969,5,-3,-5,-5,-6,-5,-3,-6
176302262969,-3,-2,3,3,5,3,-4,4
176302284757,0,-1,-3,-2,-5,1,-11,-6
176302284757,1,0,6,3,7,1,-2,-7
176302285517,-1,-3,-5,1,-3,-1,11,10
176302285517,0,0,-2,-1,2,-1,4,2
176302308024,3,-2,6,-1,-3,0,-6,-3
176302308024,-1,4,-9,-1,0,-6,0,2
176302308645,6,5,2,4,7,15,-4,-8
176302308645,-3,-6,-5,-5,-9,-8,-10,-7
176302321654,-10,-4,-3,-1,-2,-2,11,11
176302321654,-12,2,4,0,-1,-3,-3,11
176302329872,15,2,7,7,11,3,3,-12
176302329872,5,3,-1,1,1,-2,-3,-7
176302344858,5,0,1,-1,-2,1,-2,-5
176302344858,-2,-3,-7,-3,-10,-12,-5,1
176302345485,0,2,-6,-2,-2,-1,-1,4
176302345485,-6,-12,-7,-5,0,0,9,7
176302367904,0,1,-4,3,4,3,-6,-14
176302367904,3,-3,-1,-3,-2,4,-2,-6
176302368624,-7,-5,4,0,-3,-7,0,6
176302368624,2,9,-7,-3,-3,3,3,4
176302381528,-2,0,-3,-4,-1,0,-12,-6
176302381528,-7,-2,0,1,1,2,0,-5
176302389905,5,-5,-8,0,-1,0,4,5
176302389905,2,7,18,-1,2,-3,-5,-8
176302404689,-4,0,4,0,0,0,-5,-1
176302404689,-3,0,-1,-3,1,6,3,-2
176302405512,-11,-5,-3,-1,-4,-6,1,2
176302405512,11,-1,-1,-1,-1,-6,-6,9
176302428029,-6,-1,2,3,3,-2,12,6
176302428029,4,-4,0,-9,-13,4,-17,-1
176302428647,-13,5,0,-3,0,6,12,2
176302428647,0,-1,3,3,2,-5,0,-1
176302441656,-1,2,2,1,3,5,1,-3
176302441656,-4,-2,6,-3,-2,-6,-3,0
176302449822,8,5,-17,-3,-3,-3,-2,-2
176302449822,-8,0,8,8,9,6,-1,-4
176302464871,2,-4,-1,-2,2,3,11,4
176302464871,2,-5,-4,1,-9,-8,-6,-6
176302465491,-6,1,7,-5,5,0,13,7
176302465491,2,1,2,2,-1,2,3,3
176302487858,2,-1,-7,-4,-5,0,-4,-1
176302487858,4,-1,-3,-2,0,0,2,-8
176302488631,1,3,8,7,8,3,3,20
176302488631,-2,-2,-5,-5,-6,-3,-3,7
176302501527,1,-2,0,-3,-5,-4,-1,1
176302501527,0,4,0,1,4,-2,4,-4
176302509704,-3,-5,2,2,8,2,-9,-14
176302509704,3,-2,-3,-6,-8,-10,4,-2
176302525534,-3,-1,-2,-3,-4,16,0,2
176302525534,3,1,-2,2,5,-3,-1,6
176302526101,0,-2,0,-1,-2,-2,9,-2
176302526101,-3,1,-2,-2,-3,5,7,1
176302548037,2,2,3,6,9,-9,4,-5
176302548037,-2,1,0,0,-4,5,0,1
176302548655,-1,-3,0,-3,-5,-6,-16,-5
176302548655,5,-1,2,2,5,2,2,5
176302561541,-3,0,-3,-4,-3,-3,-3,-1
176302561541,2,2,2,4,12,5,3,-3
176302569698,-3,-2,-3,-4,0,0,-5,3
176302569698,-8,-1,-1,-5,-11,-4,0,-2
176302585329,-1,-3,-7,0,0,0,-5,-4
176302585329,-1,2,3,3,1,-3,0,1
176302586207,0,-2,2,3,0,-6,-17,-14
176302586207,1,0,-2,-2,-3,4,16,27
176302608008,0,-3,-3,-3,-6,-16,-4,-3
176302608008,0,2,-1,-4,-10,1,7,3
176302608628,1,-1,2,4,-1,4,0,1
176302608628,-2,-4,-3,0,-1,-3,-9,-13
176302621495,3,3,4,6,11,6,0,4
176302621495,-2,-2,-1,2,7,5,5,5
176302629838,-3,-3,-4,-6,-8,-10,-13,-8
176302629838,-3,-1,1,-1,-1,-1,4,-4
176302645516,4,1,-2,-2,-1,1,2,4
176302645516,-1,0,1,2,0,-2,0,-4
176302646121,-2,-2,0,-3,-4,2,1,2
176302646121,1,0,-3,0,4,-1,-9,-9
176302667992,-2,-1,-3,-3,-7,0,0,3
176302667992,1,-2,-3,-5,-4,-4,-2,-4
176302668715,-1,-1,1,-2,-2,0,1,3
176302668715,1,1,-1,3,3,4,-3,-8
176302690378,1,-1,1,1,4,1,3,2
176302690378,-2,0,0,0,-3,0,0,-6
176302691151,1,-3,-2,-2,-1,-2,7,1
176302691151,0,-2,0,2,4,4,-7,-2
176302705500,-1,-4,-3,-4,-8,-11,8,6
176302705500,1,0,-2,-3,0,3,-9,-5
176302706171,-1,1,2,0,2,1,2,-2
176302706171,-2,-1,3,1,0,-3,-6,-3
176302727995,-2,1,0,0,0,2,-1,-4
176302727995,-1,-6,-9,-5,-3,-4,0,-8
176302729537,1,5,3,1,-4,-2,-2,11
176302729537,1,-1,-4,1,1,0,8,3
176302750376,-1,-6,-3,2,1,4,-3,-4
176302750376,1,2,-1,-3,-1,-1,3,7
176302752164,-1,-2,-7,-4,-1,-4,-5,-12
176302752164,-1,-1,-2,-3,-2,8,3,3
176302764174,-3,2,6,1,-4,-9,-8,-10
176302764174,1,2,-3,5,1,-10,2,12
176302772971,1,0,14,-3,3,14,10,6
176302772971,0,-5,-9,-9,-17,-13,-24,-8
176302788454,0,-3,8,1,7,-5,16,3
176302788454,0,3,6,2,4,17,2,-3
176302789946,-1,0,34,9,2,7,13,2
176302789946,-1,-2,-49,-8,2,4,-4,0
176302810510,-1,-4,-6,-3,-5,-4,-13,-7
176302810510,2,-2,2,-3,-3,0,5,2
176302812065,-3,-1,-9,0,-2,0,1,-3
176302812065,-1,-2,18,3,0,-16,-14,-10
176302824180,-3,0,-8,-2,-4,2,8,5
176302824180,1,1,0,2,0,-23,-1,0
176302833080,2,0,-8,-2,-3,8,-2,-5
176302833080,-3,-4,11,5,1,2,1,11
176302847977,-1,4,-14,-2,-1,-10,-3,0
176302847977,-3,-6,1,-3,-1,3,-9,-12
176302849445,2,-1,-5,-1,2,1,2,9
176302849445,-3,3,6,3,6,1,10,-4
176302870502,5,2,1,-3,-5,-3,-9,-9
176302870502,-1,1,1,0,0,-5,-6,8
176302872046,-2,-3,-10,-4,-4,-14,-6,-8
176302872046,2,3,6,2,6,22,7,1
176302884732,-1,1,10,1,-3,9,1,1
176302884732,-1,-1,-4,-1,-2,-4,-2,-9
176302891502,3,-1,-4,0,-2,-2,-1,7
176302891502,-1,-1,17,2,0,-4,-11,-10
176302907865,-2,-1,-8,-1,1,7,11,3
176302907865,2,-5,-8,-4,-5,0,1,1
176302909718,-1,0,-4,2,-2,-5,-11,-4
176302909718,-1,1,7,-2,1,-10,5,-13
176302930385,1,-1,2,-1,0,4,7,17
176302930385,-1,-1,-3,1,5,2,6,4
176302932038,-1,-2,-4,-2,1,-1,-7,-1
176302932038,1,1,6,1,1,4,7,-3
176302944845,3,-1,-4,-1,0,-1,-7,-4
176302944845,-4,1,2,2,-3,-1,-1,2
176302951523,-1,-2,1,0,4,6,9,4
176302951523,3,1,-2,-3,-2,-2,-6,6
176302967866,-2,2,-2,2,1,-2,-1,-2
176302967866,2,-1,4,3,9,6,0,-1
176302969574,2,-4,-4,-4,-11,-9,-2,-6
176302969574,-4,-3,-7,-2,-4,-5,8,18
176302990333,-1,0,3,-1,0,6,-13,-20
176302990333,-2,1,-1,0,-2,3,3,-13
176302992013,0,1,6,2,3,2,-4,7
176302992013,1,-1,-14,-6,-5,-7,8,3
176303004908,-1,-3,6,1,1,1,-3,1
176303004908,-3,-5,-3,-5,-7,-6,-9,2
176303011659,-2,2,-1,-2,-1,1,2,-5
176303011659,2,2,1,2,2,-2,-2,0
176303027873,-2,-1,-1,-1,-1,1,-8,-4
176303027873,-4,-1,0,5,1,7,6,-5
176303029735,2,-3,-9,-5,-5,-9,-5,-2
176303029735,-4,-1,-2,-2,-2,-1,2,0
176303050945,0,1,2,1,2,-1,9,2
176303050945,5,5,1,0,-2,-4,-2,7
176303052436,-4,-3,1,2,1,3,-1,-6
176303052436,2,-1,1,1,0,-2,-7,-4
176303064730,-2,-3,-6,-4,-4,-3,-6,-1
176303064730,-4,0,1,0,1,5,5,6
176303071650,-2,4,-1,2,6,-1,1,1
176303071650,3,0,-4,-3,-5,-1,0,-2
176303087975,-1,-1,2,0,-1,-4,-6,-8
176303087975,-2,2,-1,-2,2,8,0,1
176303089536,0,-1,-5,-3,-3,-8,3,14
176303089536,0,-1,2,2,-1,-1,-9,-7
176303110417,1,0,3,4,4,6,-1,0
176303110417,-1,-2,-2,-3,2,8,-7,0
176303111963,-2,2,1,0,-2,-5,2,-7
176303111963,2,1,0,0,-1,0,2,6
176303124676,0,-3,-3,-1,0,-3,-3,3
176303124676,4,0,-4,-7,-1,-9,1,-3
176303131452,-1,-1,0,-2,-9,7,6,-2
176303131452,-2,1,0,0,-1,-1,-6,-13
176303147819,-2,0,0,-4,-11,-5,4,21
176303147819,1,-3,0,3,5,1,3,-4
176303149461,-1,-2,-2,-4,-4,-5,-6,-5
176303149461,-2,-5,-4,0,0,-3,-1,6
176303170504,0,-4,-2,-2,5,8,1,-15
176303170504,0,0,2,-2,-5,-10,-5,2
176303172040,-3,-2,5,4,5,-7,-2,6
176303172040,-2,0,-6,-2,-1,12,-2,-16
176303183990,-1,-1,2,1,-3,1,5,7
176303183990,-5,0,-4,-7,-10,-12,8,-3
176303193070,1,0,1,4,10,7,-6,8
176303193070,-1,-2,0,-3,6,5,0,8
176303207851,1,0,0,-2,-4,-2,-1,-1
176303207851,-1,1,0,0,-3,-8,-9,-8
176303209623,6,5,6,6,6,18,7,-1
176303209623,-5,-2,-6,-4,-1,-5,-4,-4
176303230360,-2,1,-7,-5,-9,-9,-6,-6
176303230360,1,0,5,4,6,5,1,3
176303231974,-1,-2,0,2,2,-5,-3,-5
176303231974,3,0,0,1,2,4,12,10
176303244125,-2,1,-1,-2,-3,0,2,2
176303244125,-3,-2,-2,1,-1,-2,-4,6
176303252969,4,0,-6,-6,-9,-2,-2,-7
176303252969,0,-1,3,-1,-6,-11,-4,-4
176303267916,0,-2,1,2,5,-3,-13,-6
176303267916,-1,-1,-4,0,-1,0,10,6
176303269458,-5,0,1,0,1,6,14,-2
176303269458,5,0,0,0,-1,4,-3,20
176303290313,-1,0,2,2,1,-2,2,-13
176303290313,1,-1,-1,-1,-3,1,-8,-6
176303291899,0,-1,-2,-2,-5,-10,-1,10
176303291899,-4,2,-1,2,2,4,0,-2
176303304145,2,0,1,1,-4,-5,9,4
176303304145,-1,-6,1,0,-6,5,-5,-2
176303313074,-2,-1,-3,-1,-4,-5,3,-7
176303313074,1,2,1,-2,-2,-3,-2,-2
176303327950,-1,-2,-5,-2,3,5,-8,0
176303327950,-1,0,0,1,6,3,0,-8
176303329442,-3,0,4,-2,-8,-9,0,2
176303329442,0,7,8,6,3,1,-3,-7
176303350308,-4,-6,-26,-10,-3,-2,5,0
176303350308,3,-2,-2,-1,0,0,-3,-5
176303351917,-5,-2,3,2,2,1,-11,-5
176303351917,-2,-1,-6,-3,0,1,10,5
176303364077,-3,-3,2,-3,-4,-6,9,1
176303364077,-1,4,23,2,1,5,-12,8
176303372952,0,-4,-19,0,0,0,0,-10
176303372952,0,-4,0,-3,-5,-1,-3,-1
176303387825,-4,1,3,-2,0,13,-1,-4
176303387825,0,1,1,0,-2,-3,5,5
176303389396,1,3,4,3,2,13,-2,1
176303389396,-1,-3,6,-3,-4,1,6,-4
176303410477,1,2,-8,-2,0,4,-10,0
176303410477,-4,-7,-6,-6,-5,2,-4,-4
176303412018,-2,-5,3,-1,0,-22,-3,-3
176303412018,1,-1,13,4,-1,-1,0,-4
176303424006,11,1,-16,-3,-1,-5,-5,3
176303424006,-8,0,-13,-3,1,1,5,0
176303433006,-4,-1,-9,-4,-4,-4,1,-1
176303433006,0,-3,2,-2,-1,-6,-5,-4
176303447998,1,-2,9,4,1,-4,-14,-12
176303447998,-1,4,-3,-2,1,-3,10,9
176303449466,-2,-1,-5,-4,0,7,-4,2
176303449466,-1,0,1,3,3,0,-2,-3
176303470498,-1,0,-1,0,-5,-10,0,3
176303470498,-1,-1,-3,1,5,-13,-5,-16
176303471945,4,6,8,0,1,38,-2,4
176303471945,0,-2,-8,-2,4,18,5,1
176303484084,-3,-2,7,4,5,1,0,4
176303484084,0,0,3,-3,-12,1,7,-2
176303493019,0,0,-6,-2,-6,-27,-2,0
176303493019,0,-2,-8,-1,0,5,-2,0
176303507869,-2,-2,-4,0,2,0,1,1
176303507869,2,3,10,0,-1,3,-6,-3
176303509469,3,2,6,-1,1,0,7,2
176303509469,-6,1,-8,-2,-3,-8,-1,-1
176303530343,-5,-3,11,2,3,3,1,5
176303530343,-1,-3,-7,-1,-4,-11,-16,-15
176303531927,1,0,-3,-4,-3,6,-3,2
176303531927,-3,1,12,3,2,-5,6,4
176303543970,0,-1,-17,-6,-2,-4,4,-10
176303543970,3,-1,5,2,4,3,8,21
176303552946,-5,-2,1,-1,1,-4,-6,-4
176303552946,3,0,-2,0,-1,1,1,2
176303567927,1,2,3,-4,-4,-2,1,1
176303567927,1,0,-4,1,-2,0,0,0
176303569559,-5,-2,5,0,2,0,5,-1
176303569559,-3,1,-11,-1,0,4,-11,-17
176303589412,-1,-1,0,0,-5,1,5,2
176303589412,4,0,-1,1,4,-1,6,2
176303604145,0,1,3,2,3,1,-12,-12
176303604145,0,-1,1,0,3,-6,2,4
176303620441,0,-2,4,0,-1,0,0,2
176303620441,-2,0,-3,-7,-9,-2,-4,-1
176303621914,-1,-1,-7,2,4,6,7,-4
176303621914,0,-1,-4,0,-1,-9,-6,2
176303627953,2,6,9,0,1,-1,-1,0
176303627953,2,-4,-6,3,2,6,2,1
176303629578,-2,-2,3,-2,-2,-6,3,-4
176303629578,-1,-2,-3,-4,-3,-4,-11,5
176303650425,-1,0,4,-1,-2,1,2,8
176303650425,0,0,10,4,1,1,0,-5
176303652022,1,-3,-7,-2,-3,-6,-6,-11
176303652022,1,-2,-7,-4,-3,-4,1,-2
176303672913,-3,0,3,-1,-4,4,1,2
176303672913,-2,1,-3,-1,-1,-3,-10,-4
176303674423,0,-3,-1,-2,0,6,12,-2
176303674423,-1,2,10,4,4,-5,-2,11
176303687284,-1,1,1,-2,1,-3,1,-6
176303687284,2,-1,-5,0,0,0,5,0
176303694006,6,1,-1,-1,-1,-4,0,6
176303694006,0,-1,-5,-4,-5,0,-8,-11
176303710368,1,5,1,4,7,6,9,17
176303710368,-3,-3,-2,-2,-3,-4,1,-1
176303711933,-2,-4,-1,-4,-8,-3,-6,2
176303711933,-2,-2,-4,-2,-4,-3,2,1
176303732903,0,-3,-1,3,5,11,-9,-4
176303732903,-1,2,1,-1,-6,-11,9,-4
176303734503,2,1,-2,0,2,0,-4,13
176303734503,-2,-1,-1,1,0,-4,0,-5
176303747929,-1,-5,-8,0,-1,2,0,-9
176303747929,-2,-1,-4,-1,2,59,-6,0
176303749433,-4,-2,9,4,5,25,-1,-2
176303749433,-4,0,-11,-2,-4,14,5,-3
176303770316,-1,1,3,1,4,-15,-4,3
176303770316,2,-4,0,1,6,-22,-4,2
176303771950,-1,-3,-4,-7,-16,-31,1,-3
176303771950,-3,1,2,-1,0,2,-4,-2
176303792963,1,-1,-1,-3,-3,-19,2,-5
176303792963,0,-1,-5,1,5,-16,-6,7
176303794495,0,0,-2,-1,-5,-18,-1,-13
176303794495,3,0,3,0,-3,1,-3,3
176303807156,-1,0,-1,3,5,-13,-1,-2
176303807156,-2,-1,-3,-7,-12,-4,0,0
176303814155,-2,2,2,2,-1,-6,0,4
176303814155,3,6,10,4,2,-2,1,0
176303830439,-9,-12,-16,-8,1,2,-5,-14
176303830439,1,1,-1,1,-2,1,-8,-4
176303831921,0,1,0,6,14,11,3,9
176303831921,-8,-7,-6,-16,-35,-32,2,-8
176303860438,3,3,11,4,1,8,-4,5
176303860438,-5,-2,-4,0,2,-1,5,-3
176303862094,2,1,-3,-5,3,4,-7,-1
176303862094,4,-3,-5,-1,8,7,8,-4
176303867231,0,-2,-4,-2,-4,9,-1,0
176303867231,-2,0,2,0,2,-14,-4,-2
176303873946,1,2,2,1,-3,15,0,-1
176303873946,-2,1,4,3,4,-3,-2,9
176303897956,2,-1,-1,0,-4,-4,-1,-5
176303897956,2,0,-1,1,4,4,0,-1
176303899473,-5,-2,-3,-1,2,-5,-3,-1
176303899473,0,0,-2,-1,-1,1,0,5
176303912954,-1,1,2,0,-1,2,1,-4
176303912954,-2,-1,1,2,5,7,-1,1
176303914476,-2,-1,-2,-2,-6,-11,9,-1
176303914476,-1,-3,-1,0,1,3,-13,-9
176303927313,0,2,2,-2,-4,8,1,1
176303927313,1,-1,-2,0,4,0,4,-4
176303933985,-3,-3,-1,1,-8,-7,-9,-1
176303933985,0,-4,-5,-2,0,-3,4,3
176303950388,1,2,3,0,4,3,-7,-9
176303950388,0,-1,3,-3,-5,-4,3,3
176303951939,1,5,-4,-2,1,7,2,-1
176303951939,-2,-6,-4,1,3,1,-2,-6
176303972860,-2,-2,1,-1,-4,-1,-4,11
176303972860,0,0,2,2,0,3,1,-3
176303974483,0,0,1,1,2,0,1,-4
176303974483,4,1,0,0,3,2,1,8
176303987305,-1,0,-1,1,-3,-3,2,0
176303987305,-2,-2,-6,-3,-5,-11,3,4
176303993994,-1,-2,24,5,5,4,-6,-1
176303993994,1,-1,-42,-7,-3,1,-9,-1
176304010314,-1,0,7,1,-2,-15,9,-3
176304010314,-2,1,-10,-4,-10,-15,-9,-1
176304012059,1,-7,-3,-1,7,43,13,2
176304012059,-2,0,7,-2,-13,-15,-21,-9
176304032847,4,8,9,-2,7,-57,-1,2
176304032847,0,-7,-6,3,11,11,12,0
176304034406,-4,6,6,1,-5,-15,-1,0
176304034406,-2,2,11,6,-1,17,8,3
176304047261,-1,-4,-14,-7,-3,9,-4,0
176304047261,3,3,13,-3,-10,-25,-12,-5
176304054001,0,-5,-21,-1,-3,-6,-4,4
176304054001,-1,6,19,-3,3,2,0,4
176304070350,-2,-1,12,6,-1,3,4,-5
176304070350,3,-5,-21,-2,3,8,-2,6
176304071926,1,-1,3,-5,-3,-6,4,1
176304071926,1,-2,3,0,4,21,8,-4
176304092962,2,1,-1,2,-6,-5,-1,-1
176304092962,-3,-1,-2,0,3,28,1,-2
176304094376,1,1,0,0,5,-7,5,12
176304094376,-1,-1,-2,-2,-1,-24,-6,-2
176304106642,-1,-3,9,3,1,8,2,10
176304106642,-3,2,3,-1,-11,2,0,-12
176304115406,-1,-3,-16,-7,0,-8,-5,-9
176304115406,1,-4,2,-1,-7,-17,4,2
176304137813,0,-1,-7,-4,-6,10,-4,4
176304137813,-1,-3,0,0,2,-3,-4,-8
176304139484,-1,0,-1,1,3,-1,-1,6
176304139484,-1,-2,1,2,5,10,5,-3
176304160464,-2,1,-5,-5,-7,-1,-7,-11
176304160464,-3,-1,3,-1,0,-4,10,2
176304162048,4,1,-2,0,-2,2,-4,-1
176304162048,1,-1,2,1,5,-2,7,8
176304166457,-3,-2,-5,1,-1,-5,2,5
176304166457,1,1,3,0,2,11,4,5
176304175432,-2,-3,1,-2,-3,-6,-12,-7
176304175432,-2,-1,14,6,2,-1,4,3
176304190276,-5,-3,-17,-3,2,9,-1,2
176304190276,0,2,10,-3,-5,-6,-18,-13
176304192180,-1,-3,-4,-2,-2,-4,24,16
176304192180,1,2,5,2,2,-16,-14,-10
176304213088,5,-1,5,2,5,28,11,4
176304213088,1,-1,-6,0,0,-10,4,4
176304214603,0,0,0,0,-3,-3,-7,-8
176304214603,-3,0,-6,0,3,1,-1,-5
176304226418,-2,-6,-6,-4,-3,-1,-1,-5
176304226418,-1,2,-2,0,0,-8,-3,4
176304252406,3,0,2,-1,-2,-4,1,3
176304252406,0,4,-4,-2,3,14,6,6
176304253259,-2,-3,0,0,-5,-9,-11,-5
176304253259,-3,-1,-3,1,-1,4,5,5
176304256399,-1,2,15,-2,-3,-9,0,-2
176304256399,0,-1,-20,-2,-2,-4,5,-5
176304272975,-1,2,5,-1,0,4,3,1
176304272975,-1,1,-1,1,1,-2,0,2
176304274403,-1,0,-5,2,-1,2,-12,-9
176304274403,1,-1,2,-2,-3,-2,13,10
176304295408,1,0,8,1,3,8,1,-1
176304295408,-2,-3,-12,-2,3,2,4,0
176304296883,-4,-2,-1,-1,2,4,-7,-4
176304296883,-1,-2,-1,-5,-8,-4,-6,-6
176304310674,-2,-4,-4,2,-2,-5,2,5
176304310674,-1,2,6,1,1,-4,-1,-3
176304316568,-2,1,-5,-2,-2,2,5,8
176304316568,1,-2,0,-2,1,2,-1,6
176304332750,0,-2,-3,1,1,-3,-1,1
176304332750,2,2,10,2,0,-1,0,-9
176304334453,-2,-12,-15,-3,-2,-4,-3,-12
176304334453,0,0,-2,0,1,-2,-9,7
176304346432,0,2,-1,0,1,5,-2,-2
176304346432,-3,-2,4,-4,-2,9,0,3
176304355477,-1,-3,-7,0,-1,-4,0,3
176304355477,-2,-3,1,-6,-6,-1,3,-12
176304370407,-1,-2,-8,-3,-3,-2,-5,-7
176304370407,0,1,-2,4,3,-7,6,6
176304371905,-1,0,-1,0,0,5,2,-6
176304371905,-1,-3,-3,0,2,2,2,5
176304392765,0,3,4,-1,-6,-2,-8,-1
176304392765,-1,-1,-4,-4,-10,-8,3,2
176304394660,0,1,1,3,1,1,-2,-3
176304394660,-2,-1,5,1,0,-2,-5,-2
176304414939,-1,-5,-8,-4,-5,-7,-1,-3
176304414939,-1,0,1,2,2,8,1,0
176304422871,3,2,2,-1,0,-2,5,14
176304422871,0,6,4,3,2,-1,-8,-5
176304430238,-2,-4,-9,-4,-1,-5,7,2
176304430238,-2,-2,1,-3,-2,0,-3,1
176304431868,-1,0,-6,-1,-1,-1,-6,-6
176304431868,1,0,9,1,1,5,12,8
176304452444,0,1,-1,2,-1,-1,-4,-2
176304452444,1,0,-1,-1,-1,1,3,6
176304458834,0,0,6,2,-2,-3,-6,-6
176304458834,1,-3,-7,-2,2,-1,-3,-6
176304475305,-1,1,2,-2,-3,-3,-4,-7
176304475305,-1,-3,-3,-1,1,2,-6,-3
176304477035,-2,1,2,-1,0,0,4,6
176304477035,1,-1,-2,0,-1,1,6,1
176304490339,-2,0,-1,1,2,4,8,5
176304490339,1,2,5,0,0,-5,-6,-3
176304491875,-1,-1,-8,-4,-3,-8,-1,4
176304491875,-3,-1,-5,0,-1,4,-6,-14
176304513001,0,0,3,1,2,3,4,-1
176304513001,1,0,-3,0,-1,-3,-8,0
176304514398,0,-1,9,-2,-2,-1,1,0
176304514398,-2,0,-2,0,-1,-2,-1,4
176304526583,0,-2,3,-1,0,0,-12,-4
176304526583,0,4,-6,-2,-1,-1,10,0
176304535322,-1,-3,-2,-1,0,0,0,-1
176304535322,1,0,0,-1,-2,-2,-1,-1
176304549779,1,1,1,-1,-1,0,0,3
176304549779,1,-2,-1,-3,0,-1,-2,-1
176304556395,-1,-1,0,-1,-1,1,3,5
176304556395,-2,-2,-1,0,-2,0,-1,-3
176304573034,-2,-1,-2,-1,-1,1,-1,-1
176304573034,1,-2,0,-1,-2,-1,1,1
176304574362,-2,1,-2,-1,0,0,-4,-7
176304574362,-1,-3,-2,-1,-3,-2,-2,0
176304595364,1,1,0,1,-1,-1,-1,7
176304595364,-2,-2,2,-1,-1,1,-4,-6
176304596917,-1,-1,-2,-1,0,-1,3,1
176304596917,0,0,1,-2,0,2,1,1
176304609633,0,0,-2,-2,-2,0,0,1
176304609633,-3,-3,-2,0,-1,-3,-7,-7
176304616523,0,1,-1,1,1,0,-4,-3
176304616523,0,0,0,-1,1,1,7,-2
176304632917,-1,1,1,1,-2,-3,-1,-5
176304632917,-1,-2,-5,-1,0,3,-1,0
176304634442,0,-3,1,0,0,-2,-5,-4
176304634442,0,1,-1,-1,0,0,-5,-5
176304655511,-1,-1,1,-1,2,-2,4,-2
176304655511,0,-2,0,1,-2,0,4,-11
176304656895,0,2,0,-2,-2,1,3,-1
176304656895,0,-1,-1,-1,0,-4,0,6
176304668913,-2,0,-2,-1,0,-1,-2,-3
176304668913,0,-1,2,-2,0,2,-2,4
176304677870,0,-1,1,0,1,1,0,-6
176304677870,-3,-2,-2,-1,-1,3,0,-2
176304692761,-2,-1,-1,-3,-10,-9,-2,6
176304692761,1,0,-1,-3,-3,4,-1,-4
176304694343,1,0,1,0,3,0,-8,3
176304694343,-1,0,2,2,8,0,-4,-1
176304715225,3,-2,-6,-4,-10,-1,9,7
176304715225,0,1,-1,-2,-2,-8,3,6
176304716996,-5,-4,-4,1,-2,0,-7,-8
176304716996,2,0,2,2,1,3,2,3
176304729548,-1,-3,0,0,6,5,-4,-5
176304729548,-2,0,1,2,4,1,0,5
176304737932,0,0,-1,-1,-4,-3,2,0
176304737932,0,-2,-3,-1,-3,-2,0,1
176304752816,1,1,2,0,4,1,-1,1
176304752816,-2,-2,0,0,-1,-3,-1,2
176304754369,-1,2,0,0,6,4,0,-1
176304754369,-1,-1,-1,0,-9,-9,1,-2
176304775263,1,-1,-3,-3,-3,-5,-2,-5
176304775263,-2,-1,-3,-2,-2,0,-2,-3
176304776925,0,0,2,1,2,2,2,1
176304776925,1,-1,-4,-7,-6,0,-2,-2
176304789081,-2,2,-1,0,-2,-1,-1,-1
176304789081,0,-3,-1,0,-2,-2,-8,1
176304803904,1,1,-2,-2,-4,-1,10,0
176304803904,1,0,1,0,1,2,0,-1
176304812877,-1,0,2,2,7,-7,-2,1
176304812877,0,-1,-2,-3,-3,10,0,0
176304814406,-1,0,-1,-1,-3,-8,-4,1
176304814406,-1,-1,0,3,5,4,-1,4
176304835393,-1,0,-1,0,3,5,1,-1
176304835393,0,2,0,2,0,-1,-1,0
176304837049,0,-1,0,4,8,5,0,0
176304837049,-6,-1,0,-5,-8,-7,-2,-9
176304849144,1,-2,-1,-6,-6,-6,-5,7
176304849144,-2,0,0,-1,-5,-1,-1,-3
176304858161,0,-1,-3,-2,2,5,-1,-1
176304858161,0,3,0,4,7,-1,-3,-1
176304872959,-2,-2,1,3,2,5,0,-6
176304872959,-1,-4,-2,-2,-3,-4,0,1
176304874387,0,-1,-3,-3,-7,-3,-3,-2
176304874387,0,0,0,1,2,1,0,-1
176304895210,1,-1,-1,-2,-4,1,3,3
176304895210,0,2,0,-2,-2,-4,0,-1
176304896941,-1,-3,-1,0,-1,-2,-2,-4
176304896941,1,0,1,1,3,0,0,4
176304908888,-2,-1,-1,-1,-2,0,2,-3
176304908888,-2,0,0,-1,-5,-8,-6,-1
176304917891,3,-3,-3,-4,-8,1,-2,-3
176304917891,-3,-2,-2,-4,-2,3,2,1
176304932777,-1,-1,2,9,-3,-3,-3,-4
176304932777,0,0,1,6,1,3,1,2
176304934375,0,1,-2,-14,5,-18,2,3
176304934375,-2,-1,-1,-3,-16,0,0,-1
176304955200,-1,0,0,0,5,3,0,-1
176304955200,-1,0,2,7,6,1,3,-3
176304957056,-2,0,0,1,1,3,0,5
176304957056,1,-1,1,3,5,-1,-2,-1
176304969087,-2,0,-4,-12,-9,-1,-2,-2
176304969087,0,-2,-4,-9,-8,-8,-1,-1
176304977958,1,2,4,40,-8,3,3,2
176304977958,0,-1,-4,-32,10,-2,-1,1
176304992659,0,-3,-4,-1,-5,0,-1,-1
176304992659,-1,-1,1,-2,2,-1,-1,0
176304994260,-1,-2,-1,-2,0,3,-1,-3
176304994260,0,1,1,18,5,3,1,3
176305015414,-2,-1,2,3,0,-7,1,-1
176305015414,0,-2,-1,12,7,5,3,1
176305016875,-1,-1,0,-17,-3,1,-3,0
176305016875,1,-1,-3,-5,-9,-15,-2,-2
176305029103,0,-2,-2,-6,6,9,1,-2
176305029103,1,1,-1,3,-3,1,-3,1
176305037930,-2,-1,1,-1,-5,0,0,-2
176305037930,-2,-3,-3,2,0,0,-3,-4
176305052836,-2,1,1,2,1,-1,-6,-5
176305052836,2,0,1,1,-1,-7,2,4
176305054382,1,3,-1,1,12,11,2,2
176305054382,-1,2,-1,1,-15,-2,0,-2
176305075413,-1,0,0,-9,-4,-4,-1,0
176305075413,-2,-1,-3,-3,1,1,0,-1
176305076865,-4,0,-3,-8,-4,-12,-3,-1
176305076865,0,-2,-1,7,0,-1,1,0
176305088825,2,-1,1,7,7,4,0,0
176305088825,1,2,1,-6,-4,0,2,-1
176305097863,0,-1,-1,-3,-4,-1,2,-1
176305097863,0,-1,1,10,5,1,0,0
176305112676,-1,0,-1,-4,0,-10,-4,-2
176305112676,0,-2,-1,-6,-1,-3,-2,-2
176305114421,-2,-2,-2,1,0,1,-5,-4
176305114421,0,1,2,0,-2,1,1,1
176305135237,-1,1,0,1,6,0,-1,0
176305135237,-2,-1,0,3,3,4,-1,-2
176305136900,-1,-2,0,-2,-3,5,2,-1
176305136900,-4,-3,-4,-5,-12,-28,-11,-10
176305149006,5,0,-1,0,-2,19,11,14
176305149006,1,-1,1,3,1,-12,-3,-1
176305157896,1,-2,-2,-1,-3,7,5,6
176305157896,1,-1,-3,-3,3,7,2,0
176305172811,-2,0,0,3,0,-7,-2,-3
176305172811,-3,-2,-2,-1,-1,-2,-4,-3
176305174331,-2,-2,-1,-2,-5,-4,-2,-2
176305174331,0,1,1,2,5,0,2,6
176305195384,-1,-1,-1,3,4,1,-2,-2
176305195384,-1,-2,-1,-4,-9,-5,1,-2
176305196811,-1,0,-1,-3,-1,-5,-3,-1
176305196811,0,0,0,-1,-2,2,2,-1
176305209081,2,-1,1,3,4,-1,-1,6
176305209081,0,-3,-3,-4,2,8,0,3
176305225395,-1,1,1,2,3,-3,6,-10
176305225395,2,-1,0,-1,3,8,2,9
176305232250,0,-1,-2,-1,-3,-5,3,-3
176305232250,-1,-2,-1,0,3,-6,1,-1
176305238832,-1,-2,-3,-3,-6,-6,-5,-2
176305238832,-1,0,1,3,9,20,3,-3
176305262767,-3,-1,-1,-1,-10,-8,-8,-9
176305262767,-1,0,1,0,-1,-1,2,-3
176305264347,1,0,-2,-1,4,-5,-4,13
176305264347,-1,-2,1,0,3,-3,-1,-5
176305269058,-2,-1,-2,-1,-4,2,-5,-2
176305269058,0,-2,-1,-2,0,0,3,2
176305284481,1,0,0,1,0,2,4,0
176305284481,-2,0,-2,0,-4,-9,-5,-2
176305293285,-1,-1,-2,-4,-3,-4,-11,-1
176305293285,-3,1,0,0,1,4,-6,-7
176305298801,0,-1,1,3,6,2,6,-9
176305298801,0,0,-2,2,-4,4,-2,4
176305315381,-2,0,-1,-7,-4,-2,4,-6
176305315381,1,1,0,2,0,-5,-17,-2
176305316845,-1,0,0,-1,-1,3,-4,-4
176305316845,-4,-4,-4,1,-6,-6,6,-4
176305337651,2,0,0,3,0,0,1,2
176305337651,-2,-2,-1,-2,0,-4,-16,-3
176305339266,-1,-1,0,0,1,3,15,-4
176305339266,0,-1,0,-1,-1,-4,-5,-4
176305352034,-1,-1,0,5,-5,-6,6,-2
176305352034,-1,0,-3,-3,1,7,15,3
176305358822,-2,-2,-4,-12,-5,-9,-10,-1
176305358822,1,-1,0,2,4,9,-2,7
176305375418,0,1,2,5,0,4,2,1
176305375418,-1,-2,-3,0,-3,-12,-15,-6
176305377072,0,0,1,0,3,8,16,15
176305377072,0,-2,-2,-1,-8,-2,24,-3
176305388877,-1,-3,-2,-6,-1,-6,-8,-1
176305388877,0,2,0,3,-3,-4,-11,-2
176305397858,-2,1,-2,-3,-4,6,13,0
176305397858,2,0,2,0,5,4,3,3
176305412213,0,1,0,3,3,0,6,-1
176305412213,-1,-1,-1,-3,-2,-1,8,-3
176305418825,-1,-1,-2,-1,-4,0,-12,-3
176305418825,-1,-2,-1,0,-2,-12,-4,0
176305435194,-2,0,0,-1,4,9,13,-2
176305435194,3,0,0,-3,2,5,0,5
176305436817,0,-2,-2,0,-4,-10,-18,-3
176305436817,-1,-1,-1,-2,-2,0,0,-3
176305457858,-1,0,-2,-1,1,1,-4,2
176305457858,-1,-1,0,1,-4,3,5,3
176305459332,-2,-1,-2,1,-2,-7,-5,-3
176305459332,0,2,-1,0,0,-5,-16,-4
176305472073,-1,0,0,2,5,0,3,0
176305472073,-2,-2,-4,-5,-1,4,6,2
176305479002,1,-1,0,1,-1,-1,5,-1
176305479002,-2,-1,-2,-6,-4,-6,-10,-1
176305502789,0,0,0,0,-1,2,2,-1
176305502789,0,1,0,0,1,2,7,0
176305504437,0,-2,0,-1,1,-6,-14,-1
176305504437,0,1,-1,-1,0,2,4,-2
176305516819,0,-3,-1,-1,-1,0,-8,0
176305516819,0,-2,0,0,0,-3,2,0
176305525374,-2,0,0,3,0,10,2,1
176305525374,0,-1,0,0,0,-4,-5,1
176305532093,-1,-2,-3,-2,-1,0,-1,-1
176305532093,-2,-1,0,-1,-3,0,0,-2
176305538816,0,1,0,1,-2,-1,8,2
176305538816,-1,0,1,0,2,2,-5,-1
176305562839,1,0,-1,0,-1,-1,-5,0
176305562839,1,-3,-1,-1,-2,-2,-3,-2
176305564372,-1,-1,0,3,1,0,-4,-2
176305564372,0,0,-1,-3,-1,2,6,1
176305577829,-2,-2,-2,-2,-4,-5,-3,-1
176305577829,0,1,1,0,1,5,8,1
176305579324,-1,0,-2,-1,-1,-6,-11,-3
176305579324,-1,-1,-1,-1,-3,-3,3,0
176305592198,0,-1,-1,-1,-2,3,-10,-1
176305592198,-1,-2,-2,-1,-1,-5,1,-1
176305598931,-1,0,-1,-4,-2,2,-3,-4
176305598931,-2,-1,-1,-3,-2,-5,-4,0
176305615274,0,1,1,0,1,10,25,-1
176305615274,-1,-1,-2,-1,-4,-10,-21,-3
176305616859,0,-1,-1,-1,1,-5,-11,-1
176305616859,-1,1,-1,-2,-1,3,3,-1
176305637813,-2,-1,-2,-3,-3,-2,-8,-3
176305637813,0,1,1,0,0,-3,7,2
176305639326,-2,-1,-2,0,-1,-3,-4,-5
176305639326,-1,-3,-3,-1,-3,4,7,-2
176305651428,-1,0,0,-1,0,-3,2,6
176305651428,1,0,0,1,2,2,0,-1
176305660440,0,1,1,1,2,3,-3,-3
176305660440,-2,1,0,0,-2,-5,-1,3
176305675353,0,-1,-2,0,0,-1,2,-1
176305675353,0,1,1,1,-1,-2,-10,0
176305676827,0,-2,-1,-1,-4,-8,2,4
176305676827,-1,-1,0,-1,3,8,6,-2
176305697875,-1,-1,-1,0,0,-5,-5,-1
176305697875,-1,-1,-2,-1,-1,6,6,1
176305699334,0,-1,0,-2,2,4,9,-1
176305699334,-1,0,1,0,-4,-10,-17,3
176305711456,-2,0,-2,0,0,-1,-6,-5
176305711456,-2,-1,-1,0,-1,3,15,2
176305720475,0,0,1,0,-1,0,-6,-2
176305720475,-2,-2,-1,0,-2,-6,-7,-5
176305735195,1,0,0,-1,-3,-4,-6,0
176305735195,-2,-1,0,-1,-1,-1,2,-1
176305736977,0,-2,-1,-1,-5,-3,-6,-1
176305736977,1,0,-2,-1,1,7,21,4
176305757791,-2,-1,0,-2,0,2,3,-4
176305757791,-2,0,0,-1,-2,-7,-10,-4
176305759378,-1,-1,0,-1,0,-5,3,5
176305759378,-1,-1,-1,0,-3,-2,-9,-2
176305771353,1,1,0,1,0,2,0,2
176305771353,1,-1,-2,1,1,3,1,2
176305780370,0,0,0,-1,4,3,12,-1
176305780370,0,0,1,0,-2,-2,-5,-1
176305795364,-1,0,-2,-1,0,-2,1,1
176305795364,0,-2,0,-2,-2,1,-8,-1
176305796838,0,0,-1,-1,-3,-5,0,-2
176305796838,1,0,-1,-1,-1,1,6,3
176305818149,-1,-1,1,0,-1,-3,-7,-2
176305818149,0,0,-1,1,1,3,7,3
176305819867,-1,-1,-3,0,-1,1,-2,-1
176305819867,-1,-3,0,1,5,7,3,-4
176305840383,0,-1,0,-1,-8,-15,-5,1
176305840383,1,1,-1,-2,1,3,-3,-2
176305841841,-1,0,0,1,-1,0,4,1
176305841841,-1,-2,-1,0,1,-3,-11,-2
176305854478,1,1,-2,3,2,3,-1,0
176305854478,-1,0,-2,0,0,-6,-3,-1
176305862834,-1,-1,-1,0,-1,2,5,-1
176305862834,-1,0,-1,-2,-1,-1,2,0
176305877678,-1,-3,-3,-2,0,2,-8,-1
176305877678,-2,-1,1,-2,-2,1,2,-4
176305879275,1,0,0,0,2,4,-4,6
176305879275,-1,-1,0,-2,-1,-7,-3,0
176305891304,1,0,-1,-3,-3,4,7,4
176305891304,-2,-1,0,0,-1,1,3,0
176305900320,-2,-1,-1,0,-3,-2,-3,-5
176305900320,0,0,-2,1,2,-4,-3,-1
176305915369,-1,-1,1,0,-1,-1,3,-3
176305915369,0,0,0,0,-1,1,-1,2
176305916836,0,-1,-1,0,-1,0,1,1
176305916836,-1,0,0,1,-1,0,1,-1
176305937705,-2,0,-1,-1,-3,-3,-1,-4
176305937705,0,-1,-2,0,-1,-1,-5,0
176305939624,-1,0,-1,0,1,-3,-1,-3
176305939624,-1,0,-1,0,1,2,-5,-1
176305951486,-1,-1,0,-3,1,2,3,1
176305951486,-1,0,-3,0,0,-3,6,3
176305960510,0,0,0,-1,-1,-2,-5,-1
176305960510,-2,0,0,-2,-2,-1,-1,-1
176305975364,1,-1,1,1,-2,-4,-5,1
176305975364,-1,-1,-1,0,-1,-2,-1,-1
176305976793,0,0,0,0,0,5,5,3
176305976793,1,1,-1,-1,-2,-2,-5,-1
176305997846,-3,-4,-1,-1,0,-1,-1,-5
176305997846,-2,-1,-2,-2,-2,1,-2,-2
176305999313,-2,0,-1,-2,-3,-3,-1,0
176305999313,-1,-1,-1,-1,0,1,6,-3
176306011528,0,2,0,1,1,-2,-9,0
176306011528,1,-1,0,0,1,5,4,-1
176306020286,1,-1,0,-1,1,0,-1,2
176306020286,-2,-1,0,-1,-5,-2,-3,-2
176306035217,0,1,-1,0,0,-1,4,-2
176306035217,0,-1,-2,-2,1,-1,1,1
176306036895,-2,0,0,0,0,-3,-4,-3
176306036895,-2,-1,-2,-1,0,-2,-10,-7
176306057668,0,0,-1,1,-2,1,8,1
176306057668,1,2,0,-1,3,3,1,5
176306059326,1,0,0,-1,-3,-6,-4,0
176306059326,-1,-1,0,0,2,-1,-5,-3
176306071346,-2,-2,-1,-2,-2,1,3,2
176306071346,-1,-2,-1,0,1,2,-1,-2
176306080288,0,-2,1,-2,1,2,1,1
176306080288,1,0,0,-2,1,5,3,5
176306095364,-1,-1,-1,0,2,1,-4,-5
176306095364,1,-1,0,-1,-2,-2,2,2
176306096957,-1,-1,-1,-1,-3,-2,-2,-2
176306096957,0,-1,-1,1,-2,-1,7,0
176306118947,1,0,-1,-3,2,1,0,1
176306118947,-1,1,0,0,-4,-4,-7,-3
176306120601,1,1,1,0,0,1,1,1
176306120601,2,-1,-1,-1,-2,-2,2,-1
176306131481,-1,0,0,0,1,-2,-4,-1
176306131481,1,-2,-1,1,-2,0,7,-2
176306140307,-1,-2,-3,-1,0,-3,-2,-2
176306140307,-1,1,-2,-1,-1,0,-2,2
176306155194,-2,-3,0,-1,-1,-3,-2,-1
176306155194,-2,-1,0,-2,-1,-2,-2,-2
176306156796,-2,-1,-1,0,-1,-1,-3,-3
176306156796,-1,0,0,0,-2,0,-1,-1
176306177879,0,-1,-1,0,-1,1,-2,2
176306177879,-1,-1,-1,-2,-1,-2,-2,-4
176306179304,1,-1,0,2,-1,1,5,9
176306179304,0,-1,-2,0,-2,-2,-4,-1
176306191310,0,-1,0,-1,-2,-5,-4,-2
176306191310,-2,-1,-1,0,3,2,-1,-2
176306200429,-1,-1,-1,0,-1,1,-2,-4
176306200429,-1,-2,0,0,2,2,1,0
176306214685,-2,0,0,1,0,3,2,-2
176306214685,1,-1,-1,-2,-8,-7,-5,3
176306221373,0,0,-2,0,-1,-3,-2,0
176306221373,0,-1,0,1,2,-1,4,3
176306237685,-1,2,0,2,5,2,-1,-3
176306237685,2,2,2,2,3,2,0,0
176306239292,0,2,0,1,3,3,-1,-4
176306239292,2,0,-1,-2,-1,-1,0,2
176306251329,-2,-1,-1,0,1,0,-2,-2
176306251329,0,0,1,1,2,6,7,4
176306260332,-2,-2,1,-1,0,-2,-6,-1
176306260332,-2,0,0,-1,-2,-1,-3,-1
176306274513,-1,-1,1,-2,-3,-3,0,0
176306274513,-3,0,0,-1,-1,-1,0,-6
176306281367,2,-2,1,0,-1,0,1,4
176306281367,0,0,0,0,0,1,-2,-3
176306297819,1,1,-1,1,-1,3,3,1
176306297819,0,1,-1,-1,-2,-3,-3,1
176306299286,1,-2,-2,-2,-1,3,2,0
176306299286,0,0,-1,2,-1,1,2,-1
176306311490,0,-1,-1,-1,-1,4,2,1
176306311490,0,0,-2,0,1,-2,-2,-3
176306320381,-4,1,0,-2,-2,0,-3,-4
176306320381,0,1,0,-1,4,2,4,4
176306334617,-1,0,-1,-1,-3,-4,-2,-2
176306334617,0,0,1,1,5,-1,2,-1
176306341335,0,-1,-2,-3,-5,-1,0,-1
176306341335,-2,-3,-3,-3,-2,-1,-7,-5
176306357842,0,1,-3,0,-3,-5,-2,1
176306357842,-1,-2,-2,-1,0,-1,-2,-1
176306359274,-1,-2,-1,0,1,-5,-2,-1
176306359274,-1,0,-2,0,-1,-2,0,-1
176306371753,0,-1,-1,-2,1,-2,-2,-3
176306371753,0,0,-3,-1,-3,-2,1,3
176306380345,-1,1,-2,1,3,-2,0,-1
176306380345,0,-2,0,-1,-5,-2,0,-2
176306394622,-1,-1,0,1,0,-3,2,3
176306394622,-1,-1,0,-1,0,-1,0,0
176306401365,-1,0,0,-3,1,2,0,-1
176306401365,0,1,-2,-1,0,-1,-2,0
176306417764,0,-2,0,-1,0,-4,-1,-3
176306417764,-2,-1,-1,-1,-1,1,-1,-2
176306419974,-2,0,0,0,0,-2,-2,-3
176306419974,0,0,0,-1,-3,-4,-3,1
176306440313,-2,0,0,-1,1,2,3,2
176306440313,0,-1,1,-1,-2,-1,-2,-1
176306441782,0,0,0,1,0,-1,1,-1
176306441782,-2,-1,0,-1,-1,-1,0,0
176306454676,1,0,-1,-1,-2,0,-1,-1
176306454676,1,-1,1,1,0,-1,-1,2
176306461412,-1,0,-1,-1,1,0,-2,-1
176306461412,-1,-1,1,0,1,3,2,1
176306477741,0,-1,-1,-1,-2,1,-1,-1
176306477741,-1,-1,0,-2,-5,-3,-1,-3
176306479274,-1,-1,0,0,-5,-1,1,1
176306479274,-2,-2,0,1,1,2,0,0
176306500183,0,-2,0,1,3,4,3,1
176306500183,0,0,0,-1,0,2,-3,-3
176306501810,1,0,-1,1,-1,-3,-2,0
176306501810,-2,-2,-1,-1,0,-1,-2,-3
176306514695,-2,-1,0,1,2,1,-1,1
176306514695,-2,-1,-2,-1,-1,0,0,-3
176306521301,0,-2,-2,-2,-4,0,2,2
176306521301,1,-1,-1,0,-1,0,-1,-1
176306537654,-1,-2,0,0,-2,-2,-1,-1
176306537654,-1,1,-1,-1,4,2,-1,-1
176306539228,-1,0,1,0,0,2,-2,-4
176306539228,-1,1,-1,-1,-1,-3,0,-1
176306560118,-2,-1,0,0,2,-2,0,0
176306560118,-1,-1,-1,-1,-3,3,2,-4
176306561780,-2,0,0,-1,1,-3,-1,-1
176306561780,-2,-2,-1,-2,-3,-2,0,-2
176306573978,0,1,-2,-2,-1,1,-2,0
176306573978,-1,-2,-1,-1,0,-1,-1,0
176306582808,-2,0,-1,0,-2,-2,-2,-4
176306582808,-1,0,0,1,0,-1,-1,0
176306597831,0,-1,-2,-1,-1,0,0,2
176306597831,0,-1,0,-1,-2,-3,0,-1
176306599325,0,0,-2,0,0,1,0,3
176306599325,2,0,0,-1,0,2,3,2
176306620099,0,0,1,-1,-4,-1,0,-1
176306620099,0,1,0,0,2,0,-3,2
176306621758,-1,0,0,-1,0,0,-1,2
176306621758,-1,0,-1,0,0,-1,-1,-3
176306633932,0,1,-2,-1,0,0,1,0
176306633932,-1,-1,0,-1,1,-1,0,-1
176306650345,0,-1,0,-1,0,1,0,0
176306650345,-1,0,0,-3,-2,-4,0,-2
176306657858,0,0,-1,-2,1,-2,-4,-2
176306657858,-1,-1,0,-1,-3,-4,0,2
176306659300,-2,0,-3,0,0,2,1,-1
176306659300,0,-2,-2,0,-1,2,-1,-2
176306680228,0,0,0,-2,0,-3,0,-1
176306680228,0,-1,0,-2,-2,1,0,0
176306681804,1,-1,0,-1,-1,2,2,3
176306681804,1,0,1,-1,-1,-2,0,0
176306693827,0,-1,0,0,0,1,-2,-1
176306693827,-2,-1,-1,1,1,0,0,0
176306703069,0,-3,-1,-1,-2,-1,0,-2
176306703069,-1,-2,-1,1,0,-1,-1,-2
176306717724,-1,-1,0,-1,-3,-1,1,2
176306717724,0,0,-1,-2,-2,0,2,2
176306719249,-1,-1,1,-1,-1,-2,1,-2
176306719249,0,0,0,0,0,-3,-8,-1
176306740189,0,0,0,0,-2,3,2,0
176306740189,-1,-2,-1,-1,-1,3,-1,-2
176306741823,-1,2,0,-1,0,-1,-1,-1
176306741823,0,-1,0,-2,-4,0,1,1
176306753827,-1,0,-1,-1,1,2,0,1
176306753827,-1,-2,-1,-1,-3,-5,-4,-2
176306762766,-1,-1,-3,-1,2,-1,-2,-3
176306762766,1,1,0,0,1,-1,-1,0
176306777781,-1,0,0,-3,0,-2,0,-1
176306777781,0,-1,0,-1,1,-3,-2,-2
176306779265,-1,-2,-1,0,0,-2,-1,-1
176306779265,-2,1,0,-2,-6,-2,3,3
176306800169,-1,-1,-1,-1,-1,3,-1,-3
176306800169,-1,0,-2,1,1,-1,-1,2
176306801832,0,-1,0,1,0,-1,-3,-4
176306801832,-1,-2,0,0,3,3,3,1
176306813975,-1,-1,-1,0,0,-1,0,-2
176306813975,1,0,1,-3,-2,-2,-1,-2
176306822839,0,-1,-2,0,0,1,-2,0
176306822839,0,0,1,0,2,-1,-1,-4
176306837812,0,1,0,0,-1,0,4,1
176306837812,0,0,-2,0,-1,-1,-5,-3
176306839270,-1,-1,-2,-1,-1,0,0,-1
176306839270,-3,-1,-3,0,-2,-1,-1,-1
176306860232,-2,-1,0,1,-1,-1,-1,-1
176306860232,-1,-1,0,0,-1,0,2,4
176306861789,-1,1,0,-1,-4,-5,2,4
176306861789,0,-1,-1,-1,1,4,-1,-3
176306873818,0,-1,-1,-1,0,-1,-1,-1
176306873818,-1,0,-1,-1,-1,0,0,-1
176306890378,-1,0,1,0,0,0,2,0
176306890378,0,0,-1,0,0,-1,-1,3
176306897688,-1,-2,-2,-1,-2,0,1,-1
176306897688,1,-1,-2,0,-2,-4,-1,-3
176306899279,0,-1,-1,0,0,1,0,-3
176306899279,-1,0,-3,2,1,2,-1,0
176306920208,0,-1,-1,-2,-3,-1,-4,0
176306920208,-1,-2,0,-1,-1,-1,-1,-3
176306921840,-2,-1,-2,-1,-3,-1,-1,-1
176306921840,1,-1,0,-1,0,2,0,-2
176306933969,-2,-1,-2,0,-4,-1,-3,-2
176306933969,-1,0,-1,0,-1,-1,-1,-1
176306950320,2,0,1,0,-1,3,4,5
176306950320,-2,-1,-1,0,-2,-2,1,-1
176306957781,-1,0,-2,-2,0,0,-2,0
176306957781,0,-2,0,0,0,1,1,1
176306959201,0,-1,-1,1,1,-1,-3,-4
176306959201,1,-2,-2,0,-4,-5,-2,2
176306980306,0,-1,0,-2,-2,-3,0,-2
176306980306,1,1,-1,0,1,2,0,0
176306981881,0,0,0,-1,2,-1,-3,-2
176306981881,0,-1,-1,-1,0,-1,0,0
176306993993,-1,-2,-1,0,-2,-4,-4,-3
176306993993,0,0,-1,0,2,3,1,0
176307002833,0,-3,-2,-2,-5,-5,-1,-2
176307002833,-1,0,0,-3,-1,4,3,1
176307017730,1,-1,0,-1,0,1,1,2
176307017730,-1,-1,-1,-1,0,0,0,-2
176307019317,0,-2,0,-1,-1,1,-1,0
176307019317,-1,0,0,1,-2,-4,-2,0
176307040149,-1,0,0,-1,-4,-2,-1,-1
176307040149,-1,0,-1,0,2,-2,1,2
176307041805,1,1,-2,-2,-2,3,-2,-1
176307041805,-2,0,-1,0,0,2,-1,-2
176307053814,-1,0,0,0,2,-2,-1,-2
176307053814,-2,-1,-1,0,-1,-2,-1,-2
176307062771,0,-2,0,0,-1,-1,1,9
176307062771,0,-1,-2,-1,-1,-1,0,-2
176307077691,0,0,0,0,-1,-1,0,0
176307077691,-1,0,0,0,-1,2,0,-4
176307079256,0,1,-2,-1,2,1,-2,-3
176307079256,-1,-1,0,-1,0,-2,-2,-1
176307100200,-1,0,0,-1,1,-1,1,2
176307100200,0,-3,-3,-2,-3,-6,-4,0
176307101775,-2,0,0,2,3,-1,0,-1
176307101775,0,1,0,-2,-5,-5,-3,-1
176307113973,-1,-1,-1,-1,-1,1,1,0
176307113973,0,-1,-1,-1,-2,-1,0,0
176307122821,-1,-1,0,-2,1,1,0,-3
176307122821,1,-2,0,-1,2,1,-3,0
176307137704,-1,0,-2,0,0,0,-1,0
176307137704,-2,0,-1,0,-2,3,0,0
176307139223,-1,-1,-1,0,-3,-2,-1,-2
176307139223,0,-1,-1,0,1,1,3,0
176307160261,1,0,-1,1,-5,-5,-2,-3
176307160261,0,1,-1,-2,-2,-2,0,0
176307161775,-2,-2,-2,-2,0,-1,-3,-3
176307161775,-2,-1,0,-1,-1,0,-1,-1
176307173948,-1,-1,-2,1,1,2,-3,-3
176307173948,0,0,0,0,0,-1,-1,-1
176307190229,-2,0,-1,-2,-3,-2,0,0
176307190229,1,0,-1,-1,-1,-1,-1,1
176307197370,-2,-1,1,0,2,-2,-1,-1
176307197370,-1,-2,-1,0,-3,-1,-1,-2
176307203956,-1,1,-1,-2,-2,-3,0,-1
176307203956,0,0,0,0,0,0,0,-2
176307219875,-1,-1,-1,-1,-3,-3,-2,-3
176307219875,0,0,1,0,1,2,0,0
176307226247,-1,-2,-1,0,-1,-1,0,0
176307226247,-1,-1,0,0,-1,0,-1,-2
176307233928,-1,-1,-1,-1,1,0,-1,-1
176307233928,0,0,-1,-1,-2,1,1,0
176307242758,-1,-2,0,1,1,0,-3,-2
176307242758,-2,-2,0,-1,-5,-5,-2,0
176307257779,0,0,-1,-1,0,4,0,-1
176307257779,-1,0,0,-1,-1,0,0,1
176307259256,-1,1,-1,0,-1,1,0,-1
176307259256,-2,-1,-1,-2,0,-1,-2,-3
176307280297,1,0,0,2,3,2,2,2
176307280297,0,1,-2,-1,-4,-2,1,2
176307281787,-1,0,1,-1,1,-2,2,1
176307281787,-1,0,-1,1,1,-1,-1,0
176307293850,-1,-1,-1,-2,-1,1,-2,0
176307293850,0,-2,-1,0,0,-1,-1,-1
176307302757,0,-1,0,-1,-1,0,0,-2
176307302757,0,1,0,-2,0,-1,-5,-2
176307317754,0,0,-1,0,-1,-1,0,1
176307317754,-1,0,2,0,0,-2,-2,0
176307319250,-1,0,-1,0,-1,-2,1,-1
176307319250,-2,-3,0,1,-1,2,1,0
176307340121,-1,-1,-2,-2,0,-1,-1,-2
176307340121,0,0,0,1,2,2,0,-2
176307341770,0,1,0,-1,-3,-3,-2,-2
176307341770,0,1,-1,-1,-1,2,1,2
176307353752,-1,0,0,-2,-4,-5,-1,1
176307353752,0,-1,-2,0,-1,1,2,0
176307362759,0,0,0,-1,-2,0,0,0
176307362759,-1,0,0,0,2,2,0,1
176307377539,-2,-2,-1,-1,1,-1,-2,-1
176307377539,0,-2,0,0,0,-3,1,1
176307379174,-1,-2,0,-1,0,-1,-3,-1
176307379174,1,-2,-1,-1,0,4,4,4
176307400111,0,0,0,0,0,1,1,2
176307400111,-2,-1,0,0,2,0,1,-2
176307401749,-1,0,0,0,0,-1,-6,-2
176307401749,-1,0,1,0,-3,-5,0,-1
176307422535,0,0,-1,-1,0,-2,1,-1
176307422535,0,-2,-1,-1,0,1,0,-2
176307424155,0,0,-3,-1,-2,-1,1,-2
176307424155,0,0,-1,-1,0,0,-1,-3
176307436629,0,0,-1,0,-2,-1,0,0
176307436629,-1,1,-1,-1,1,-1,-2,-1
176307445258,-2,0,0,1,-1,0,2,0
176307445258,-2,0,-1,-1,-2,-1,-1,-3
176307460090,1,0,0,0,0,0,1,2
176307460090,-2,-1,-1,-1,-3,0,-2,-1
176307461750,0,-3,-1,-1,0,1,0,-1
176307461750,-1,0,0,-1,0,1,2,2
176307482744,-1,-2,-2,-2,1,-1,0,-3
176307482744,0,-1,-2,-1,-1,0,-1,0
176307484252,-1,-1,0,-2,-2,-3,0,2
176307484252,0,-3,1,0,-3,-4,0,-1
176307505323,0,-1,1,0,0,1,1,1
176307505323,-1,-1,0,-2,-1,-1,-2,0
176307506807,-2,-1,-1,-1,1,0,2,-2
176307506807,-2,-2,-3,-1,0,-1,-4,-3
176307520251,0,-2,0,-1,-1,-3,-1,-3
176307520251,-2,-1,0,-1,-1,2,0,-3
176307521787,0,-1,1,-1,-1,6,1,2
176307521787,1,0,-1,-1,1,-2,-2,-1
176307542689,-1,-1,-1,-1,-2,-2,-2,-1
176307542689,0,1,-1,0,0,-1,0,0
176307544307,-2,1,-2,0,-3,-3,1,-4
176307544307,1,0,0,0,-1,1,0,2
176307557102,0,0,-1,0,-1,1,0,0
176307557102,0,-1,0,-2,-4,-5,-2,0
176307563831,-1,0,-1,0,1,-2,-3,-3
176307563831,1,-2,-2,-1,0,0,2,-1
176307580277,-1,-1,-2,0,-1,-1,-1,-1
176307580277,0,-2,-1,0,0,1,1,3
176307581826,1,0,0,-1,1,1,0,-1
176307581826,-2,-1,-1,-2,-2,-3,-3,-3
