timestamp,emg1,emg2,emg3,emg4,emg5,emg6,emg7,emg8
1569406089646772.0,1.1660606815277113,0.5863083432489201,1.0049303151728683,3.65404189856415,1.016924293941997,1.2103419293593272,4.448655797556794,6.2570725979459745
1569406089646772.0,1.2429745783083104,1.1331573955639789,0.9651079252707385,2.9904370329672996,1.0156105537147513,1.164754657658907,3.2497629738229503,6.610412436800094
1569406089646772.0,1.4392747852360548,1.2546577395681109,1.016541116020928,2.871952626761453,1.008296765738022,1.1798976075285599,3.275011034274979,6.477516179829092
1569406089646772.0,1.750041179008952,1.557990185935385,1.0347044420243248,2.721187976182726,1.026782027823471,1.1773435009143978,2.9135102643745587,6.575301314116706
1569406089648379.0,1.9297579137120004,1.6708709244388518,1.0801617454520476,2.623108375521322,1.0265674021468312,1.1835724066631117,2.923285294330079,6.443005462227884
1569406089648379.0,2.1869252703007365,1.8935348755188,1.1088082148877427,2.5439124722433495,1.045170945644234,1.189085850447728,2.7170975480026933,6.470138690760582
1569406089648379.0,2.3441146876628562,1.9987200839339183,1.1528690208966286,2.4601004289328263,1.0446183363874688,1.2021065992776856,2.7279273429040733,6.34974532572131
1569406089648379.0,2.5573472710566545,2.181276441599469,1.1820244880808144,2.406196253970892,1.055423848159412,1.2121389339043047,2.599135483897509,6.360133025286627
1569406089659345.0,2.7013361189164096,2.2812337513606322,1.2226038599216509,2.3339518420206415,1.0525131142031434,1.2212449641905643,2.6124163127927744,6.271363031793519
1569406089659345.0,2.898228891632297,2.4425318795399473,1.2538351438582096,2.2951850783890433,1.060737686450346,1.2277880644581642,2.518905926951182,6.288111509686173
1569406089667290.0,3.0469993705322693,2.543880793997028,1.2950489252057737,2.2345761109600866,1.0577667147796836,1.23559324134225,2.5332010681044674,6.221767135991003
1569406089667290.0,3.241071347368655,2.6956248773030738,1.3299205255907223,2.2068956125768704,1.0641451661807626,1.2413584856000242,2.4655886659460124,6.228352632665085
1569406089674300.0,3.3923057918414226,2.7993491937307455,1.3738502635543326,2.1585969820962068,1.0609682288176747,1.2491361241419583,2.479428931893687,6.160075301191893
1569406089674300.0,3.575532859797214,2.9447601348577814,1.4116682404535008,2.1432085460727035,1.066437738937257,1.2600433127276616,2.4331701556117507,6.162460598868842
1569406089689693.0,3.718379116674119,3.049062328936417,1.457913092728495,2.106897765684467,1.06591430150434,1.2757432577497356,2.454513072331623,6.094317032590463
1569406089689693.0,3.88884358927554,3.189368904269534,1.4998172758509833,2.0961808585531463,1.0736073061526732,1.291571311551609,2.4274020466485338,6.0825340957203675
1569406089698384.0,4.02656625662485,3.297186698153277,1.5481844013890762,2.0620902491864186,1.074804986529843,1.3072475665123962,2.4564412068279506,6.022864207404548
1569406089698384.0,4.189801485303168,3.4366893231870836,1.5933642490188402,2.0530746351294833,1.081962661216841,1.321488837070683,2.4481680224109805,6.014459833069019
1569406089704614.0,4.333011520164989,3.5483791656276873,1.6437326742492164,2.02430430225116,1.0841258607365547,1.3345593816328996,2.4861021600343443,5.955180669574536
1569406089704614.0,4.508667373871304,3.6871474483882465,1.6878923447090959,2.0173933629575154,1.0934907211698928,1.3456165777133242,2.495728464932715,5.946118071826981
1569406089720551.0,4.669323869426907,3.799131291085619,1.7361819637177636,1.9902292455866721,1.1001593504695784,1.3574352274478019,2.545955600844293,5.904028150398339
1569406089720551.0,4.853777445049983,3.9312657566999905,1.7804618114130848,1.9864198953480436,1.1138883654893252,1.3714067133819225,2.5715623184356984,5.908985893100072
1569406089728440.0,5.019167061582682,4.038636993248898,1.8277932475595007,1.9684212899389386,1.1251826968077947,1.3880341343798077,2.626687958197733,5.868576828252502
1569406089728440.0,5.203722126917902,4.160749640018111,1.8734046171054874,1.9743351911033813,1.1413644029138574,1.4050559463835937,2.661270338941762,5.861617482087615
1569406089767016.0,5.37284152404555,4.26123785801154,1.9221864076112505,1.9671175616646657,1.1537033552364586,1.422806484580674,2.72962932890739,5.8276470791403225
1569406089767016.0,5.553461367394486,4.383618849622327,1.9669227657067494,1.9781877509899102,1.168305090653898,1.4423416563782574,2.790242417412087,5.840130161537592
1569406089768060.0,5.708616871322167,4.488956495831134,2.013248291632019,1.9738020183546663,1.1796764876551413,1.4588193608717277,2.8740175302111712,5.825758847032327
1569406089768060.0,5.869255703854426,4.599085613195667,2.0536379036751833,1.9863295208903393,1.1961974813189011,1.4668676571304553,2.9147098369023663,5.833142591713582
1569406089769055.0,6.015851163463567,4.689432811686552,2.093098999052437,1.9830969392241444,1.2094989545927588,1.4694259615903504,2.9540514974190133,5.792318706396646
1569406089769055.0,6.174622236116214,4.801672315977105,2.1328605666282083,1.99620640225965,1.22648978384926,1.4742742851922528,2.9713755850516974,5.763800353594433
1569406089771049.0,6.323372622962952,4.907440131401676,2.1791556279485844,1.9972805288449968,1.2436000038399435,1.4814523434694988,3.0071919003770415,5.698629204899507
1569406089771049.0,6.483203232510611,5.027821749728918,2.23013107274479,2.0156211501598618,1.2647128690382632,1.4894681857276681,3.02137406318335,5.660852031907887
1569406089779982.0,6.638745256982666,5.143540297186814,2.28927139141017,2.024385013623305,1.2806315090374674,1.4948573362836926,3.0510491018246886,5.603376961677674
1569406089779982.0,6.819404919811237,5.2780533929389755,2.349434405746903,2.0495980586330584,1.2975394069253496,1.5000153385008577,3.064226788578158,5.576796410590004
1569406089786018.0,7.009274518523021,5.404356398503971,2.4091488077801118,2.06120552302806,1.3115817955143103,1.5052127357551255,3.09708168673706,5.530907747986395
1569406089786018.0,7.20093048166411,5.5357662269721475,2.4652855443241215,2.0884872728275963,1.3301157546444715,1.513342323142786,3.117197653539109,5.519800998016606
1569406089794941.0,7.36015116718552,5.652375492310487,2.5233844940952626,2.105416170840549,1.3460759067599655,1.5226786508322692,3.1569227389003274,5.504779865891959
1569406089794941.0,7.504043832874634,5.771981549578419,2.5797655601704585,2.1382447437375753,1.3644027916052535,1.5364089223285728,3.1840221653319505,5.525033505838479
1569406089808904.0,7.613819588523794,5.874268584065324,2.6184504636334585,2.152129149207211,1.3771701014041182,1.5501879213981313,3.2308317611757444,5.534227745798486
1569406089808904.0,7.697090970665439,5.973208104192231,2.6309257542128357,2.165680517716789,1.3842085743915928,1.5612214062394683,3.2696024394151393,5.562333433488694
1569406089817882.0,7.775800634705985,6.068772604707704,2.6318635297532302,2.151465301713133,1.3817547270148294,1.5679637206026857,3.324189847071943,5.566726217431735
1569406089817882.0,7.869624971211529,6.184809347741449,2.6309296949539323,2.144391899530644,1.3814209828594208,1.5722231145912227,3.348963485047096,5.589935891858915
1569406089823900.0,7.9694556108743635,6.311735545971422,2.629066324985416,2.1148084732330474,1.3762428654332028,1.5688867450500292,3.3722474986754207,5.602246759912069
1569406089823900.0,8.086242591381088,6.4602124360456115,2.6321401298378904,2.0966263807302314,1.3740295438559313,1.5622010302117684,3.3750256369083522,5.634043987954382
1569406089839822.0,8.220078576130113,6.61722078754026,2.6434406482650976,2.0610743890043133,1.370194884620162,1.5505727894771955,3.3858847494296382,5.655985032422438
1569406089839822.0,8.362835616648534,6.77255451160413,2.6642293190050044,2.043156796343287,1.3705874175656123,1.5399077114434334,3.373808740962404,5.7031343131129955
1569406089845806.0,8.476509006002509,6.889972895430986,2.6903927508258945,2.013573594514823,1.3683068131496858,1.5293080907096381,3.3759194143496436,5.741104610925451
1569406089845806.0,8.548947124492873,6.9826596883380105,2.716640067146808,2.0002154116805877,1.367460501536688,1.5201338386840098,3.363730556975301,5.788755921277644
1569406089854781.0,8.59555910824637,7.066000373698594,2.7379110044562145,1.968360758306939,1.3616312655833673,1.504119635663406,3.3602123933324393,5.816530966713909
1569406089854781.0,8.608878897885676,7.138891849608409,2.753237541392364,1.9517496315273144,1.35909376025899,1.4861737640303192,3.333532002491916,5.854161528080074
1569406089868746.0,8.582550908958625,7.1974596785925815,2.764197002538568,1.9223756750718735,1.3540149009976856,1.4684323427675652,3.3170824690317664,5.884902906295424
1569406089868746.0,8.53363030280827,7.258040759505369,2.776797627529491,1.911333250233637,1.3529642747198025,1.4561171299162132,3.2798244178986122,5.937856440599408
1569406089877720.0,8.492024210082363,7.332529053047222,2.787626051548602,1.8866625567522637,1.3483146180443006,1.441786448214756,3.256208562463832,5.979565267715621
1569406089877720.0,8.458453875976383,7.419182747192086,2.798513155388756,1.8773367970732726,1.3439744718515707,1.4281966234496106,3.2233525741367126,6.030637657522458
1569406089883703.0,8.431580276675986,7.494409281688395,2.8075877488705747,1.8555605048123478,1.3357739935538733,1.4145215433317033,3.2079176870659922,6.065727292730204
1569406089883703.0,8.40946732536913,7.548459551853858,2.8160880105490307,1.8518880220057774,1.3322940017016827,1.4044106099304006,3.1776182792400647,6.109105724178181
1569406089900660.0,8.386688898682209,7.591884874135081,2.82246084972155,1.8364089144128048,1.3285702478917605,1.3920037201310613,3.160253368443548,6.146642394395025
1569406089900660.0,8.345311365901695,7.623349166228507,2.8300628510651773,1.8366721787697096,1.3296090182856921,1.3806922961152142,3.128598151211818,6.195670623188831
1569406089906688.0,8.303377201733905,7.624054712246435,2.8318517078334335,1.8230179626569185,1.3261345781348568,1.3665829610838987,3.106446217421054,6.218821454611118
1569406089906688.0,8.26105425517503,7.582332458097275,2.8277532012678823,1.8210757598611331,1.3242018020689355,1.3531895703157384,3.069846536001129,6.240038871675487
1569406089915619.0,8.228508465238678,7.528900113070201,2.8179408305106786,1.8036268478504456,1.3207173880100933,1.336482220836114,3.0516097452019175,6.242383061004592
1569406089915619.0,8.1988671001799,7.47735468125117,2.805426747560776,1.7969307474757352,1.3206696632224169,1.320614083420551,3.024864969406902,6.25251100852723
1569406089928585.0,8.178685339430618,7.436397794105993,2.7869766236711135,1.7729018930837719,1.3194734084051554,1.3037785299503515,3.0143325480682908,6.2613835241509275
1569406089928585.0,8.168310031907595,7.390919675831324,2.7673729539189753,1.7603407829278066,1.3228485496411668,1.2911905151540835,2.996973140921674,6.296325550915275
1569406089937611.0,8.184463020075864,7.334933019823736,2.742999645941676,1.7319411304502565,1.3224191418150373,1.2779224963208093,2.9973516005329555,6.331394793062978
1569406089937611.0,8.214753587977015,7.267109244720377,2.716870852024997,1.7153652115663092,1.3220348307503662,1.2657638325574803,2.994238619348532,6.373237456386552
1569406089943588.0,8.258812316699483,7.208590944941779,2.688084546509253,1.6865879980394787,1.3185110849130142,1.2530226103302442,3.0098117328733083,6.399401677358182
1569406089943588.0,8.305944135682557,7.159996138378504,2.6648539047115802,1.672096876741034,1.3193086467079065,1.2434051851905457,3.0164763305439606,6.434620628594147
1569406089960500.0,8.36406982101436,7.130727186215457,2.6447744486042315,1.6453769433272978,1.317931859130967,1.2335267024572774,3.036526121460185,6.458642880681511
1569406089960500.0,8.413579071902399,7.105182831868453,2.6302169124098906,1.633474961487417,1.3182817067486756,1.2277161708167115,3.0520540443408395,6.4981118304708545
1569406089966484.0,8.438836074120386,7.085494935974478,2.6165579825398058,1.6110655844062438,1.3145647725278118,1.2222967264622202,3.0800596743437167,6.541598659344852
1569406089966484.0,8.425838446048097,7.058359147111051,2.6039246800188356,1.6017610939422067,1.3125646899711567,1.2198251485437712,3.099513788128669,6.601026969361105
1569406089981481.0,8.40185566486444,7.035037167846186,2.5887893486040507,1.5812964878408367,1.307340476064256,1.219495351334314,3.1306565066019214,6.643343261231045
1569406089981481.0,8.360250533721219,7.0124759640754055,2.577736857297033,1.5751286404297047,1.3033286572874034,1.2259018333311171,3.156526777575631,6.682523538259433
1569406089988426.0,8.301794121222361,6.989929376439973,2.5663200436829587,1.5602314890479048,1.2978015320596124,1.2344432407473438,3.197798214396842,6.704402257688942
1569406089988426.0,8.219833548886793,6.9523674418207335,2.558271748391709,1.5608518698541178,1.2990631062434206,1.244520387805791,3.2363508133994983,6.740641369761951
1569406089997401.0,8.137334680479704,6.902565022316413,2.545167686324287,1.5529453195451268,1.2993905686626177,1.252702319037552,3.291671064747803,6.775525897729166
1569406089997401.0,8.036108945103942,6.8126386050836665,2.5202699851506294,1.554670957679506,1.2984043845969748,1.258588746807899,3.3344608988663524,6.802221802939591
1569406090003421.0,7.930286174732317,6.70522141693953,2.482412586097914,1.5435526227393543,1.2906012713812633,1.2569521118047462,3.366116200372541,6.793720331476429
1569406090003421.0,7.825048156876086,6.5922826009528075,2.4459756548234646,1.5440863242787493,1.2825318152413063,1.2490855395477352,3.3653210517674714,6.789100596000664
1569406090021380.0,7.736455491833881,6.4906883079947155,2.410919278003536,1.5364638830357218,1.2697685046904426,1.2346554802180079,3.360768055160743,6.77612113246255
1569406090021380.0,7.651876615031831,6.3927443335009295,2.3808357279164323,1.5401610070793792,1.2582428143266375,1.2223434390903931,3.341242699384863,6.773721887380776
1569406090026323.0,7.5842284579652235,6.313632990341618,2.3515313012384405,1.5344056408441034,1.2440458809158692,1.2111783201204323,3.330044593365265,6.763171768585779
1569406090026323.0,7.508779254693155,6.237812434648088,2.326980706735406,1.5418947462929549,1.2324005013743016,1.200315075303931,3.3079817907194338,6.756989565959615
1569406090036337.0,7.425909007672986,6.166499782642417,2.3016176779008353,1.5408002994130732,1.215362442062453,1.1850470378292046,3.2910702079405776,6.741882012350615
1569406090036337.0,7.3274123473683455,6.080816119685624,2.275050651486041,1.5491511447496422,1.1986795834080246,1.169227041967828,3.259576509682063,6.739075901455578
1569406090048264.0,7.2309473823675905,5.991358393226535,2.2416326497281127,1.5473398913724044,1.1811049828685456,1.151987568191716,3.2349888150953294,6.716620238048505
1569406090048264.0,7.124194278358826,5.89435098338201,2.2081650047148003,1.5528105183963543,1.1682854252470283,1.1380932518337508,3.197573172307072,6.699727274495442
1569406090057244.0,7.018395866684916,5.805948537070346,2.17167342916491,1.5450478612972884,1.1547015445494562,1.1267372815903824,3.1666728668438315,6.682494906405035
1569406090057244.0,6.905955374595532,5.711928840387773,2.135838190009532,1.5454564825779507,1.1446386918475777,1.120291437860801,3.1247753354100642,6.679963422945508
1569406090071238.0,6.804297431953577,5.626067221083759,2.09946112956426,1.5340909778900071,1.131636681818,1.1136864597455547,3.0938697731343576,6.669143597507852
1569406090071238.0,6.698912225383439,5.537641082635754,2.0663192397501597,1.5291549732519853,1.1213417019717535,1.1073058577534045,3.0563297148345248,6.665021155114842
1569406090088159.0,6.603520109550464,5.457916474734998,2.0306200640611736,1.5122695924001526,1.111319673420251,1.101451557757097,3.0335144560524494,6.6473074154449385
1569406090088159.0,6.507609457409968,5.376382143462692,1.9964866226123377,1.5038765179590936,1.1052288493953855,1.100106276585696,3.0065556036260115,6.638208351427005
1569406090089156.0,6.416983658999015,5.300348302289132,1.9599317874834195,1.4854926625935174,1.0973538505363132,1.0996664989104534,2.9923761806763665,6.618795585298273
1569406090089156.0,6.3143660309343055,5.216335816914362,1.9249167722156109,1.477842598172897,1.0910096643702076,1.1008644020025684,2.9749895121131757,6.610068900952311
1569406090095140.0,6.215444746092024,5.139409872899446,1.888857078177572,1.4628385955097496,1.0805770550629537,1.102706477966352,2.973378109880803,6.5930147255857365
1569406090095140.0,6.109428127902626,5.057106584749617,1.8562596422260678,1.4600024820133537,1.0718022495802648,1.1067059227000502,2.967701006983219,6.578764766110647
1569406090109102.0,6.011252205984222,4.9790397348368,1.823038758541365,1.4478772277458658,1.0612100823698891,1.1079226288813047,2.9739654089638083,6.553465080476221
1569406090109102.0,5.913633344981171,4.8957522215185,1.792064725899085,1.4404787931054752,1.0518704281096278,1.107484129112082,2.977957967774462,6.5342310264988965
1569406090118078.0,5.83266091806667,4.8226972261623295,1.7607906119862144,1.4200768633186966,1.0397786509275464,1.1044608550043669,3.0020945853235874,6.503211210156931
1569406090118078.0,5.758018768163687,4.750031075179658,1.7326395843287472,1.4085327532325354,1.0302710492858027,1.0996548616404458,3.024669045683579,6.484192081436174
1569406090131093.0,5.696721256441384,4.687746130953267,1.7032136402697546,1.3885203582091625,1.0196581416972261,1.0904053457708693,3.0448200796644826,6.456137811040128
1569406090131093.0,5.630370871144378,4.622227318327871,1.677090323797989,1.378591184608871,1.0121652088795012,1.0819251895572366,3.0468106838682045,6.434971833028812
1569406090140025.0,5.569856351905439,4.5625747327928705,1.6506095805771024,1.361098325383774,1.00422507046198,1.0753237279136627,3.0555876660513293,6.407434966611973
1569406090140025.0,5.502830073219488,4.4980753376576095,1.626078891520289,1.354347498846406,0.9994318346507856,1.0709265669597077,3.059326330847695,6.391768458645071
1569406090146004.0,5.44015146595293,4.440655625114698,1.6016736136854155,1.3403640001754171,0.991739758204544,1.065959102632907,3.0783191392521796,6.370499969683441
1569406090146004.0,5.370443925183344,4.37824559502822,1.5822207349116348,1.3361176344121946,0.9842989042669399,1.0609903752500607,3.092587424456058,6.358967198075807
1569406090154979.0,5.301528165318298,4.323636418459681,1.564103733500008,1.3252640556240909,0.9756037006565236,1.053794523081913,3.103826824525722,6.331027616923735
1569406090154979.0,5.222979947527094,4.267130058821766,1.550847840142585,1.3232856302265028,0.9689457767236299,1.04860873171103,3.0952909389890713,6.30203911229381
1569406090168984.0,5.1518989963234425,4.2163242866558654,1.539469192074841,1.3114936833823485,0.9600462247803979,1.0465347634807896,3.09166933971487,6.262237402397067
1569406090168984.0,5.078228416880697,4.1585706583535105,1.5315257788840917,1.3058801969929763,0.954179899921485,1.0487240087179561,3.081081215397217,6.235375942293939
1569406090177919.0,5.014642880046875,4.104545998570638,1.5221892867322762,1.291446331434952,0.9492415495155795,1.0519804690924843,3.0766392278783314,6.2104787884251635
1569406090177919.0,4.953021446202073,4.0429798318297445,1.5136213089734936,1.2858226831723183,0.946896159469957,1.0565526565908672,3.0617942377070295,6.205178098054795
1569406090190885.0,4.900635092598079,3.9853025050504547,1.5020446973682724,1.2736322783989438,0.9432508976583575,1.0601628934358633,3.0519696222459025,6.2021645127937814
1569406090190885.0,4.839514276407225,3.922577997025769,1.4900706716751195,1.2709023389394822,0.9423698221480662,1.0628030170057203,3.0327087137132778,6.214362026554778
1569406090199859.0,4.785543983240352,3.865716532021568,1.4759919169021305,1.2625492973290298,0.9417332787269211,1.0639805095258845,3.0223138790392565,6.229866531389937
1569406090199859.0,4.7318207898625255,3.802700604721077,1.4650442925702174,1.2643029234113035,0.9436491484896655,1.0650798975677767,3.007285095319856,6.255614643375531
1569406090205842.0,4.678524023790065,3.7425434281569574,1.4565275541646732,1.261433188900434,0.9439257331530321,1.0636554597023316,3.0024315984655243,6.254814304625613
1569406090205842.0,4.612832673243579,3.6757083572733182,1.4519338073228147,1.2660706069646377,0.9457280433703743,1.062477363469916,2.9966652685920683,6.2431691516805
1569406090214820.0,4.554073939061918,3.615527383183374,1.445416019478635,1.261713729177885,0.9476224644035601,1.0627063876665723,3.0068519650077397,6.221142049597533
1569406090214820.0,4.495935267055341,3.5535853378990048,1.4398778655055446,1.264427261548058,0.9528212853609515,1.0649149386924004,3.014069254765039,6.212445638047872
1569406090228783.0,4.448959262582681,3.4992963237262567,1.434546234340413,1.259627965831238,0.95735138903241,1.0669839404052155,3.029435433758497,6.202231101186507
1569406090228783.0,4.399848624375746,3.4414010887873476,1.4312709557705,1.2603504455627301,0.9617826077206715,1.0700043625359401,3.0376718993967713,6.205241931441212
1569406090237759.0,4.355505796771023,3.3908937157334806,1.4282889721945324,1.2541752223877518,0.9653192909657007,1.0730688116952636,3.0540802699534626,6.201556647484909
1569406090237759.0,4.307093985042256,3.338333300789139,1.4285384458754637,1.2560254066581042,0.970802652031506,1.0756123802332935,3.0633683693826605,6.197945513668041
1569406090251726.0,4.26646487097829,3.292265409233046,1.4270333186593067,1.2512057677023734,0.9759338695244058,1.073157849763547,3.0748258180378722,6.175881085559171
1569406090251726.0,4.227294050670726,3.2422378360747635,1.4270795940993606,1.2540780250136978,0.9834523955488544,1.0678864923460671,3.0751708779932074,6.156826789694312
1569406090259700.0,4.201474546319789,3.19949927890039,1.4271558250866831,1.2512813949184243,0.9894708184608846,1.0617942967835088,3.078607290910751,6.128747801871678
1569406090259700.0,4.1766215985863315,3.157160351486258,1.4254776611549653,1.254367076439603,0.9946312191771999,1.0552788654678404,3.0671486852728265,6.098990094264773
1569406090266713.0,4.161812027999396,3.1244566310811477,1.4209835915185394,1.2515646097915976,0.9961520448143085,1.0469160020685249,3.0577272281719083,6.060841465585437
1569406090266713.0,4.150295381163447,3.0903389487602877,1.420150628587821,1.2575113118666752,0.9972621371737632,1.0387159713923326,3.0420989664548856,6.041620544793898
1569406090281640.0,4.146900211887055,3.064415230055459,1.4183298617541136,1.2576012610976814,0.9991896426936132,1.030588899345016,3.0348821044328895,6.020658052212129
1569406090281640.0,4.135807245079966,3.034064378811976,1.414709235394295,1.2607134639355382,1.0051515809699656,1.0239106497715575,3.014870319800327,5.999534857442581
1569406090288664.0,4.124059963133309,3.005854612333211,1.4082105172590835,1.2528867437094804,1.0118539918412919,1.016546105554296,2.9935889017269486,5.95846163505818
1569406090288664.0,4.101897351199747,2.97248405216777,1.4044362906212535,1.2505436115657358,1.0193884713307053,1.010387926320686,2.9621515158493468,5.9169725408896605
1569406090297598.0,4.080188437826796,2.944865238193196,1.4031892366985856,1.2427621112161353,1.0234148949215147,1.0046213250220992,2.9381287769387874,5.868903540610579
1569406090297598.0,4.055693872869835,2.9158744884000773,1.405935270605471,1.2403871193022202,1.0256261746840563,1.0001073263709996,2.9045000345042995,5.8316899042186865
1569406090311562.0,4.036333429878594,2.8917170968752433,1.4086784821932814,1.2276715161597462,1.027252943294157,0.997115735258969,2.8737234809553684,5.792856426267228
1569406090311562.0,4.010283476168518,2.8595333522122726,1.4125275800998596,1.218486745931206,1.0291894687820722,0.9947884067723228,2.8343510374214738,5.765967865634455
1569406090320537.0,3.986741379465531,2.8303828798256916,1.4165663981023346,1.2022290939513878,1.0264858031820445,0.9908699971124799,2.8058028631027145,5.738723536480826
1569406090320537.0,3.9576492831906154,2.7994102455474588,1.4225352578166612,1.1928958865582588,1.0238787568595311,0.9879714474758048,2.7753289687468676,5.729639694335721
1569406090326555.0,3.9329462474305688,2.776023291215906,1.4274340925324784,1.1799515124024815,1.022481960936944,0.9864822507276728,2.754705964980604,5.72508444857304
1569406090326555.0,3.9063800152396713,2.750397212878641,1.4320136861340524,1.1758087896366598,1.0235857549783272,0.9882445161546481,2.7298118976416097,5.734005441212075
1569406090349463.0,3.8873670459598126,2.7296226307288456,1.4331442322523529,1.165656307551141,1.0255470667999582,0.9929345157696665,2.7163004219319125,5.746583574191109
1569406090349463.0,3.869767137797759,2.706418125112307,1.4339282566862368,1.1618611226501157,1.0302295578006144,0.9992683978985641,2.69808768259978,5.78134378312747
1569406090350495.0,3.860582354557856,2.688932422998077,1.43387914756698,1.1527044092549574,1.0362612392816932,1.0056510856613101,2.687786502195595,5.824903798192567
1569406090350495.0,3.8438530231312553,2.6661722003737856,1.435339056592006,1.1497790650787099,1.0444538734164166,1.0106366430862093,2.674841510018688,5.882962942068321
1569406090365418.0,3.8269341687828073,2.6461698356083243,1.4368792847179228,1.142472505632597,1.05293600220685,1.011397793642373,2.6720271797743287,5.943174528136499
1569406090365418.0,3.8087413864502913,2.6219313778187394,1.4402190878973147,1.1424687136275873,1.0654096594702882,1.0109988392980394,2.6626092357459634,6.0127786819905635
1569406090371436.0,3.8018991703160028,2.601923490805291,1.4416893572775764,1.1372296868554606,1.0806490557733566,1.0131251571591322,2.661322034402923,6.085730716497798
1569406090371436.0,3.797762659493158,2.5779538576842755,1.4411462103038586,1.1371079120303478,1.095529162820735,1.019540820134843,2.65705929266256,6.1690876987621515
1569406090381374.0,3.7930166345745815,2.5584824670684356,1.4360588708766848,1.1295197934412675,1.1054376133361883,1.0280989490816084,2.6579917818199936,6.219391134465942
1569406090381374.0,3.7751837584790624,2.5369052592657098,1.430175719413524,1.1269403930914141,1.1139842470338013,1.0370349844791795,2.6478913402521895,6.250676734392517
1569406090386404.0,3.759598247612593,2.52032966931143,1.4245447232416828,1.119716210399955,1.1212989760001373,1.0479819296232515,2.6433617281519783,6.281168620059626
1569406090386404.0,3.7447168250681044,2.501539405406598,1.421555111424419,1.1196619672625803,1.1269572641353849,1.0623590533373486,2.6361835173940578,6.32362060636271
1569406090401358.0,3.736250883062945,2.4892374979871286,1.4176999457863237,1.1157879793181111,1.1287384331423302,1.0790560707045393,2.6402685939357395,6.355149037047811
1569406090401358.0,3.725807435739358,2.4737103039275197,1.4136429284291592,1.117095838109831,1.1296836172163915,1.0964658843600816,2.642964298718594,6.391576050723208
1569406090408337.0,3.724294708942831,2.4612752702121026,1.4091892095137666,1.1114978332902234,1.1293865940534813,1.1095040328279284,2.6520693454645854,6.43447954303981
1569406090408337.0,3.723493108026064,2.4455439034955035,1.40716684158898,1.1113097698678753,1.1301766142869971,1.1171874679497018,2.651352197855836,6.496275984019881
1569406090417325.0,3.729946679625174,2.4362635285425602,1.405064338799631,1.106285551881359,1.132860495615067,1.123041704601,2.653221204907959,6.5632391469690425
1569406090417325.0,3.7401317992601872,2.426513747260702,1.40449571145301,1.104232835397242,1.1399278016019256,1.1303847587213933,2.6481953783440826,6.647496560191169
1569406090431254.0,3.762932477629539,2.4215746395144,1.4037932386012302,1.0948738691643807,1.1477214898800967,1.1401330058227908,2.6502971001763758,6.7347879696965265
1569406090431254.0,3.7936140052338323,2.415593957053743,1.4047738142412611,1.0908341781536586,1.1542043729269138,1.1508546400257944,2.648962964136637,6.84183556722733
1569406090440218.0,3.8368857662395373,2.4175785282836055,1.4058626526941156,1.0822999315434112,1.1577182201947216,1.1602482779658558,2.655723633375586,6.954147285957124
1569406090440218.0,3.8718811860567985,2.4190182871085146,1.4092599803201722,1.0805469026914953,1.1633255695485307,1.1697090013447984,2.6581412613892246,7.046441367182732
1569406090446239.0,3.8900270414580933,2.4243534435825382,1.412240602819884,1.0770128933762637,1.1727796079320636,1.1771942991888622,2.6665242619366607,7.085569376592985
1569406090446239.0,3.887349591896729,2.424056882040659,1.4132796401988623,1.0797538303877081,1.185974622977812,1.1799861623564905,2.6609389306252007,7.095008063567085
1569406090461193.0,3.8821767973726313,2.4257486098270578,1.411660496058427,1.076588550365887,1.1963571865401392,1.1792573397091253,2.6526852382742017,7.073330603412639
1569406090461193.0,3.870071477136754,2.4254442218060435,1.4123793367518072,1.0787404699066503,1.204917799659273,1.1765176168209375,2.634981115936999,7.042559645176293
1569406090469140.0,3.8548286044870452,2.4293644406655224,1.4121655815174123,1.076677635611649,1.2124734263002759,1.170986639954691,2.620369699725753,6.992379612467958
1569406090469140.0,3.8297424443096073,2.4272105890348104,1.4100905561089876,1.0783336065935374,1.2193955449389453,1.1650304768371802,2.597919643801009,6.929591559416344
1569406090478117.0,3.807228780686896,2.424065123266854,1.4060462176748154,1.074947660847559,1.225931935758328,1.1591322615060629,2.5819845507574293,6.848772938916881
1569406090478117.0,3.783583439458604,2.415505876345071,1.4050083182419686,1.0755236556229137,1.2344332580513957,1.1540071500342106,2.5631274795657695,6.777049230037979
1569406090491121.0,3.76389673589376,2.412478683924153,1.4045250445472168,1.0689531393070542,1.241601934449113,1.1491010490554099,2.554590569600804,6.706760566848838
1569406090491121.0,3.737689310773998,2.4072540658709167,1.40222780992249,1.064127420956831,1.2488805338251643,1.1442195783339337,2.5445721198227096,6.643826074789857
1569406090500056.0,3.7107988528491536,2.4008996054912,1.3961170917037304,1.0539293482195196,1.2530801404069638,1.1375302055521734,2.5425375086422486,6.559778002113659
1569406090500056.0,3.6781025364024647,2.3876593218635036,1.3906524457306841,1.049968069838227,1.2536004085319645,1.129480518570943,2.532378061140372,6.469703165962639
1569406090506079.0,3.6487523510249513,2.3778770843581274,1.385548144866103,1.0428940573300693,1.250714953551077,1.1199505359184836,2.526575727652857,6.370167836554537
1569406090506079.0,3.6183665465513153,2.3634810802906827,1.3817722375860872,1.0413771953118636,1.2493273072450044,1.1125642881336604,2.515158227511965,6.2806709346287
1569406090521001.0,3.5953690403326006,2.348443992936157,1.3780351283981105,1.0350059983039135,1.248184475584425,1.108319910162936,2.507009883224076,6.1920139692955045
1569406090521001.0,3.572090966625744,2.3265875175097204,1.3746512675415938,1.033403194382853,1.2458141201864046,1.1045741904506843,2.4882464212111284,6.117684403699196
1569406090529043.0,3.552579510079886,2.307173097790657,1.367594748904867,1.027640904784322,1.2403204548022202,1.096928323276529,2.4720395394539043,6.034897808875043
1569406090529043.0,3.530595265426919,2.2843854230930534,1.3589709426913001,1.0238296105155655,1.2353055826486314,1.0883705946430402,2.4489003357419987,5.955629436800426
1569406090537955.0,3.5115595243176037,2.2641248225297024,1.3487306803377879,1.013305067265753,1.2294255819833078,1.080609823471286,2.4319444790693603,5.87144410395181
1569406090537955.0,3.4809390321200224,2.2411695378633936,1.3410413826158232,1.0070203415783776,1.2243698327340509,1.0717574717482894,2.4059368312320086,5.795299665888263
1569406090550952.0,3.445802100494452,2.222575651217743,1.3354506909102344,0.9966285496090022,1.2183757580732977,1.0592539687105746,2.3817306943526226,5.712671516546465
1569406090550952.0,3.4064161744930175,2.200983751671652,1.3309938846575766,0.9915559228888575,1.2138761377029466,1.0462535138873512,2.351154707822482,5.638032954272699
1569406090559900.0,3.372755170291222,2.182341514080746,1.324627325685922,0.9851214582924702,1.2108818789527027,1.0351765976473108,2.3259631694659633,5.553722053491975
1569406090559900.0,3.3395961967416476,2.160039747208235,1.3193998985986286,0.9859849898872364,1.2101650313374113,1.0274732949663385,2.2954687424496343,5.476612804532105
1569406090565882.0,3.3135927620079157,2.1401688508665098,1.3149818625089793,0.9844505455883029,1.2077591555920275,1.0205714872970209,2.274352501766874,5.397626819467889
1569406090565882.0,3.28741208877377,2.1158347406679563,1.3113007570600999,0.9869899465164238,1.2049579501736871,1.014946144477833,2.2486966268305464,5.328069223399682
1569406090580886.0,3.265243842590702,2.0931334736626503,1.3057846670750475,0.9859451095566498,1.1989187125237937,1.0110805904960765,2.227613208819655,5.253370731127432
1569406090580886.0,3.236801217219468,2.0667746324626117,1.3004744129026242,0.9907681424612372,1.1901127853242912,1.0079930385846807,2.2010925951221787,5.18598694886873
1569406090588821.0,3.2084516541148926,2.0431543595743045,1.2946458551385227,0.9928758207089281,1.1787227984515374,1.0036167479960953,2.1807682361949827,5.108433524180255
1569406090588821.0,3.1757341943766413,2.016411366132951,1.2914004318503176,0.9974333437551907,1.1693098785244687,0.9995755633401489,2.1544471772300886,5.033822983813301
1569406090597796.0,3.1453960281076894,1.9942294309307422,1.2895322941426075,0.9958764045986007,1.1591711126028494,0.9942606720227589,2.134003685855339,4.952804309058912
1569406090597796.0,3.111138891708889,1.9716663560924939,1.2889699286344447,0.9958034080678295,1.1481128296744978,0.9880318753931167,2.1067315822817068,4.882960078582579
1569406090610808.0,3.0808620838467675,1.9559661526972794,1.2863001065506061,0.9912937590735154,1.135645624814023,0.9811606916323673,2.083310909449406,4.811233631921077
1569406090610808.0,3.0516949091376535,1.942491833222758,1.2839225884822725,0.9915392551513346,1.1247103608734232,0.9743358555822683,2.053904785513848,4.750985001292012
1569406090619737.0,3.032552559329062,1.936641160253685,1.2818788353193686,0.9891544399114286,1.1146589294304625,0.9668569197975193,2.0314240901670417,4.690813029594502
1569406090619737.0,3.014710852458958,1.9293766949561948,1.2785017599474553,0.9896271966043133,1.1090563431248384,0.959250291916609,2.003469662416231,4.644304017575147
1569406090626718.0,3.000620652932243,1.9239599165180998,1.2721213440674486,0.9846467653901579,1.1056337472896287,0.9517026200305204,1.9795311349033744,4.596820871123324
1569406090626718.0,2.98040898008639,1.9143552088672378,1.266990474941712,0.9821041080445838,1.1027011154137618,0.9469254658061039,1.9492826295105008,4.555712361716295
1569406090642677.0,2.9596119272788437,1.9052850580075191,1.2605387571894455,0.9757490304459756,1.0981024920777966,0.9448024278272403,1.9253713215002801,4.505068109438757
1569406090642677.0,2.9347374055806945,1.8905489928331278,1.2531024687038288,0.9728197778209323,1.0962237607921694,0.9440219047558026,1.8975688663825765,4.460619880810811
1569406090648659.0,2.9103760148872775,1.8781773368466979,1.2438403906022746,0.9631530185414746,1.0975971598542993,0.9429149330400312,1.8777773217781997,4.413112823256976
1569406090648659.0,2.8789335107104392,1.8654085477554179,1.2346565761005959,0.9550009296043024,1.1038592239872629,0.9418203327541613,1.8549965564333417,4.371671370093417
1569406090657636.0,2.8499359305308967,1.859372073959603,1.2264871798390538,0.9449214867504143,1.1124214043623335,0.9411319903469363,1.8370291888228616,4.321505188359499
1569406090657636.0,2.819761138154864,1.8544261524244352,1.2217357154392379,0.9405221108439753,1.1212511306751773,0.9434744218767684,1.812960968734399,4.278773846470613
1569406090671599.0,2.7944295338190606,1.8550111512182113,1.216380840044699,0.9339047365104162,1.1241663997982771,0.946937310438327,1.7954043485633313,4.235067532046887
1569406090671599.0,2.768028194481156,1.853767343528636,1.2102763153838694,0.9322071107830809,1.1242144161952552,0.9467738089225383,1.7725706720857772,4.203587714485799
1569406090680575.0,2.748391173745733,1.853850720598082,1.2033555349375296,0.9278910952158006,1.1243869983566004,0.942872804540819,1.7535242131551199,4.1736413498196985
1569406090680575.0,2.730562461995469,1.8479875628748856,1.198884498653052,0.9273104041332934,1.1269015934421505,0.9395342797308945,1.730613841722033,4.155955423773776
1569406090686599.0,2.7149738152693574,1.840644059604529,1.1948853165500506,0.9243266064385429,1.131758490388488,0.9376090051450751,1.7165859530171512,4.133633182557292
1569406090686599.0,2.693242525076282,1.828709656600515,1.1900099266237203,0.923464190898509,1.1407722919696217,0.9376353095218137,1.70030006046802,4.11688029485888
1569406090701556.0,2.673661596396872,1.8188629567643122,1.1824430117655267,0.9180176266246138,1.1499683415285638,0.9383846716163343,1.6894344767854432,4.095296875657245
1569406090701556.0,2.6509807378991157,1.8052950388325748,1.1749617258186889,0.915803256929626,1.1595519737776347,0.9391925631518159,1.6750309165433386,4.08022716984448
1569406090708500.0,2.6288759146800547,1.7945540040229293,1.1679754881572304,0.9092573617189293,1.166234901426811,0.9386874185362787,1.6656766486661017,4.0627388554004025
1569406090708500.0,2.6013456810205935,1.7840369133793021,1.1625118066356392,0.9059115801522175,1.169222037531468,0.9369933476016031,1.649512778659006,4.0525597004360705
1569406090717476.0,2.5764937726262573,1.78030302208826,1.1568638521178465,0.9014914049520591,1.1679454797187563,0.9357216505634216,1.6380196187297649,4.039656865948502
1569406090717476.0,2.5517617016146605,1.7785558480279964,1.1537870951442326,0.9017654540773281,1.165392297187592,0.9363313245495436,1.6236287417232824,4.037519514889406
1569406090731438.0,2.5334159977312725,1.7818449994290162,1.1513245394858163,0.9002033970862456,1.1623886328388804,0.937708118324047,1.6142732357444427,4.030286197946107
1569406090731438.0,2.513561379919982,1.7798519603089906,1.1479739687698218,0.9006773976011535,1.1605730197683521,0.9381280709925328,1.5993652578720183,4.025889445826623
1569406090740414.0,2.495302679589199,1.7759590345479412,1.142274783530849,0.8963679554442882,1.156051308707659,0.9371567145616752,1.5891533332123562,4.014712332676191
1569406090740414.0,2.47499126062504,1.7677369971093841,1.1361304258797085,0.8937592491524292,1.1511269028238027,0.9360741847105093,1.5766672952641685,4.005834701094588
1569406090754378.0,2.4603884939083223,1.7610291986699902,1.1290629709298836,0.8869710664716898,1.1470298107375207,0.9336862649620625,1.5715512511840015,3.990597814781235
1569406090754378.0,2.4439562475415753,1.7506994547768944,1.1237350288084982,0.8820714864037311,1.1446543765010733,0.9291345276095719,1.5630332222678942,3.977874060249288
1569406090761359.0,2.429650599073385,1.742244943886456,1.1186574040245971,0.8755989859293927,1.1391258763427816,0.922982074783658,1.55671027216488,3.9556918426758063
1569406090761359.0,2.414102923280077,1.7318154443871632,1.1144886645349565,0.8740041736990912,1.1309442671656074,0.9164550200666083,1.5453189517506114,3.9394683745969252
1569406090777316.0,2.4043482324172185,1.7232848696384229,1.1113943109560944,0.871338826303276,1.1219376428018433,0.9102631446690328,1.5399214908609373,3.9240487376192434
1569406090777316.0,2.3968492709176905,1.711723810459718,1.1102458432276803,0.8722284392871997,1.116058795358067,0.9057444724150788,1.5305342525763002,3.9194052326972204
1569406090779310.0,2.3945584142668674,1.7031055290196742,1.1087979826464698,0.869277503249704,1.1107518138417145,0.9017504323354615,1.522405847650399,3.911568378864452
1569406090779310.0,2.391929335825669,1.6933811417796452,1.1078042711059826,0.8673815330703588,1.1061171800663967,0.8984010831822439,1.508298462975282,3.9109341608914923
1569406090791311.0,2.3937082364884636,1.6873959987941154,1.1059360362507138,0.8638071567843636,1.1014418021412475,0.8975295739851128,1.4998528514122982,3.9108599070040237
1569406090791311.0,2.3901287932321726,1.6818262741547618,1.104780857073376,0.8629402430482532,1.098116532643077,0.900421805037188,1.4905296808178172,3.9108678481207693
1569406090800254.0,2.3838833626868183,1.6829414776905738,1.1047948072233917,0.8596240946471654,1.0920006247988818,0.9050408866924896,1.4863689114282364,3.888087674502267
1569406090800254.0,2.3725295854837265,1.6834159278789385,1.1065224045202045,0.8596934106358788,1.085319307387555,0.9084454701901497,1.4793348269112838,3.8571580170796462
1569406090815214.0,2.3608660243548716,1.6846856751400665,1.108602548026756,0.8580820105009764,1.0780066394584018,0.9104704285618759,1.4764867730803508,3.8177717293652584
1569406090815214.0,2.345074882960655,1.6841115679568894,1.1132629922735928,0.8578719625930988,1.0712978765277388,0.9131628629516582,1.472074772144328,3.781124330341887
1569406090821198.0,2.33230118232789,1.6874752502209232,1.1192857703587158,0.8551925868472526,1.06570260666697,0.9175009092506518,1.4752535608915014,3.7380175989980806
1569406090821198.0,2.316995104157362,1.6903397580243946,1.1263511403215176,0.8563575952451428,1.0642999425192994,0.9225582226883444,1.4767098759203587,3.7004846965671807
1569406090837193.0,2.3027483547813725,1.6989902185906878,1.1343022771452183,0.8581876517022684,1.0629208531037093,0.927317793911567,1.482245015973413,3.6616595328175476
1569406090837193.0,2.286011495536529,1.7100098839970876,1.1449340873985299,0.8630432680240614,1.0584532382436769,0.9308305910882722,1.4862854039002706,3.631736097536244
1569406090839152.0,2.271250424507821,1.7249136549582293,1.1548822458265118,0.8649077623913871,1.0500272462572975,0.9320833546739704,1.4954729971337795,3.5988579001051435
1569406090839152.0,2.252324283790847,1.7359994517692499,1.1629661445425523,0.8666615027293609,1.0430116627367962,0.9320773584427913,1.501652546717631,3.5743019254721813
1569406090851119.0,2.2335000272688794,1.7455902351424346,1.1687007342429923,0.8664141031736093,1.0382672634024046,0.9327630167067579,1.508780387294931,3.5530838762561956
1569406090851119.0,2.211389860286956,1.7482147488641377,1.173441227437338,0.8689153751201714,1.0374135080988658,0.935177458524624,1.5087539798644756,3.5399173713075305
1569406090860093.0,2.189905185070086,1.74910615466214,1.1782497126919662,0.8710761568859469,1.0375975507565558,0.9383311012698476,1.5087044470380138,3.518621523813434
1569406090860093.0,2.1630030136212257,1.7466954329732947,1.185700604806077,0.8762312818591786,1.038859954410804,0.9402886526770301,1.503808323082462,3.498740065071702
1569406090874060.0,2.136488973908264,1.7457366122663482,1.1950936875034448,0.88145353146844,1.0396127399516948,0.9400418503456116,1.5026664252268298,3.4746293577853926
1569406090874060.0,2.108886041542002,1.7403913387729193,1.2046776634006018,0.8898532421730456,1.0411096394494215,0.9376241945235954,1.5003128092353628,3.4562568449582076
1569406090881038.0,2.0857354625073574,1.7350593783085078,1.211741845783959,0.8979315961170159,1.0421410947135876,0.9319706610571322,1.5023771243263784,3.428843657504184
1569406090881038.0,2.063765959879811,1.7282640477464906,1.217650471358984,0.9062658317762677,1.0432780718709902,0.9240173052464051,1.5031716260175338,3.399396827453283
1569406090897994.0,2.047533321912929,1.7254037937181008,1.2214280376169244,0.9117226091545535,1.041661372291418,0.9176260072333366,1.5076490398799434,3.3663247728615078
1569406090897994.0,2.0314351469085095,1.7215482639810344,1.2244291668907301,0.9185482699916724,1.0387525183129667,0.9139135939350501,1.506772648593584,3.34080055312948
1569406090898993.0,2.018120033767172,1.7188385600779896,1.2270008672873753,0.926571131204381,1.0340333967491495,0.9098706925373762,1.5077635251032167,3.3118492286443573
1569406090898993.0,2.006573069886992,1.7113407224842176,1.230208923294989,0.9386114493571441,1.0294413290808453,0.9044899100476682,1.5081950890678446,3.2862131408735418
1569406090910959.0,2.0021816465421045,1.703360107630415,1.2332399632851796,0.9516388108779862,1.025826436254753,0.9007061604284636,1.5125362132984286,3.252148453361753
1569406090910959.0,1.9951674524075664,1.6901502517227105,1.2379261018536387,0.967952824390354,1.0257260602876808,0.8995429516601597,1.5116974900031341,3.218990760989533
1569406090919947.0,1.9861485951304911,1.6753300958566553,1.2444919614805936,0.9839010495205393,1.0263907402014898,0.8990006802519378,1.508671044574222,3.1800997939111944
1569406090919947.0,1.9750466183522235,1.6554090357831166,1.2515215151063708,0.998410756487542,1.0288504142654176,0.8980645155625089,1.498281306642444,3.14648211688423
1569406090933900.0,1.9689934022054025,1.6363261519524448,1.2554245668406951,1.0079853145419713,1.0316925467326252,0.8977498482011844,1.490950973186548,3.1109156463749503
1569406090933900.0,1.9650620560876704,1.61581555729637,1.256945700456952,1.0160326226807759,1.0328261759576938,0.8979791295243836,1.4842402346954773,3.075863994005021
1569406090942875.0,1.9659483080696125,1.5994205287561478,1.255982091867624,1.0244371899908702,1.0302597858966789,0.8958242805457224,1.4822984826270929,3.0320399221338232
1569406090942875.0,1.9684201131741252,1.5834677897250191,1.253700517747826,1.0379156122316382,1.027767118980847,0.8913119571981318,1.4768377821943834,2.9940604030931284
1569406090957835.0,1.9757596661574677,1.571461693480679,1.2523367493914652,1.0533366072073176,1.0258691088429812,0.8884768330012305,1.474088634408753,2.956424507567674
1569406090957835.0,1.9859927729719113,1.559505130158817,1.2536137803217278,1.068043948775378,1.0254609833602717,0.8881599704054512,1.4713653302983016,2.925177467693895
1569406090958869.0,2.0032253262263673,1.5515826132451753,1.2526697833933145,1.0773244313424497,1.024111998948274,0.8893789187916631,1.474212905199724,2.890518580761473
1569406090958869.0,2.02416355766807,1.5424829376461604,1.249519811517369,1.0849168525347817,1.0233560758016462,0.8899796308665532,1.4766203231749573,2.8606400238548075
1569406090970799.0,2.051715626913956,1.5356781508704795,1.2458399517725196,1.0885922199675246,1.0243240913676315,0.8871587253467086,1.484487893554669,2.831580991563697
1569406090970799.0,2.0787216224753884,1.5267220071626102,1.2450356173933645,1.0911079535118196,1.0286533928923907,0.880929938764532,1.490328887807483,2.813108000803258
1569406090979781.0,2.1040621331048475,1.5197175168505386,1.2476551255619992,1.0930986136697773,1.0323653038058414,0.8724451039241111,1.4926828819457227,2.7981366752654053
1569406090979781.0,2.1297512443039484,1.512335459750455,1.2537817350696716,1.097508629773931,1.0355590348880332,0.8636641669570061,1.4858255695030402,2.7911546179029307
1569406090994734.0,2.163200222568986,1.5088424267807254,1.2593493701718,1.1010204071030014,1.038857580111706,0.8577160289419763,1.4800197586380486,2.781413122189224
1569406090994734.0,2.2031001404971766,1.5047200402393288,1.2605963868169678,1.106092631754986,1.0445713362750269,0.8553622545943371,1.473902284518478,2.773777363843672
1569406091001716.0,2.25120863673982,1.5031042348015524,1.25734941387505,1.1103875158460228,1.0493413455364202,0.856663459664901,1.472015919525832,2.759190524736493
1569406091001716.0,2.299584418999684,1.4986900587188532,1.254205937288025,1.1156246414589368,1.0515272529022686,0.8602016973191012,1.468325964693397,2.744884758660838
1569406091017675.0,2.3389232866906147,1.4941023994446025,1.2524274571467142,1.1180250276914423,1.0496817351996957,0.8641697848066134,1.4678660623560167,2.724019649359096
1569406091017675.0,2.3596620081322905,1.485023196743898,1.2525266374579767,1.120773313190227,1.0466593563306998,0.8674531240391339,1.460600206897061,2.6998437207149317
1569406091019668.0,2.367625849194163,1.476313654088667,1.2537099168335808,1.123363160777826,1.042112133093827,0.8714855369934122,1.4488268242221913,2.6683471960657346
1569406091019668.0,2.3676817932247323,1.4655502114521928,1.257518152656992,1.1282934835115834,1.0344837863799563,0.8767923745490752,1.4331593940918441,2.6376573031713977
1569406091031637.0,2.3693317490933765,1.457564443293634,1.2618721437500513,1.1298161703786782,1.0200473523790097,0.8825779087774993,1.4226597554222937,2.6043601442908635
1569406091031637.0,2.3742308255541156,1.451042491666091,1.2654983334693746,1.1300671031497023,1.0032099970708834,0.8875993164709004,1.4117078822381937,2.578584803313312
1569406091040612.0,2.3864864198077997,1.4506252307959968,1.2656401091584164,1.1267786873690544,0.9865499830266027,0.8924087877455875,1.4043449043261678,2.5564789028195585
1569406091040612.0,2.4024505392184743,1.4495222659367615,1.2639870115505798,1.124586064398255,0.9726405632414855,0.8977169772919038,1.3949851579797743,2.544559974668617
1569406091054576.0,2.4236969816185754,1.4484607209929186,1.26136210494327,1.1221305035093248,0.9602381448719131,0.9047760077853274,1.386940830079873,2.538167613609269
1569406091054576.0,2.441377835929293,1.4462175380650912,1.2568325758337164,1.1208504350098576,0.9490785831848894,0.9129470380335554,1.3757543799264065,2.5398127317978583
1569406091061557.0,2.4450972773857518,1.4470557639716328,1.2481474367991539,1.1163925976514468,0.9361617599267922,0.9213974237712502,1.3671032238829515,2.5430994594141505
1569406091061557.0,2.429681045290659,1.4432235966298832,1.2380282902820687,1.1114446991076337,0.9227194016421048,0.9268383799637925,1.3575196699860792,2.5543297330794426
1569406091077514.0,2.4047056602542276,1.4376856551565842,1.2283298481060008,1.1034512363472055,0.9091844810258923,0.9294913014293236,1.352681134459866,2.569287777543873
1569406091077514.0,2.3728836043684143,1.4306072901777038,1.2198527443797778,1.096486401478738,0.8984264916397655,0.9323123929843391,1.3458793963280893,2.5905099148000414
1569406091079508.0,2.3420900584629574,1.42586718855029,1.2105230054542166,1.0883720899903175,0.8898498576536474,0.9383926450077182,1.338668861124317,2.6155088779939306
1569406091079508.0,2.3116002431502114,1.4170576231654035,1.2014132045642953,1.082757664031564,0.885249430875558,0.9467422080359705,1.3263266353712266,2.6478506052763477
1569406091091477.0,2.2831877109864545,1.4070101924331555,1.1938123213276872,1.0753738258762382,0.8833185095210594,0.9566818984060799,1.314904265877553,2.685896712407555
1569406091091477.0,2.253286302023866,1.3947805017354005,1.1897922870430626,1.070280416912789,0.8834580011165684,0.9665793558582955,1.3004263662741022,2.7305580575043886
1569406091100452.0,2.2268641483841556,1.3860249567180478,1.1871048458855376,1.0637755435326055,0.8830878784930599,0.9751690339586759,1.286638660550227,2.771630591129423
1569406091100452.0,2.2016194526590644,1.3787259693032632,1.1859452624131799,1.057412306061029,0.882876625453596,0.9825118670167097,1.2710176097835897,2.81179563814348
1569406091114415.0,2.1778019268316924,1.3767398579622112,1.186973228308654,1.0496214083586963,0.8815371599875083,0.9912622395872848,1.2592690549249204,2.8560100046316887
1569406091114415.0,2.154265154663463,1.3764143012930548,1.189955211755625,1.0447030557074188,0.8797738307152128,1.002569487115244,1.2481067492376254,2.9075652280686786
1569406091121428.0,2.1371392065372175,1.3811911468668328,1.1913777656349684,1.0409382504131528,0.8770143164757022,1.0162626449703138,1.24009189542274,2.962810077006332
1569406091121428.0,2.1239264901946067,1.3856064668079402,1.192714560484872,1.0410641804774132,0.8763792000334183,1.028672665729762,1.229618935204316,3.0228201098316934
1569406091137355.0,2.117927159529893,1.3899665957838359,1.1959261870434008,1.040013267391211,0.8779351211401285,1.0389384771968913,1.2220612389977208,3.0850426379757194
1569406091137355.0,2.116922106007143,1.3912769770541529,1.200835694182993,1.0412671262656883,0.8811320645984999,1.047874700857024,1.2144673558476777,3.150581336677459
1569406091139350.0,2.1214379424287455,1.3947467731014178,1.2049604353237893,1.0424086171674163,0.8837160149238602,1.055834988719558,1.2093426512723648,3.212242414771447
1569406091139350.0,2.1258474696364327,1.3990308492738541,1.2107071163240133,1.0451339916165412,0.8863496419084068,1.061552844707575,1.2030761102284584,3.2677726377612646
1569406091151318.0,2.1295953818704514,1.4061294212024003,1.2184691290415735,1.0466265182981962,0.8880113610354171,1.0656679414848225,1.1996852177900332,3.321152544262061
1569406091151318.0,2.1292060905377057,1.4090942782448048,1.2275924319435894,1.0494397325251017,0.8894847542818295,1.067898743446073,1.1974046715732742,3.378399581405604
1569406091160292.0,2.131620072372998,1.4088701598381677,1.2364151202495341,1.0508628820772488,0.8897863007698625,1.0697050516916047,1.1994796049462424,3.440549990371723
1569406091160292.0,2.135963664806082,1.4045470533659858,1.244231141294014,1.0541440790071273,0.8895508673150424,1.0704441839375995,1.2033964770768137,3.5121227316532306
1569406091174255.0,2.1401295861106857,1.4027646799150157,1.2464039216360292,1.0589466744699876,0.8885145219746406,1.0686971540145727,1.211942340044413,3.588277110484636
1569406091174255.0,2.1435671153361424,1.4011692247939838,1.24313624007069,1.069340873397838,0.8895705555105535,1.065521826768406,1.2231388953461806,3.660716533185999
1569406091181338.0,2.150656701634325,1.3996325511927334,1.2370408689739405,1.0818901502529286,0.8939979441131024,1.0640418884102114,1.2367595121697676,3.71902572812601
1569406091181338.0,2.1526253318128923,1.3912964847422067,1.2305499534579345,1.0949409896842717,0.8999593356688345,1.0634549735616114,1.2481954910322999,3.760679506732912
1569406091198226.0,2.148006197070229,1.3792864438461716,1.2233739815688571,1.1044896030013853,0.9013962627877781,1.0620650228292738,1.2587205679157274,3.7778303156136404
1569406091198226.0,2.140008966836975,1.3627906445822413,1.2156362989665368,1.1143874110828995,0.9013641211438009,1.058757001889396,1.2618727890529389,3.77291178040411
1569406091199188.0,2.135037420703423,1.3464033272533389,1.205863684167119,1.1235352823890885,0.9029804956578767,1.0540193567332983,1.2593916674518955,3.7593017408377003
1569406091199188.0,2.1322422890952106,1.3279606942668014,1.1958922221132222,1.1353555483540865,0.9058557313887737,1.0486832579780918,1.252719878162577,3.7495489880978914
1569406091211156.0,2.132492934148009,1.3122927256431953,1.184056349353377,1.1483969993302285,0.9079834099287742,1.0449142742297404,1.2460087423765682,3.742312448069973
1569406091211156.0,2.132869636893872,1.2975282535210966,1.1711609763038597,1.1617500973203145,0.9099735767196836,1.0421662140964933,1.2393696315612404,3.740668383452914
1569406091220132.0,2.1395557858909156,1.2872790170983999,1.157849054107418,1.168659484128069,0.9108698189883583,1.0407548830253133,1.236364538494317,3.741397895689259
1569406091220132.0,2.153491103938719,1.2772736288032915,1.143821166005914,1.170251549537097,0.9121762334711051,1.0411099787363878,1.2335941868682934,3.7500700493710726
1569406091234127.0,2.169859164508918,1.2688399762187004,1.1293531772151821,1.1668878864543306,0.9145785534936851,1.041205198680905,1.2306085674995295,3.765835019967127
1569406091234127.0,2.1778458909129745,1.2586414676605404,1.1174622806544785,1.1645478923955395,0.9173611166557696,1.0370105028550713,1.226296808988152,3.7868075210441563
1569406091241076.0,2.1834821153365596,1.252016532754307,1.106265695072647,1.159892872620711,0.9179751901725857,1.0285384129951987,1.2242721108761996,3.8115059154097186
1569406091241076.0,2.1901437544817792,1.2467746771809922,1.0951563806963558,1.1562348345127649,0.9196669539490536,1.01982322915226,1.225309669742514,3.8437157765952277
1569406091258030.0,2.194022165466849,1.2415897131353884,1.0827398767946084,1.1523159115885047,0.9235171874525656,1.0147644442787673,1.2313866155036228,3.868424780495239
1569406091258030.0,2.1885457675500968,1.2313697738110394,1.0700183069728544,1.1491598233331202,0.929804283701664,1.0125891054419902,1.237455595405602,3.869840034065547
1569406091259029.0,2.1785929743786117,1.220606982149655,1.058183476490646,1.1441470557159008,0.9362662338898236,1.012437692320704,1.2421951962291593,3.844857643323311
1569406091259029.0,2.1664035318685797,1.20875366746785,1.0492773340956398,1.1425136216839131,0.9410428895531538,1.0128670801357436,1.247288608328052,3.8115162852343754
1569406091271025.0,2.1558336870720525,1.2000387862827933,1.0409906535578142,1.1410673261933437,0.9447483004181387,1.0132385268268658,1.2560433159920696,3.7757447136448086
1569406091271025.0,2.1448805822906483,1.190939369373749,1.033143577514687,1.1417743901135509,0.9495386789335716,1.0121920259712822,1.2648911291725473,3.745098449150409
1569406091279972.0,2.1325525126144953,1.184679218774257,1.0266944194057972,1.1419068769851086,0.9540368349006086,1.0084471089743217,1.2704084726693758,3.721307083249061
1569406091279972.0,2.114966364028212,1.180210173614206,1.0244531605457299,1.143155776494098,0.9579118354214906,1.004172621154902,1.2734585947432522,3.70529959017246
1569406091294935.0,2.098843224954893,1.1813293934163591,1.0253392676738777,1.1380805257836086,0.9600710892013706,1.002437558392814,1.2788000297415447,3.69061649989585
1569406091294935.0,2.0870143699555737,1.1858042641313247,1.0260779810037561,1.128401191934072,0.962168424255233,1.0025273678015014,1.2870658685466898,3.684613114121187
1569406091300917.0,2.081418907622731,1.1950650855575728,1.0238379710870809,1.1158520741196032,0.9636676624179429,1.0036735571644342,1.2979583613088927,3.6811702138563542
1569406091300917.0,2.0821594865834863,1.2046953958714433,1.022512473002586,1.1076989016560013,0.9655616286629992,1.0047529934964383,1.3080748772574704,3.6718214996997944
1569406091316873.0,2.0901455940581073,1.2152175232433728,1.0240539124529247,1.1011785708146768,0.9655700278769882,1.00831210445073,1.3157634610371756,3.6562360088360686
1569406091316873.0,2.0959094160210086,1.2245803920376377,1.0274341891118366,1.09702088049274,0.9617647218938852,1.0143481765476674,1.3205880155115532,3.637477411903701
1569406091323854.0,2.0964436530724675,1.2348606607567427,1.0285685922551286,1.0902089974399636,0.9531285028398937,1.021075386987359,1.3228904743837302,3.605878049624129
1569406091323854.0,2.0935356106395138,1.2416028896835933,1.026649658693268,1.0856446534813808,0.9425127699695237,1.0272872202986558,1.322304330126412,3.5745792060420123
1569406091330874.0,2.0921434522211944,1.2483106265471526,1.0222301125075808,1.079869950681231,0.9322373626985027,1.0335407197227517,1.319093746914093,3.5504963093403794
1569406091330874.0,2.0919624191546484,1.2532451307587054,1.0170699033001795,1.074410848201189,0.9247875438245197,1.0394323760304416,1.3159297836785249,3.5334393780009483
1569406091339812.0,2.0969182487183566,1.2584990834909664,1.0104763459566695,1.0677507625095266,0.9199628555817836,1.0453789511122566,1.316154438994723,3.5194378986937545
1569406091339812.0,2.1065329882262382,1.2623007200417131,1.00361229045772,1.0636647083229263,0.9190356646146891,1.0499282735975621,1.3197295988059912,3.51131011007829
1569406091354775.0,2.1217038099691123,1.264931662834708,0.9980412834081999,1.0580547199842514,0.9209714326554456,1.053047316845628,1.326740428948668,3.5005314612817244
1569406091354775.0,2.140579640829524,1.2631146960351576,0.9956995954998217,1.0538767634925497,0.9247375360442123,1.0567417830631454,1.3362229598530195,3.486753768967859
1569406091360757.0,2.1626894074719587,1.2616342774452745,0.9938247416552026,1.0479544288803406,0.9284808091618547,1.0640481266209743,1.3470334995082205,3.4735083654676626
1569406091360757.0,2.1857794329268345,1.2600672844436174,0.9900385466880557,1.0433249048628102,0.9318946568209366,1.0737252691880557,1.3583684302460775,3.4660498674703866
1569406091376713.0,2.2092838433038358,1.2616564464710986,0.9844869588578904,1.0367041945238566,0.9328450369047292,1.0840918631257672,1.369009876288123,3.4580225068364023
1569406091376713.0,2.2293604019472197,1.2643924783820568,0.9800040049154437,1.0319044346090194,0.9324434097445413,1.093909826533975,1.3803317256963583,3.4520413626298794
1569406091383696.0,2.2493191082951,1.2684483846260088,0.9764886339733707,1.0272756669633807,0.9309943153457695,1.1037701343127555,1.3929040447742982,3.449944460844763
1569406091383696.0,2.2727283720945257,1.2679827869202183,0.9748103646197783,1.0255619075490108,0.9292944328333389,1.1131305334384416,1.4050715818185002,3.454648963140333
1569406091391673.0,2.2996043856742987,1.2658771902772534,0.9736807976334694,1.0219854665637527,0.9265023723746602,1.1213467650372726,1.41354754273189,3.4595725636338663
1569406091391673.0,2.320944928687104,1.2634498107137166,0.9730994957144714,1.0169929880196953,0.9242286852976449,1.126304356085112,1.4189601239604082,3.4599681626639835
1569406091400650.0,2.334948247444665,1.2634872930556924,0.9745456654329608,1.0070533780092392,0.922333929171058,1.1290024327636996,1.4219367038080868,3.4470659901973435
1569406091400650.0,2.345510788512432,1.2628225806781874,0.9794771395965147,0.9985424416112766,0.9197479330137327,1.129977529513268,1.4240128421155653,3.4304545671650493
1569406091414613.0,2.3569242416749074,1.263815305406354,0.9858343291012615,0.9914058050826373,0.9141545154712796,1.1287016757915769,1.4267433876870987,3.4200844448263754
1569406091414613.0,2.364660343767079,1.2636752984470303,0.9928189713495688,0.98849402275012,0.906344150564632,1.1252282403722538,1.4325942723143645,3.4188042884040386
1569406091421595.0,2.366626729420003,1.2631095210090728,0.9998722434437215,0.9859569664100519,0.898120191685202,1.1220239387135338,1.4418191647697505,3.4179163658588645
1569406091421595.0,2.3661972737800685,1.2599127148886147,1.006454708652459,0.9875799618127287,0.8930340927154458,1.1195174495702938,1.4528072486955645,3.417850232860711
1569406091436553.0,2.370141654877245,1.2573749880640934,1.0113954368787696,0.99151894413428,0.8894323858149554,1.1190430707419694,1.461008922611346,3.4159054252808154
1569406091436553.0,2.3735693516681327,1.2535318233360977,1.0178374339932028,0.9981184153480234,0.8856424695924792,1.120900795644932,1.4664471527687095,3.4085250988305456
1569406091443595.0,2.3748191101995557,1.2507067661855413,1.02737675486025,1.0022425618670148,0.881445074955844,1.1252531931396426,1.471547750435727,3.3950090410038043
1569406091443595.0,2.3746680539834832,1.2469231912322483,1.0391939249859117,1.0062131653409347,0.8785292596699009,1.131374958491029,1.4777620613640616,3.3833118308179397
1569406091451514.0,2.370986366659923,1.2438908330043255,1.0512074348424891,1.0061464772237465,0.8775343298535312,1.1375189877988519,1.481382912036152,3.372999375221544
1569406091451514.0,2.3594168045213313,1.2376380799134585,1.0608518888403962,1.0048440596748496,0.8788531661191807,1.1428047808364947,1.4824689385165293,3.367995935041624
1569406091460493.0,2.3461674662534397,1.231146378319682,1.0656857210762134,1.0018480889471375,0.8797039642391252,1.1495614524074027,1.483446758745462,3.369027554146656
1569406091460493.0,2.332513097995037,1.2243937552689699,1.0674158162716916,0.9984819892372914,0.8813251510479478,1.1558848894859408,1.4878442243861143,3.3802883688713012
1569406091474520.0,2.3206707048189283,1.2174608029934852,1.0665071390728447,0.9900643670529933,0.8837173990569527,1.1595377678802747,1.4934935802938958,3.4012646429407565
1569406091474520.0,2.31271769606187,1.2059681621440803,1.0641674650654336,0.9805527877485205,0.8847272743375961,1.1608744596575047,1.4972949423897037,3.429036216707388
1569406091481473.0,2.31131888972249,1.1941678477831483,1.0611857009929258,0.9688877352123997,0.8817880608933863,1.1632609723700555,1.4987849856883915,3.4582047091587405
1569406091481473.0,2.3140910093638953,1.1813352818267888,1.0573918798883752,0.9602871785180325,0.8768609575620551,1.1657712943082579,1.5007169787269492,3.486183594972924
1569406091497390.0,2.32012416439467,1.1709822998404413,1.0509154849595181,0.9521423392336598,0.8702692744719308,1.1670962449593185,1.5001323910275983,3.505247460753456
1569406091497390.0,2.323264828183871,1.1624736655065158,1.0424695119365992,0.9441508259350233,0.8634720394886246,1.169168039776019,1.4973302467303522,3.5173740778361564
1569406091503411.0,2.3203361583086393,1.1561382096822261,1.0332299083152348,0.9334281589855573,0.8569372150421296,1.1738427679879442,1.4945601600314484,3.5292848190994093
1569406091503411.0,2.3111420116353654,1.1474323475001005,1.0258287092712868,0.924814386478613,0.852474224219934,1.1792799865505526,1.4945820136512877,3.542043754022571
1569406091520330.0,2.30146399134889,1.1397280046612177,1.0215795187131989,0.915981794084914,0.850061415029077,1.1828000608223834,1.4961279730041255,3.5502817300857705
1569406091520330.0,2.2936300428227607,1.1319150866658876,1.0208349359343263,0.9098424655023956,0.8495493665388206,1.181697361271595,1.4981458189346846,3.556648077983105
1569406091521327.0,2.290010155636253,1.1243674326524797,1.0214905936169827,0.9030995040781844,0.8496216914137437,1.1780203371672455,1.4979700400133107,3.5630064890623308
1569406091521327.0,2.2878617256361014,1.1134247990828103,1.0228568598574452,0.8969936939612542,0.848712724416715,1.1753320365442361,1.500327401901652,3.572506176826497
1569406091534321.0,2.28752485795721,1.1032301468598127,1.023620420055686,0.8895628710671935,0.8456748654901459,1.174369532568762,1.5075875816776514,3.588350531962319
1569406091534321.0,2.285903641465653,1.0941571288595646,1.0218276248237672,0.8844283073185442,0.8417882989126726,1.1736692155741604,1.5203623993228639,3.6122827481551676
1569406091541273.0,2.2821832033136515,1.0872574194260118,1.0168873971825005,0.8794302696457464,0.837393047969372,1.1723678058376021,1.5339430133597622,3.640479527008093
1569406091541273.0,2.279413360341329,1.0791022224311249,1.012071717181945,0.8771071340431346,0.8342436290834916,1.1673478960162973,1.5492069822581913,3.6778678486740497
1569406091557232.0,2.2825250552421332,1.0710645277974422,1.0074906144121591,0.8744640346727354,0.8310915136410278,1.1583881353438517,1.5653587056890037,3.7266902735887895
1569406091557232.0,2.285766310750129,1.0614001448578574,1.003397067812362,0.8724881798703318,0.8281380311131422,1.147354819809486,1.5817301096281784,3.776314540402762
1569406091563215.0,2.2833152084198134,1.0538809033421712,1.0005117747487788,0.8687493910632084,0.8259784586558966,1.1353522228638362,1.5942227788698242,3.8039654115040094
1569406091563215.0,2.273654954102756,1.0486154193047694,0.9994980730145774,0.8660433289371622,0.8252162273668282,1.1230991318514636,1.6065605344348293,3.8060231039951753
1569406091580170.0,2.2633959830637393,1.0475456377440697,1.0001265556148067,0.8635773227220113,0.825566428579683,1.1115883767401131,1.620916828274361,3.800771590389074
1569406091580170.0,2.2539777658973437,1.0480517890187104,1.0029183840663074,0.8634483332784042,0.8265066758083379,1.099458912871247,1.6393897738024696,3.80035696082036
1569406091582165.0,2.2479688188295506,1.0521802715077497,1.0077522178228586,0.8641130937918723,0.8273565876022058,1.086043634445224,1.6589032331699007,3.7996214912469517
1569406091582165.0,2.244938325245141,1.056984613401826,1.0143189034479396,0.865521605798882,0.830435704343541,1.0722798045201576,1.6812902147708866,3.796627093267954
1569406091594132.0,2.244403806120866,1.0612136598128796,1.0202321223404343,0.864474243310107,0.8368017579821353,1.0603297202595225,1.704214199461469,3.787157609802444
1569406091594132.0,2.243868983008234,1.064088493237125,1.0252378764635044,0.8643308023101058,0.846059011197729,1.0507688639489203,1.7272028720530346,3.7714620420468785
1569406091601113.0,2.246172719015948,1.0687964740429272,1.0309346613843642,0.8638266490225113,0.8569286004526588,1.0436888574562349,1.744717869729663,3.754013919743498
1569406091601113.0,2.2508701676810374,1.0728795849495814,1.038145209502423,0.8642085518817687,0.8697109185378533,1.0386750165679752,1.7579744559635346,3.737282575413517
1569406091617071.0,2.2576780768352895,1.0784701800587981,1.0446861922037,0.8661999827825636,0.8833746213962024,1.0348488590336604,1.768017366677568,3.719936141530119
1569406091617071.0,2.2695572871276086,1.0856400391104788,1.0503754219220618,0.8714607373135167,0.8952522784044153,1.0310268347972942,1.7804731051358897,3.706045930989993
1569406091624088.0,2.2889938519004804,1.095866804189729,1.0570375434674009,0.8779129303799681,0.9028090737072697,1.0276765268396009,1.791634602813794,3.6957607272727744
1569406091624088.0,2.3106111360407655,1.1053340414146597,1.0636267561368318,0.8866498521109889,0.9068918495813266,1.0255944620777022,1.8024687007539808,3.69216228423933
1569406091640011.0,2.334040003599351,1.1116856780222157,1.0662683413712104,0.8957991945044268,0.9090113165049502,1.025947895211327,1.8161935997552257,3.697640819781899
1569406091640011.0,2.358287705397667,1.1125801390710013,1.067226214595288,0.9051653191742064,0.9123481615570785,1.0282303849382155,1.8343232430299998,3.715710119465764
1569406091642005.0,2.3758568199313634,1.112639062856667,1.0705028406674724,0.9138241743541141,0.9190398403979693,1.0326904440701603,1.8519576377418374,3.7413826192105843
1569406091642005.0,2.3801458664822066,1.1132896293911436,1.0772077737497643,0.9234901582827907,0.928670568635416,1.0388179407417049,1.8720979021289224,3.765354905786735
1569406091653974.0,2.38144421008491,1.1159710903027527,1.085410282421455,0.9346169523739123,0.9401749778436248,1.0467797861546553,1.8900123403257378,3.785422020870255
1569406091653974.0,2.3837814745821846,1.1172745699970144,1.0942766531328776,0.9460189218589392,0.9519542987648009,1.0548915513859853,1.9036055362908666,3.8012951136371558
1569406091660956.0,2.381833486053641,1.1186810536933076,1.1034909328952696,0.9558889390246265,0.9616645127942678,1.061770050412391,1.9127235863622416,3.8108566459787383
1569406091660956.0,2.371808452040787,1.1212278364908996,1.1132833098154444,0.9677196044924651,0.970412752721719,1.0674914924108603,1.9257060354107083,3.8215234464994903
1569406091676912.0,2.3596556340781585,1.1260951604498943,1.1243596376215503,0.9832150399671802,0.9770788636098122,1.0734382135837033,1.9430560057549757,3.837126434123099
1569406091676912.0,2.3485493394437156,1.131095706071187,1.138485132557944,1.002147297964112,0.9815548506600048,1.079121232747235,1.9632863745410476,3.855045778469846
1569406091683932.0,2.3345165475899754,1.1367019535130893,1.1531266661288964,1.0212438728371664,0.9865057089254375,1.0847825134584888,1.9776271298109245,3.8617929149694414
1569406091683932.0,2.31212920825424,1.14034114154475,1.1653279393706963,1.0380969123928587,0.9934573676457223,1.0880923692890376,1.9876194881071463,3.8546722502273734
1569406091699851.0,2.289846005349505,1.1428634147931438,1.1746654270736052,1.0502073855597458,1.0014694082504052,1.0903598967395047,1.9991913326370814,3.848363858608202
1569406091699851.0,2.2731792621472775,1.1434138257427737,1.1793052015611305,1.057965332371445,1.0088447357005468,1.0949231343400567,2.0177858523691694,3.850327135094696
1569406091701844.0,2.2626615163503563,1.14558357554859,1.17885797332725,1.0625685288001212,1.0151396597668154,1.1009408288144722,2.0388438556655104,3.856434966612797
1569406091701844.0,2.2555819400202344,1.147163088919016,1.177400998906011,1.0656790863093626,1.0216681271385546,1.1029582119982395,2.058181998455264,3.8633138748905513
1569406091714811.0,2.253187509258793,1.1466119657945752,1.1750707596527052,1.0674640611628075,1.0273063451369138,1.099820269910988,2.072038811217093,3.8691360315289227
1569406091714811.0,2.2535538545110767,1.143846118880527,1.1720761773967363,1.069774366950788,1.0320959132464431,1.095130832647823,2.0897261116052497,3.8822829905479117
1569406091720832.0,2.2506456721606356,1.1411008995767815,1.1681835145317143,1.071868181912236,1.0378264053882014,1.0928442723067753,2.11377618516103,3.906824820872892
1569406091720832.0,2.241419431796754,1.1391946659984213,1.163457295360332,1.0747350587781073,1.0442394157270398,1.0920004872453346,2.1445742672388572,3.941407878142059
1569406091736751.0,2.231348198601499,1.1397486168138633,1.1585288393537645,1.0756738814356634,1.0490911804398004,1.0932449968943327,2.1763044549881063,3.986862789833667
1569406091736751.0,2.2208874280801445,1.138033240232497,1.1536624386316594,1.073237753114657,1.0516333489315906,1.097874000833338,2.207113924490808,4.042750082539986
1569406091743775.0,2.2111462977498215,1.137248218927044,1.1503552532983965,1.0688757294163413,1.0501747797914238,1.1055742791952476,2.2319550200829514,4.10125452313637
1569406091743775.0,2.201278138480348,1.1384511410399245,1.1508630119228445,1.0676960632159551,1.0463975138588155,1.1137565028416683,2.253408095387598,4.151078796799408
1569406091759691.0,2.191337635122754,1.1402982277155804,1.1528299709612069,1.0693035728838804,1.0428729117038664,1.1223677546805781,2.274045107936615,4.18418237396044
1569406091759691.0,2.179763860350008,1.1409981508292621,1.152504306614867,1.0718887180625245,1.0413755046123483,1.1322979220572824,2.2978812400503257,4.201576209021785
1569406091761685.0,2.1715919958816805,1.1419895347268119,1.1474275737098414,1.0731856628629453,1.0409246946785542,1.1457787689510945,2.3218173086783227,4.213499819362477
1569406091761685.0,2.164306617509136,1.1409606742674547,1.1390485669522945,1.076006150288597,1.0409227567723762,1.162405690616432,2.33894551420887,4.222952376113606
1569406091774649.0,2.1528623749564124,1.138930566990468,1.1285269240927498,1.0806540723270532,1.0410423926657864,1.1799447082137948,2.3396199869340935,4.2175324466619974
1569406091774649.0,2.1392698391121012,1.133576250006244,1.1190994047906506,1.0874046523863001,1.0409432578904447,1.1953093337628782,2.3343550573979184,4.199547391059135
1569406091781631.0,2.1267026662129096,1.1251938704861786,1.1124462202656509,1.092443807978528,1.0381990063336186,1.2086950573424504,2.3305113050098862,4.179830063337904
1569406091781631.0,2.1153566496981813,1.1138409776256988,1.1065555310080666,1.0952839507047714,1.0316151105215088,1.220101659348125,2.3297591527284376,4.165154399096924
1569406091796591.0,2.107437721997347,1.1025317581505123,1.0992389199838912,1.0977078822712873,1.0217936292817706,1.231215408024252,2.3334120517055266,4.156345090999376
1569406091796591.0,2.1014129914007986,1.0923990473246716,1.0935075302876658,1.1020828138889491,1.013068794245085,1.242253142398236,2.3447203158967476,4.151089525804353
1569406091803600.0,2.0979475534597776,1.0856246675501322,1.0900236810438488,1.1056333415307444,1.0059167487564025,1.2522361196225817,2.3579780610692698,4.153656487660015
1569406091803600.0,2.0973417447713856,1.079390762237077,1.0862206316751641,1.1083070783951887,0.9987943024978669,1.2581552131120408,2.3680620103772037,4.16738794975882
1569406091827552.0,2.102532364058953,1.0742312833595016,1.0809523457608916,1.107974550561472,0.9920744442866636,1.2612744516446934,2.3738463427190317,4.181210228385012
1569406091827552.0,2.112562587839993,1.0709881579119664,1.076166329061197,1.1052592944763477,0.985715763482088,1.261901745651789,2.3786118459096346,4.190139631742461
1569406091829559.0,2.124110842097918,1.0723895022621655,1.0736954807524342,1.1017173242936056,0.9769052871639299,1.2576902019348786,2.3783211255103667,4.199284685320021
1569406091829559.0,2.1332539514324633,1.077174322348056,1.0754712324479034,1.1007865598990012,0.9664470446649398,1.2492499204890317,2.3772864921467654,4.213456911083586
1569406091834528.0,2.1418424955657756,1.0844905015466932,1.0808013379502048,1.1007025464966351,0.9547024640105897,1.2400053040120347,2.3788051070056926,4.231553274693552
1569406091834528.0,2.1556064757455125,1.092083195783383,1.0891436392131546,1.1015923099584255,0.9428423430158568,1.2313674256147236,2.38451957155442,4.249655833258354
1569406091841471.0,2.1756407696064843,1.101547010769421,1.0995833321848896,1.1022963445797405,0.9324153722836055,1.225329875662633,2.391763831235435,4.2544310666884355
1569406091841471.0,2.197669281840532,1.1134423360152723,1.1094293666247912,1.1039783598484039,0.9253357869195817,1.2219155405783697,2.400031509211036,4.2421802176140355
1569406091856470.0,2.2228056792051767,1.127218137412476,1.11768422401351,1.1055506145291023,0.9216560310220403,1.21904727217735,2.409569546926354,4.226363108495492
1569406091856470.0,2.2539299534095973,1.1388140352179863,1.1267050016938478,1.1082819016873846,0.9212511254484724,1.2147944033148625,2.4264093184547475,4.214082891787662
1569406091863413.0,2.2926170344807564,1.1493393719469276,1.1356638754982118,1.1103155770791528,0.9218227531752049,1.2107396665657593,2.449525169982111,4.203841983090948
1569406091863413.0,2.335091786472795,1.1593342056458935,1.143950516761161,1.1098927028446228,0.9224097184421652,1.2074599149532912,2.470406345220409,4.199426692138503
1569406091880369.0,2.3718845308485172,1.1675964133539882,1.1495045022870252,1.1041337835614886,0.9232720761728952,1.2060835071576947,2.4815495744426146,4.1967563985862215
1569406091880369.0,2.3955983456005736,1.1737483681733631,1.1499798037461064,1.0957091721478027,0.9269466192549372,1.2058531533159786,2.4863700720607125,4.189161021587933
1569406091881365.0,2.409874001057578,1.1807686863523927,1.1460224225935525,1.0850412537654939,0.9327387064877881,1.205007449352694,2.4843764862554987,4.1793245757321005
1569406091881365.0,2.4212897329161565,1.187348729419799,1.1407050670190133,1.0753967626373606,0.9379539547434365,1.202448815387561,2.483437661010867,4.178947306342997
1569406091894330.0,2.43318779368863,1.193110367306779,1.1349904971691616,1.066639017978334,0.9417468892950857,1.1976371117886955,2.4881714337931804,4.185484799267284
1569406091894330.0,2.4485357286192504,1.1982183361756433,1.1293613400282323,1.0612365237918813,0.9463615428323573,1.1906691903560749,2.4958247029453435,4.186386304656522
1569406091901313.0,2.4651407496611526,1.2030083970511718,1.1234600525849894,1.0583493903628092,0.9520340208382829,1.1837077132528255,2.5033733927819357,4.182403359936458
1569406091901313.0,2.47758733679364,1.2034592132744562,1.1185916691448607,1.0583158922714304,0.9552905524278988,1.1751375705464662,2.5088138236221145,4.18292851959721
1569406091917269.0,2.4909505960595197,1.2003257199563253,1.1149954664973978,1.0600606704607318,0.9537892476950072,1.163628252756364,2.5080642571953247,4.190884687298812
1569406091917269.0,2.5036172527981355,1.1955971650054265,1.1112570087087377,1.0638235670462624,0.9522173014380181,1.1512414139615612,2.507051156014527,4.206954624138875
1569406091923253.0,2.507628533988286,1.1905315846534548,1.1056365386516005,1.0684347468151458,0.9539466677392582,1.1399333653808896,2.5095413939103546,4.225041955872443
1569406091923253.0,2.507755984163259,1.183016435705305,1.0989689624437906,1.0751795642522617,0.9580882311113852,1.1292918398044627,2.5202511972979837,4.2412922647713245
1569406091940208.0,2.511627572758022,1.1753224197602217,1.0921870378755867,1.081147708004256,0.9613081907049653,1.1204148164641194,2.540211809693124,4.259391222116867
1569406091940208.0,2.516441544903389,1.1690226781172524,1.083841006023651,1.0862243671085368,0.9635823231221501,1.1116033471663915,2.569449322236899,4.278735529002911
1569406091941204.0,2.5193752966269773,1.1643718823393894,1.072608493039048,1.0882221136561718,0.964654913582508,1.100516579913017,2.600722218244474,4.29809787779776
1569406091941204.0,2.5217694535859523,1.160380392304553,1.0615533292711563,1.0886342497532544,0.963648394190289,1.089494594653664,2.623865018127091,4.325675595257405
1569406091955209.0,2.5280610483316712,1.1589682210435392,1.050948137466773,1.0904053506995113,0.9608074962084316,1.0814814911275776,2.6363066392200474,4.361628193499726
1569406091955209.0,2.537420981907721,1.1595797433566246,1.0399730734971009,1.095327595257543,0.9583548068527169,1.0758521360032487,2.6490465398078094,4.392350944942919
1569406091961193.0,2.5461286052082555,1.1640866612093375,1.0288648318129396,1.0985935490084422,0.9572124813462911,1.0727088622112053,2.6681203789576466,4.408742648899108
1569406091961193.0,2.5565274177714485,1.1725258071284548,1.019968260907673,1.0997182409364759,0.9579117169162287,1.0706070995342767,2.6952834036696527,4.421664448982568
1569406091977109.0,2.5733130759709577,1.1820817713737422,1.014516984827264,1.0993343930917225,0.9604080191465915,1.070175634847342,2.7234183326573045,4.445079901738948
1569406091977109.0,2.5938083466162385,1.1884343398044783,1.0133226704294107,1.1005358167656296,0.9633376898931273,1.0727593111792486,2.7392982789589513,4.481271017930916
1569406091984090.0,2.6125756251740633,1.1935107064988648,1.0156969778321687,1.103721252081314,0.9640149586172103,1.0769504037998643,2.739692423417874,4.524380390002675
1569406091984090.0,2.6251427829207485,1.1988227687310684,1.0190555840242952,1.1075648827504898,0.9642274800812579,1.0796341987294964,2.736923684786055,4.567602926974031
1569406092000082.0,2.6314898674747726,1.2052948167500328,1.0214782970553877,1.1066984156098085,0.9659365210093032,1.0818283806955276,2.7353929674968382,4.60911485394884
1569406092000082.0,2.6320341592316505,1.2116310573906126,1.0249795472030176,1.1024508146523964,0.9688757776909551,1.0842385255091684,2.7353689976751574,4.646118742195212
1569406092002042.0,2.627711297534049,1.2154095025024676,1.0296855299153467,1.0954709974999537,0.9707342937596494,1.088371664437874,2.7361150854038145,4.680731720153929
1569406092002042.0,2.6227085515666873,1.2150327201853106,1.0348129144803024,1.0877056912754164,0.9713096703260586,1.0952142639392142,2.73896140098372,4.721002667661217
1569406092014010.0,2.6226643659567523,1.2156936496643285,1.0400603102394252,1.0799689104959573,0.9731221291529152,1.1023243764646993,2.7382124751362453,4.769070096020976
1569406092014010.0,2.62779377950913,1.2195884731089348,1.0456224608935107,1.0736872398647415,0.9780771356270315,1.1071177144198652,2.7310708280731046,4.818245348617591
1569406092028970.0,2.635752589990299,1.22578590042922,1.0512978202726946,1.0675707689021305,0.9843251992136733,1.1124646130732871,2.7232679485228672,4.863777007304995
1569406092028970.0,2.645051518118783,1.232594844745077,1.057224089557295,1.0647459539836983,0.990217145179233,1.117277286341402,2.720755465918492,4.913771628804727
1569406092036987.0,2.6582287761870402,1.2415219109594129,1.0642000879792923,1.0655737494644346,0.9942751985460272,1.120580778685168,2.7216698961995376,4.9754394623479445
1569406092036987.0,2.6714880915803585,1.2524040897708493,1.0727028784841652,1.0705124351486768,0.9966489199201092,1.1242708563074861,2.7233057187990624,5.035714738169986
1569406092043931.0,2.6797715400826343,1.2638198383427601,1.0815590704480418,1.0767241773516338,0.9968554477359385,1.1280997862302775,2.7173652938818442,5.080116045099116
1569406092043931.0,2.6872306553598007,1.27603176864286,1.09196843621731,1.0841490880720372,0.9960063496288948,1.1303579415374536,2.694993528035442,5.112048272010105
1569406092060885.0,2.694783649661432,1.2899610385761215,1.1032195873675992,1.0900192901733843,0.994946293361012,1.1349725917816174,2.6652108447823646,5.124535978871445
1569406092060885.0,2.6976487468010855,1.3030125135477095,1.1124826156963952,1.0918968807575833,0.9934185051946501,1.1422931291667489,2.640734388893966,5.117789232889584
1569406092061882.0,2.702594762691252,1.317456061799061,1.1191315825305,1.0900194154138627,0.9890800757285418,1.1503114632509868,2.6239473741644024,5.108408288401211
1569406092061882.0,2.7140117104325707,1.334261595776213,1.1252547668581068,1.0901993671760928,0.9808742322090901,1.1577607939611954,2.6149323383337655,5.1020427308538885
1569406092073880.0,2.728790182896255,1.3533513815855545,1.1310865326876174,1.0940938790836052,0.967712457987029,1.1641663707631165,2.612326276877601,5.10114533673259
1569406092073880.0,2.7455797172828533,1.3738825418713585,1.1339674060966667,1.1021507870772285,0.9509592414182972,1.168643568701947,2.6174015096965664,5.108858821130659
1569406092082832.0,2.7631616440180125,1.3912662877330462,1.1319372848521485,1.1108811748141378,0.9338047750856558,1.17312818917147,2.6305804458785222,5.118240929081375
1569406092082832.0,2.7759956601077236,1.3990424962369556,1.1284899111813242,1.1171076945704381,0.9192573205627039,1.1788553937612714,2.650946388652124,5.123597532750296
1569406092096789.0,2.7866700942447706,1.4003556095627963,1.1269114995421914,1.1183064624644825,0.9075293525601441,1.1853761835880123,2.6728891308649216,5.127695767067498
1569406092096789.0,2.8019047745304646,1.3984346358141995,1.1259649089341994,1.1189022399089916,0.8985526733776832,1.1893127787578373,2.691234133295203,5.135317829820816
1569406092103771.0,2.8251905727582116,1.3952469026518008,1.1240939254954017,1.1205220600394354,0.8899890114236555,1.1910839009374348,2.7079161470662703,5.149071919807919
1569406092103771.0,2.8507327336266526,1.3896688338781842,1.1233896260630358,1.1204347814420883,0.8816866211348502,1.191578525347198,2.7220996771202772,5.168982422981278
1569406092119731.0,2.864491715452622,1.3781528123885418,1.1241248806941286,1.1159445403923496,0.8752430030028862,1.1924436020239735,2.7219723915663967,5.179956191973137
1569406092119731.0,2.8592448881626304,1.359703131245663,1.124607665916392,1.1116596234954879,0.8715045536205598,1.1948925398046675,2.7087262586745893,5.176404441875062
1569406092121722.0,2.83953836117431,1.3404995431020181,1.1242922948023288,1.1080005087606775,0.8692044633219883,1.1986730726254926,2.695907319836986,5.161251142177919
1569406092121722.0,2.811321685233896,1.3223634338771544,1.124443616431204,1.1050077523082746,0.8686880126735996,1.2022129816236287,2.6903041187151473,5.140258218399099
1569406092133690.0,2.7837412540751783,1.3069386519406505,1.1239947094804563,1.1016149926211154,0.8687128426256442,1.2049237546588083,2.692418471181499,5.122038823009912
1569406092133690.0,2.7610442050983615,1.2918668938658096,1.1228057591670595,1.0996132055436856,0.8692504068140331,1.2057165130238532,2.7023656588774396,5.11324694677159
1569406092142667.0,2.743659497761453,1.2764566506468356,1.1226343414448412,1.1002278509785692,0.8720894532482055,1.2050914025852062,2.718715243747602,5.114638958862665
1569406092142667.0,2.729073243105708,1.2614630110302303,1.124194635943982,1.1047486752922309,0.8769624751989807,1.2009273875196298,2.739654632993023,5.1278975488398215
1569406092156649.0,2.719618679334403,1.2483826419741664,1.1254868419806923,1.1104784603815372,0.8814004294301937,1.1950843788444918,2.759987367013625,5.152086391018322
1569406092156649.0,2.7174176350207846,1.2353083949764232,1.1255198261539479,1.1179897270867525,0.8873831387447543,1.1922758176532322,2.77938013836421,5.180601753993588
1569406092163642.0,2.7205793683770008,1.222915364361479,1.123904159664223,1.1286138767628986,0.8960855624629397,1.1946044109894265,2.8005959556139635,5.198770457642127
1569406092163642.0,2.7283075310573803,1.2110646233162432,1.1207308996238574,1.1434045082331223,0.9060202290676317,1.2003488257931925,2.8248069211128137,5.212300658840161
1569406092180564.0,2.743707933493013,1.202156830185028,1.1156297571513067,1.1609144188026084,0.9149687045292798,1.2061168193804859,2.8448763963968604,5.233084683494531
1569406092180564.0,2.763233916001068,1.1939817651331037,1.1085811970001505,1.180213585801358,0.9220461214083976,1.2083142541565184,2.8507460210831854,5.257209901321746
1569406092181562.0,2.781449112441016,1.1849537306350868,1.0998906974942662,1.1958532703586788,0.9259405149669777,1.2084451068772937,2.8446149637733686,5.277469282273025
1569406092181562.0,2.7954010872220443,1.174416726251928,1.0926486380682667,1.2062060041904619,0.9264463073060601,1.2071814544933914,2.835270191493845,5.293634714710369
1569406092202530.0,2.8043416717819567,1.1651002140549815,1.0882554537496516,1.211203055717104,0.9260689628595099,1.2051504176325964,2.826389440941648,5.2954524239061245
1569406092202530.0,2.8071618365026008,1.1578324224684668,1.0861987759406804,1.2123604968439599,0.9263524885940824,1.2031381827720622,2.8198464305010136,5.282201353739534
1569406092204501.0,2.8058217935813152,1.1512758633000328,1.0864651777259862,1.2105290181145174,0.9261068040685916,1.2023050223036988,2.8146077669750476,5.254336038192151
1569406092204501.0,2.8033977454555146,1.1406219917358962,1.0875182249407767,1.2075952393565894,0.9264301256234766,1.2021655990173743,2.8096094379710195,5.215049810225941
1569406092216469.0,2.8031564890911977,1.128246432455374,1.0876432954728492,1.2034260159556127,0.9283748339228357,1.204027876229895,2.80880589971719,5.172779815508664
1569406092216469.0,2.801805753979584,1.1175046997116218,1.0898584671029143,1.2000513413030613,0.9305838986596362,1.2069085971254307,2.8121882106625926,5.132956915578617
1569406092223450.0,2.800416553095584,1.11098432472847,1.094607799740237,1.1973691303627976,0.9296805961310566,1.210296553831169,2.815885151228352,5.094618319131239
1569406092223450.0,2.8008533962473394,1.108522508419345,1.1001353699612886,1.198774875831684,0.9252580287468692,1.2138368263025614,2.8208021520014324,5.066288911929725
1569406092240404.0,2.8012863409931126,1.1104365190985417,1.1062271293908514,1.202056629843845,0.9196154836368108,1.217934336413434,2.8290557317906693,5.053184059513715
1569406092240404.0,2.7997269679921355,1.114136269656763,1.1121931565475631,1.2042647815711383,0.9161244499094253,1.2219817586236414,2.838667716171481,5.048554954507363
1569406092242443.0,2.7971203408799448,1.1201276873909136,1.1167956145254487,1.2038150669205545,0.9161211540285605,1.225335673954667,2.8488291246532755,5.033864979881069
1569406092242443.0,2.788870145438062,1.127256463061253,1.119094910386942,1.2017686189546863,0.9174004670138534,1.227115410973614,2.860529849856769,5.00605929863431
1569406092253407.0,2.7733166781510272,1.1320335681099178,1.1184231806693432,1.1965263476122223,0.9162934344923421,1.2290381863691635,2.871353996456085,4.968472004733687
1569406092253407.0,2.752736950070241,1.132718441752251,1.1176697065356875,1.1910494115805605,0.9155557304962039,1.2304602953547827,2.8695513270043267,4.935329745525756
1569406092262387.0,2.729579879577084,1.1334325687328968,1.1180667321733677,1.184288959897195,0.9164430129504751,1.2322256646022665,2.8496795527949823,4.909256218720429
1569406092262387.0,2.705467943927829,1.1371072822644683,1.1188461499779172,1.177068747415351,0.917276439939966,1.2346169220275252,2.8241846368162253,4.88344655989074
1569406092277307.0,2.6854200032402358,1.144495662895213,1.120778353822147,1.1709294364205265,0.9177517334846819,1.237193768193633,2.8024462210556367,4.855731568001136
1569406092277307.0,2.670544382134569,1.149457965750278,1.1242790706554273,1.1687840333453312,0.9171193551673206,1.2411062768758871,2.784210954154917,4.827898112599784
1569406092283291.0,2.661341295054143,1.149385560179912,1.1292171807339029,1.1687920076904774,0.9148716659266823,1.248124541006205,2.7709269821477753,4.797785696905782
1569406092283291.0,2.655389329398694,1.147138577182467,1.1361378597511391,1.1715976033656383,0.9121729175063368,1.256322183866785,2.7633403173744577,4.774129570883368
1569406092307226.0,2.6523443566096354,1.1438905076700456,1.14209900328174,1.1731584271771087,0.9087552194131074,1.2665564804623526,2.7602361067054013,4.7559726881110596
1569406092307226.0,2.6513604851854904,1.1368692798099203,1.1458637176588493,1.1730651532527268,0.9056716032538908,1.2788259693884392,2.755222661684097,4.743054576402824
1569406092309222.0,2.654279859078677,1.1260780563171107,1.148041536402118,1.1718414569812774,0.9048115854346397,1.292270570942872,2.7482154979469198,4.734391799977056
1569406092309222.0,2.6599648296985197,1.1121960593161333,1.1497716815404386,1.1701278486266586,0.9069167216315218,1.3058594525822942,2.743607095187002,4.726986607319842
1569406092314207.0,2.667045201836619,1.0988005137253503,1.1511585110858373,1.165023211612059,0.9090603981300952,1.321548405335335,2.7440536234672193,4.717797851792028
1569406092314207.0,2.6756003971508773,1.086688249266136,1.1503438003812496,1.1604664953050852,0.9092090216427738,1.339995168415778,2.7493403114614727,4.711351314809015
1569406092323184.0,2.6878416258155413,1.0768401834314973,1.1475805271255102,1.1557729020418006,0.9068853399312051,1.359668563999807,2.7601844333591727,4.707240896869517
1569406092323184.0,2.7021724255964186,1.0680069518232744,1.1451857254659707,1.150120043631866,0.9020241387263218,1.378182179508775,2.773835995228897,4.708989478682052
1569406092337147.0,2.7129723964515864,1.0587201666549766,1.1422122621468056,1.1425464586894396,0.8959945212189812,1.394350217289179,2.7783383941177098,4.71121921178404
1569406092337147.0,2.7139695914547235,1.0478616231747724,1.138664613200438,1.1362187931138379,0.8921446546420462,1.4072632667664846,2.7648751674057785,4.710060345706283
1569406092344161.0,2.709645520026828,1.0378115395741387,1.1344766432650182,1.1320492067815964,0.8908191862604135,1.4212113633285044,2.7462476781038787,4.711196450868455
1569406092344161.0,2.6998729935619923,1.0292250526412814,1.128584525346655,1.132207143181727,0.8894299058605146,1.436471590004474,2.7344536240406314,4.71482478966279
1569406092359088.0,2.682326549773317,1.0237847995947031,1.1223934327039222,1.1328640100287313,0.8862964979940771,1.451997389079687,2.7263346830159203,4.7057012576199915
1569406092359088.0,2.6589172447372134,1.0214039264055024,1.1174144606380148,1.1328718210609126,0.8843494857236518,1.4651952270759572,2.714025815315555,4.687228358037497
1569406092366071.0,2.6329403155713034,1.0215474617708196,1.1135561281162931,1.1313461407793945,0.8858133549266863,1.4749097588001603,2.6995461378121455,4.661708929556931
1569406092366071.0,2.6085584473808043,1.0248636017645185,1.111454666622484,1.1314884090546835,0.8893621064949079,1.4842716164393224,2.683274775389299,4.63648443993588
1569406092374051.0,2.5875357593099464,1.030995749803678,1.1081530516497686,1.133514380894818,0.8917890857763503,1.4979137328492882,2.6645661670734837,4.612362726470759
1569406092374051.0,2.5637101079620033,1.0364992804091309,1.1021718783797778,1.1372810427302171,0.8920283405806789,1.5145005385558985,2.6452342823484325,4.589056250945207
1569406092383024.0,2.538673885187,1.0423313843368447,1.09487592176547,1.1392244308095834,0.8896076152253988,1.5310052860882608,2.6299988152402682,4.567248891168887
1569406092383024.0,2.5134441316261382,1.050364306979188,1.0875971214615796,1.141193732789728,0.8863747412902873,1.5457052061104892,2.6207790590200224,4.544721422182011
1569406092397024.0,2.4908384534697556,1.0599496605035033,1.0801211097216892,1.1430918010162436,0.8853091920899907,1.5594435134988769,2.614024534673684,4.517133968341043
1569406092397024.0,2.471728220284059,1.0698540281689934,1.073702262279089,1.1455337060966344,0.8861167553765772,1.572636798437146,2.6025462928228036,4.486076150309046
1569406092403968.0,2.45639778414118,1.0811972475867573,1.067576935011318,1.146070191476104,0.8856117465731672,1.5834826758879217,2.589122081429433,4.447438653897252
1569406092403968.0,2.4444370773433124,1.0949319830650235,1.0595995773079279,1.1458673813236244,0.8836548447644433,1.5831176579072632,2.5771497339213654,4.411393206600262
1569406092418928.0,2.4344038682884928,1.1102771240117841,1.0509577484449606,1.1433455162540693,0.8810044981679834,1.568437818550509,2.5664601969153757,4.3850853051959175
1569406092418928.0,2.4218075799259573,1.1252095395485076,1.0441530431490764,1.1407125178051438,0.8778065609188099,1.5463023448357973,2.5580351376143993,4.365056046612185
1569406092425908.0,2.4074975872641886,1.1368813105110662,1.0383954405420108,1.1367207928073277,0.8747733988973151,1.5250969926392466,2.5569057250185763,4.338350766698434
1569406092425908.0,2.3923329401014373,1.1451039536890988,1.0326716388099144,1.1325689430026142,0.873236977130018,1.5048695869144957,2.561142009242701,4.310611471006208
1569406092442898.0,2.378398022235423,1.1520148884194568,1.0285744962420067,1.1278941057590925,0.8721625570227202,1.4839220563887439,2.567467770942131,4.2875303371603675
1569406092442898.0,2.363994714376862,1.1555777546856068,1.0280310076827628,1.1234083063227107,0.87164419981359,1.465186695763224,2.5741522300508533,4.2687986432795775
1569406092443880.0,2.3504129946328454,1.1557487662579553,1.0264002947607238,1.117252143798799,0.8716708805855228,1.4511221196291928,2.5809003514971516,4.250425242691722
1569406092443880.0,2.3393812614530956,1.1552995930808942,1.0198473969456394,1.1120202712518485,0.8704123430468411,1.4408532026085905,2.585086450787471,4.232989491264315
1569406092456828.0,2.329542347361343,1.1554357966807784,1.0113532933738225,1.105611014656192,0.8674446742722268,1.434310906644682,2.5860601112210677,4.20985910291873
1569406092456828.0,2.316378043430665,1.1560615954382707,1.0044438799435917,1.0972947744973478,0.8638302943620322,1.4306680661322153,2.5848260298446997,4.1752348907560455
1569406092463808.0,2.3014563040926572,1.1573581907630535,0.9983718057329313,1.0854080895769604,0.8603244698573895,1.4267379556527087,2.5850494777196236,4.126169010022702
1569406092463808.0,2.287962483368971,1.1582410262972556,0.9921037681842241,1.0743751149270895,0.8591920451076227,1.418990273154883,2.5886646140205767,4.0773330982932885
1569406092479766.0,2.277576137659251,1.157787444438586,0.9873426985154354,1.0632260279643413,0.8596541681044318,1.4095757316260977,2.590558229838475,4.031158853663246
1569406092479766.0,2.267341898842381,1.1567875822514972,0.9855905225151788,1.0524699363548538,0.858792686222643,1.4012126726805676,2.5781928873169653,3.9842495649471488
1569406092486747.0,2.2605318758536628,1.1573485696483854,0.9858389731002253,1.0411319265043957,0.857191824518252,1.395791064665945,2.5559274586971,3.9389678750732093
1569406092486747.0,2.2582914114780306,1.1614503469726587,0.9892042229449115,1.0321038648338432,0.8561339821786946,1.3934044457735288,2.53371569584316,3.903848708826468
1569406092502734.0,2.2603590735388295,1.1693007286277677,0.9958369176207448,1.0231161789592895,0.8535264181302047,1.3917860269774704,2.514065736743276,3.8718031364521455
1569406092502734.0,2.2693529545730926,1.1788815288252135,1.0038651514443506,1.015302145197832,0.84927583729179,1.3880028970939458,2.4971239544665926,3.8337281376032766
1569406092503741.0,2.2864672327472015,1.1892537575618507,1.0121054434911094,1.0091485928799042,0.8441733770067738,1.382879882489209,2.4863625267269347,3.789449179922604
1569406092503741.0,2.306011815787969,1.2003917250190594,1.020547610031462,1.0069584941350889,0.8392686669551864,1.3780915830861438,2.4767523328939856,3.7510718492444974
1569406092516666.0,2.3229898297946403,1.2123840672103015,1.0301157836826804,1.0056267177692815,0.8365375882119401,1.3734346333814718,2.464396876572877,3.720804437383836
1569406092516666.0,2.3286218786746247,1.2242787141479818,1.0419399609001236,1.0053832690201807,0.8353314408934959,1.3666046505259029,2.452008154931211,3.702102622906007
1569406092523648.0,2.317211038411098,1.2332359039474776,1.055063042837391,1.004767565044241,0.8334722220928543,1.3561394355395164,2.4390689811399255,3.6912814718887925
1569406092523648.0,2.2921191536731382,1.2381862927233374,1.0685110788488357,1.0043206805902527,0.8319391839047894,1.3413764036629048,2.4198156970794997,3.681149842227763
1569406092539665.0,2.2621364000064936,1.2421364923562115,1.083267222279685,1.0013707657432893,0.8316803483239346,1.3250403914066398,2.400913555600603,3.666203152870004
1569406092539665.0,2.2320963558248197,1.2450958991647934,1.0994304837361142,0.9970004558506025,0.8338335069195907,1.3106737120283656,2.388255392946363,3.6556181084643287
1569406092546646.0,2.2039206415883545,1.245155128336202,1.1150529582424868,0.989368222248593,0.8374559935091321,1.2988485145909232,2.3825141232084195,3.6472391183867887
1569406092546646.0,2.173881825572188,1.2430708139862,1.1291834752553325,0.9813160459655201,0.8395977542729216,1.2881871786585906,2.3813024828228695,3.632497537403277
1569406092562603.0,2.1437954206125642,1.2408856832408233,1.1428184017226461,0.9738127322995085,0.8391263652363273,1.2788835516884078,2.3825985210766327,3.6115536625642557
1569406092562603.0,2.116359478558281,1.2394970626999466,1.1580089412845334,0.9678077692571233,0.8360098209012472,1.2707024617438212,2.3824451114651906,3.5969807885171807
1569406092564598.0,2.0918810224654094,1.239031081006717,1.1758301894098364,0.9608316301171497,0.8321293303621616,1.2647845286897343,2.381032443938919,3.5916562286796947
1569406092564598.0,2.069399639754159,1.2413421577919896,1.1954501885351934,0.95408894020081,0.8305711459877483,1.260506053630485,2.381300542025154,3.5949664225474462
1569406092576567.0,2.0528829249949165,1.247768967381209,1.2140638948536564,0.9461498994706314,0.8324020506958484,1.2570696474402654,2.3887418754031193,3.6062807132289456
1569406092576567.0,2.04086065300727,1.2544380550697034,1.2288694897821426,0.9381559062084891,0.8366507049398088,1.2541380880952087,2.3958985680902085,3.622298528648283
1569406092585482.0,2.0295513638178724,1.2574631351213852,1.2398602231017395,0.9295734159585026,0.8403078879843674,1.2508416348917601,2.3934304401880544,3.634081474366953
1569406092585482.0,2.0198647374857432,1.2575176997953126,1.2481271362497124,0.9228483548518854,0.8424045106187049,1.2460685345170355,2.3861087453751284,3.640287013092607
1569406092599682.0,2.0126909379451017,1.2557888219427351,1.2526757397357957,0.9169575090580786,0.8459968192400044,1.2393044217395004,2.3809511077475287,3.6333640978508166
1569406092599682.0,2.006292945721302,1.2510206815856109,1.2533959530581875,0.913209973359014,0.8520159581521237,1.2309123199796024,2.3784410362468607,3.6185441554422555
1569406092606712.0,2.003010220253695,1.2452365011940978,1.252035171885983,0.9106260673372508,0.8594997537991406,1.2243142335144757,2.3837264677840437,3.6080768429954926
1569406092606712.0,2.003690171963261,1.2384058344972828,1.249706439170819,0.909510656071794,0.8683759129040216,1.2206605041329952,2.3957604087320745,3.604456225676766
1569406092623503.0,2.0088867775245607,1.2276142614651917,1.2453678500047431,0.9075785591283237,0.8777044856805176,1.219520385697988,2.4013771772174746,3.602676968055911
1569406092623503.0,2.019327051361397,1.2140716520290689,1.2378613036773771,0.9066738868179175,0.88749171974807,1.2172221247418717,2.3878429422314085,3.60483755124484
1569406092624383.0,2.0366966870837366,1.2029346560489775,1.2285815517692762,0.90604147777516,0.8987753354491185,1.212116002210735,2.363178717211467,3.610515910270118
1569406092624383.0,2.0570639299072737,1.1954192976606874,1.22159918932107,0.9055910127465103,0.9103992880386839,1.2078532846029777,2.3373289113942595,3.616645023571407
1569406092637682.0,2.0753994379383367,1.188032649547253,1.2172887060494129,0.9042740689499603,0.920557060107436,1.20807238860993,2.314741813705891,3.6152504628283895
1569406092637682.0,2.092049898574704,1.1771907877150258,1.2137795018064066,0.902860676365936,0.929367315415068,1.2114350632787492,2.2961416041058373,3.6099546802506497
1569406092643329.0,2.110250073216162,1.1656656341221265,1.211855180608814,0.9013366428400105,0.9389277518860804,1.2160197883598989,2.28085941702018,3.6040801547075563
1569406092643329.0,2.1309854620908983,1.157335532482535,1.2118471271366738,0.9026747060002481,0.9490652018861524,1.2207510306503566,2.2668016431061586,3.5980867961380305
1569406092659738.0,2.154721210538482,1.1537033749795311,1.2126820671627176,0.9055703823905211,0.9589204768505168,1.2261861529903306,2.256786392085658,3.5903265043680554
1569406092659738.0,2.176669954542922,1.1538291971144967,1.214536934686099,0.9085864707647955,0.968447436994459,1.2330322561259879,2.250330365860419,3.5756702499234585
1569406092666267.0,2.189819219042348,1.153980747266001,1.2154280316030408,0.9119210131709868,0.9757752998091015,1.241964283341717,2.2483782154236507,3.553897116102357
1569406092666267.0,2.198341885943578,1.1507440243624407,1.2140207553782203,0.9162862653465698,0.9790823233596385,1.2501310402191803,2.2504320415042525,3.536386575847716
1569406092682223.0,2.2087272983241935,1.1469769731932393,1.213886552935399,0.9210344788407483,0.9804951247822625,1.2564579830285156,2.257960571931137,3.5212237146233014
1569406092682223.0,2.2171974405303665,1.1466476410028388,1.2176838019275675,0.928758904714527,0.9808967342088036,1.2608927446224134,2.261501921806373,3.4993579139572693
1569406092684271.0,2.220857118033865,1.1490968674363882,1.2227785091640337,0.9383113269437655,0.9803218958019461,1.263054494827843,2.248061468528085,3.4676092055805454
1569406092684271.0,2.2191744854907514,1.1512164540115875,1.2261882925619954,0.9470926972730335,0.9796905362576208,1.2633339054266814,2.2258124612130517,3.4322668295883245
1569406092697186.0,2.216088246545789,1.1530021095797807,1.2274158488647589,0.9545426264189385,0.9770352276779314,1.2643117200432885,2.2084892079792064,3.394310651586642
1569406092697186.0,2.2136850431909987,1.1563538689600417,1.2284678019001811,0.9610520509946061,0.9723599092090776,1.267161125894007,2.192598244473507,3.3563396284956153
1569406092704167.0,2.208337374490504,1.161446642666183,1.2294490848305635,0.9661322490432761,0.9686120870623074,1.2715281297803618,2.1757601683968,3.323417230878871
1569406092704167.0,2.1993213726771974,1.1652566333538217,1.2294247689922309,0.9731012542484294,0.9667405325989803,1.2761086473437817,2.155906357580846,3.298874599416815
1569406092720288.0,2.1906804646054416,1.167790728423303,1.2291014446380266,0.9829057453674042,0.9677460715822264,1.2819543347486348,2.1332037140033995,3.27905397788521
1569406092720288.0,2.1843593661755563,1.1700116762707182,1.2298358791456063,0.9930595951632828,0.9725646016544801,1.2859256526663445,2.11040041290213,3.265934639462741
1569406092726449.0,2.180722889530973,1.1700259447990924,1.22991532574532,1.00021964662797,0.9801573223285726,1.285501865843367,2.090692882767564,3.258001546613911
1569406092726449.0,2.181712746095422,1.168669314770661,1.2261911453760008,1.004506745307331,0.9855703632951849,1.2834244430972561,2.0733962339568217,3.257219116148802
1569406092743444.0,2.1852328067248936,1.1670700189692043,1.2198067954741232,1.0075161131420858,0.9850364287674409,1.2812250076556917,2.0615050936318133,3.25989520824624
1569406092743444.0,2.182096476803334,1.1631650172879517,1.2131364643300462,1.0105840350343471,0.9815405004354276,1.2765369978063372,2.0529250140537685,3.25256331936444
1569406092745098.0,2.1697152378973894,1.1569439931141037,1.2041201525050367,1.0143956041449218,0.9789862550926165,1.2701514988853386,2.0440899871898512,3.22856743993613
1569406092745098.0,2.1521543245665193,1.1492243585143946,1.1923429538094308,1.0213454977228533,0.9783251085960792,1.2617452850178337,2.0357358206568805,3.196110507803849
1569406092757466.0,2.1345153115374065,1.1410284105248598,1.1791703324101375,1.0304089646209995,0.9775769384401122,1.25200820368994,2.0327051179412767,3.1656383481710124
1569406092757466.0,2.1197242250646102,1.1342296004030363,1.1676997217548686,1.0379283227153935,0.9747670625259698,1.2416150881616603,2.033965153738545,3.142715666445126
1569406092764420.0,2.109264153752089,1.1290196239602988,1.159311624037103,1.0424705880987253,0.9718580209488019,1.230967088591803,2.0371085018402573,3.1263064993606466
1569406092764420.0,2.104198714688664,1.1243202918803474,1.153423312045504,1.046182230171947,0.9708152100753187,1.2210424132017095,2.041469177121529,3.1191591994350456
1569406092779962.0,2.101214168901943,1.1192576857309084,1.1499263202004544,1.050806711500824,0.9686708852796218,1.2139704423518318,2.0479001450818193,3.118307983295978
1569406092779962.0,2.0929072669461246,1.111723409785255,1.1491593621726395,1.0577188355394764,0.9634374748602295,1.209815512229777,2.0482625257331613,3.1178555511595185
1569406092794360.0,2.078911403737923,1.1007176701078845,1.150163298140399,1.065787900865332,0.9580506985237476,1.2084006581279443,2.036977509496134,3.119398729259874
1569406092794360.0,2.0617011478699396,1.085990327660859,1.1520144341398593,1.0742551703899925,0.9544860629042058,1.2078873696242194,2.021527148753858,3.125172638174928
1569406092803339.0,2.0453675265363085,1.068463893745739,1.1545022381495145,1.083874471572237,0.9527362485376826,1.2070422208222704,2.008816858711534,3.1331584466326885
1569406092803339.0,2.0329181733001205,1.0509226617701815,1.157714915827994,1.09596727231212,0.9507953094933126,1.2071699614626656,1.9977062427044452,3.1423990415475904
1569406092803900.0,2.0257603033244527,1.0365560986813707,1.1625331204056037,1.1094637288429607,0.9467030514206864,1.209937496070455,1.9886983785724233,3.155117102300974
1569406092803900.0,2.020993728487764,1.0254385594902282,1.1694929625477966,1.1226896080275104,0.942457267005777,1.2130658023192509,1.9815409519565967,3.173224201731935
1569406092817230.0,2.0116102448347557,1.0166493288193508,1.1758068730000921,1.1344238671831073,0.9400629059315843,1.2140955201687733,1.9728132019855513,3.1970421150667976
1569406092817230.0,1.9991371616331173,1.0111976661833424,1.1782512874578273,1.1459318086308097,0.9395048829104496,1.2122451546830206,1.9585908926213098,3.2282335751436975
1569406092831824.0,1.9907284747474974,1.0090164599311362,1.1778979074376428,1.1571004711329453,0.9418156059798708,1.2121221589724969,1.9448064910242127,3.2658613782451162
1569406092831824.0,1.9865172193728005,1.0081138140287558,1.179061588199382,1.1663763464084185,0.9468555757085894,1.216255246033233,1.9364326994069694,3.3055638309475106
1569406092840255.0,1.9855690780171447,1.008420800089934,1.1803508522437482,1.1723443766204689,0.9526423983744845,1.2234438601672055,1.9341784111497695,3.350203388151381
1569406092840255.0,1.9878864666657703,1.0109609983538217,1.1785889717226528,1.1762143408411163,0.9581788983750498,1.230135841801333,1.9329618122858891,3.4008002338369576
1569406092847132.0,1.9914706233941384,1.0134650057074142,1.1750249060420046,1.179472396617736,0.9636130842944609,1.2370481579925574,1.9277673094197096,3.454855979962074
1569406092847132.0,1.9984909855278734,1.0153427571317075,1.1720161861627256,1.183700792590711,0.9699513710704646,1.2457848017355695,1.9211216988957556,3.5121224940272904
1569406092862742.0,2.0127618419884037,1.0194192807731945,1.168743560865053,1.1885754264009252,0.9792113181375978,1.2563072459395577,1.9172592323525148,3.577826649668278
1569406092862742.0,2.032047816778695,1.0255370895457538,1.164338856833922,1.1939349691018244,0.9910659298074002,1.2686159485370359,1.917167423693514,3.6447387480715183
1569406092863772.0,2.050191578569996,1.0304567886107576,1.1576082887975716,1.1964101752376572,1.0025292535006898,1.2846978549630919,1.9199832532404744,3.701769810999027
1569406092863772.0,2.067703707481203,1.034742556821481,1.1471667164951673,1.194265515953915,1.0107648216383565,1.3027829256677097,1.92565672802768,3.751196100481988
1569406092877831.0,2.0873262317306445,1.039099846628746,1.1350489447288956,1.1881673591906599,1.0162091646115208,1.3214263500543335,1.9341718812322453,3.7999212353847054
1569406092877831.0,2.108112506159327,1.0438264979276233,1.1248519880395085,1.1816553703719244,1.0218613960606078,1.3407191004712697,1.9435521316095512,3.8471491831975895
1569406092884060.0,2.1289024142572854,1.0486076290690007,1.1149950659980719,1.175111074083401,1.0296523381916298,1.3615509787658373,1.95274776493234,3.896003073683038
1569406092884060.0,2.149799391547404,1.0538226797070016,1.104182157237405,1.1694494429834856,1.0393720909139534,1.3815979036167092,1.962908034594228,3.9481936507379434
1569406092899645.0,2.1655127372139935,1.059134562594394,1.0940590301527986,1.1639630287920697,1.050013290428287,1.3988727680957915,1.9758392608668416,3.9997739436778628
1569406092899645.0,2.172120093933662,1.0649852044410713,1.0851184589709484,1.1586890281345554,1.0586190824798787,1.4137836080445008,1.988609328774765,4.041125987597664
1569406092906625.0,2.1750324887725063,1.0710945629391755,1.0770961103541328,1.151607895512689,1.065572603354906,1.4296511004392278,1.9972883519133635,4.079027887355102
1569406092906625.0,2.180339901469203,1.0790265383725532,1.07151049927308,1.1433794812673492,1.073738336568204,1.4435288900613714,2.007268495521666,4.122842322274508
1569406092922622.0,2.1904492957946307,1.0891326318892915,1.0657712899252496,1.1338490870238978,1.0820583310549334,1.4535519302571367,2.0220802147449257,4.167213337979374
1569406092922622.0,2.2041028774015325,1.1017856929980552,1.0563942834547133,1.1242509598733381,1.0876364873708915,1.4624180708673815,2.038792801844862,4.205700286300793
1569406092924578.0,2.216147415325218,1.1172929967188734,1.044356477685889,1.1113962549933332,1.0897183166067486,1.4745914838274052,2.0542353213368454,4.246990856138712
1569406092924578.0,2.2274388787457933,1.1355398574573219,1.0317589585310631,1.0964335284429425,1.0883335630298292,1.4908856326808704,2.066795652492078,4.29628145532581
1569406092936585.0,2.241747783403638,1.153628011295685,1.019359908857843,1.0810513183331807,1.0835188191308227,1.5092890619867287,2.0744263563746013,4.349509144490677
1569406092936585.0,2.2609343595937155,1.1692526379755341,1.0094598207674073,1.0676436453366809,1.0771736923614692,1.52808318500036,2.077609685829394,4.401210709617992
1569406092945521.0,2.2823124669527424,1.1808324945654887,1.0024036338751494,1.0552517225920781,1.0721765991593506,1.5497251594714583,2.0791570133790156,4.4465367837002505
1569406092945521.0,2.3033077371018336,1.1913556450120535,0.9973818949233886,1.0460147866709013,1.0684638705480611,1.5719997670515238,2.080197510538876,4.481095004402738
1569406092959919.0,2.322794507147992,1.199987913791488,0.9952030339485992,1.0393600178489184,1.0660183898981173,1.5916865018637243,2.0795703016284417,4.508203301136566
1569406092959919.0,2.3392270350900524,1.206807065375674,0.9972887621339035,1.0354431343036004,1.0638391091406119,1.6082886798664864,2.079609158224054,4.527564297155019
1569406092966483.0,2.350874741567088,1.2133974685406668,1.0028448734168518,1.0333825203306781,1.0599475325611063,1.62521567074633,2.0840234015925447,4.5420998688692205
1569406092966483.0,2.361562802402537,1.2200414139711901,1.0100532454310966,1.0334434127593173,1.0543238557311856,1.6430632292061071,2.095787986025559,4.556133617421624
1569406092983423.0,2.3757320343286703,1.2264420392187423,1.0167310013371742,1.0327230114604886,1.0469166193602393,1.6609576136962654,2.11328155290652,4.569870705603207
1569406092983423.0,2.3939951978329392,1.2340452203570684,1.021736402788948,1.0308529431130622,1.0406594206456308,1.6785780481753485,2.1325143326464326,4.582930381426095
1569406092984417.0,2.4107582974879254,1.2421958319697575,1.0257965295709994,1.0266670727179226,1.038535209694047,1.6951337311008754,2.1414657682261824,4.594723381686837
1569406092984417.0,2.422119346341351,1.2515077975077509,1.0300827329147089,1.0208362280281722,1.039558484433755,1.7100331872934593,2.130553409260372,4.60712380735771
1569406092997639.0,2.4324087567590533,1.2624466700537487,1.0336742045329042,1.0131916659990572,1.0427296792518372,1.724507556410575,2.1099439959453234,4.627147579009893
1569406092997639.0,2.4453476608134026,1.2760891630521092,1.0345951335263024,1.0047070650014025,1.0470397219797087,1.7360260323737933,2.0912433491466498,4.653035366235409
1569406093005362.0,2.456457417603231,1.290421555586901,1.0324054324437912,0.9940000888851356,1.0515262303948585,1.744396397269192,2.0740203218068665,4.673329505501439
1569406093005362.0,2.4655724367404876,1.3039646812165686,1.0299802751189533,0.9846901036127365,1.0571810328154558,1.7524671438450241,2.0594281582610696,4.680655950911863
1569406093020423.0,2.476216707950408,1.3145445520183519,1.0294348956319535,0.9784151878900762,1.063034460619986,1.7645945243186956,2.050136210800333,4.678455531302791
1569406093020423.0,2.4841893277827056,1.322253803678314,1.031107576118201,0.9756591268743322,1.0661796471461167,1.777335454962733,2.044134809879076,4.666571527985489
1569406093027127.0,2.483048251740236,1.327032232905935,1.0331553206755548,0.9736617859372433,1.0666724515907287,1.787353827807173,2.0372894246672604,4.645962163907859
1569406093027127.0,2.4777331561490286,1.3307407927503132,1.0325272298587729,0.9730315781433537,1.064529574007545,1.7983982790708517,2.031084497020614,4.622243634637694
1569406093043126.0,2.4737377517685837,1.334756885236966,1.0297961396698279,0.9732449018433346,1.0587193913370347,1.8114045116046362,2.0282795978919355,4.597128645756089
1569406093043126.0,2.472924859248911,1.3391946796055607,1.0270372850556222,0.9720858977925028,1.0511359432761256,1.8241423994959043,2.0311636321059447,4.57437010993694
1569406093044688.0,2.474765391872546,1.3428445072048367,1.0242194871998247,0.96805090924313,1.0436906117948146,1.8385336060360495,2.0411962205354937,4.5587557253557325
1569406093044688.0,2.4773596288280637,1.348396901628631,1.0224034112819735,0.9656865713328322,1.0363884182972578,1.848793849849039,2.058408653381908,4.549344818685541
1569406093057020.0,2.4785380537519663,1.3566932003067693,1.021668282714225,0.9658767261280633,1.0291715465643327,1.8453622115326578,2.0811078414219435,4.540131477501911
1569406093057020.0,2.4767236944537894,1.36563181148698,1.0210819533767432,0.9676162029254062,1.0230287061764707,1.829851055092175,2.1092904884909975,4.5300592948715455
1569406093065630.0,2.4729860064580254,1.3722228741374956,1.0205782657904536,0.9682112679222705,1.0189490929012313,1.8140602706598028,2.1370211037932254,4.526910116218412
1569406093065630.0,2.470437248809061,1.3785057350330214,1.019192547796428,0.9670148039668769,1.015966389420702,1.804254772910076,2.1592236756288483,4.532842929162437
1569406093080031.0,2.468731931330188,1.3856082543962278,1.017731002156172,0.9641217798995105,1.0140561646604496,1.7938265962635969,2.170944550410678,4.541954703002835
1569406093080031.0,2.469093019546384,1.3915794720407693,1.0183308683875747,0.9611019632966221,1.0132237254107619,1.7749187132238813,2.1667769802895314,4.548404239627651
1569406093086996.0,2.472027761061842,1.3934880590440186,1.0200743319052812,0.9583250839255283,1.0124779596004436,1.7518226092307863,2.151385002511008,4.553984911177205
1569406093086996.0,2.4746702679896466,1.3923956633345282,1.0219974127191558,0.9575319088593037,1.013809388065604,1.7286651527012329,2.1358460513899327,4.568713594769204
1569406093102968.0,2.476042214339364,1.389997600948015,1.0230534828168272,0.957323210203462,1.0181873417397114,1.7040888480056338,2.1231445976532255,4.595872189471331
1569406093102968.0,2.47734946791184,1.3873979231207108,1.0231948978526466,0.9580562213848597,1.02258331926755,1.6769788163485038,2.113300965130929,4.6224930244961735
1569406093104528.0,2.4773469479654695,1.3830950881949413,1.024390899526496,0.9612795542096518,1.025088069181546,1.648333295591045,2.1037653885280996,4.628212215647931
1569406093104528.0,2.475408760281667,1.3767486474723816,1.026734086419752,0.9686800258658829,1.0267219253437687,1.6187354260160778,2.09315647537009,4.606923824699246
1569406093116697.0,2.472506910798071,1.3701918864661988,1.0302144184064639,0.9790862835813291,1.0285222310911457,1.5850996273681879,2.0843269431856775,4.562218968542326
1569406093116697.0,2.471831738117848,1.3653470145966484,1.0358708363239473,0.9909099183858293,1.0314868388108607,1.5454897031204466,2.0814220098234406,4.503836358554063
1569406093125471.0,2.4748574665513505,1.3605326832129214,1.0427242296748154,1.0027990346079831,1.037638394253472,1.5046711805662407,2.0835229019783656,4.444536285760364
1569406093125471.0,2.4804625404783125,1.3540786761304249,1.0487944966084424,1.014175833107004,1.047830629040546,1.4661053481374542,2.088778310476968,4.391854351041919
1569406093139864.0,2.48434962668683,1.3440006176353734,1.0541026961113753,1.0217464310564863,1.0600099065263673,1.429512243730777,2.092588380856313,4.344865605453159
1569406093139864.0,2.4841315548503844,1.3321323003269352,1.0616510675537245,1.0255062835029243,1.071217240726609,1.393669604770101,2.0931214191918275,4.298826543807264
1569406093154688.0,2.480786562993209,1.322098558864155,1.0714278415594969,1.0289594285729482,1.0806573947176847,1.3554853569449794,2.094291491508989,4.256820781599406
1569406093154688.0,2.473613469666119,1.3157801475645372,1.0804715591071405,1.0337339891026165,1.0883880326485824,1.314813688608389,2.0990711605959396,4.222531326682984
1569406093163570.0,2.4637705037934423,1.31338061039146,1.0898509972960198,1.0376082316175175,1.0945255353760677,1.2734577294634983,2.1026689019906186,4.1935514066686
1569406093163570.0,2.456427005935889,1.312582993404602,1.1005270404739353,1.0398559404060361,1.1000705019225536,1.2312705250526892,2.105510306873544,4.176110076370318
1569406093164367.0,2.4530243119306774,1.3082878721148854,1.1105544183933236,1.0409504142662758,1.1050530752902556,1.1911875392424276,2.1120919698460967,4.173404691975246
1569406093164367.0,2.453599335481706,1.3006144977663638,1.1190024853522158,1.0423275324130534,1.1075398218012407,1.156131441161928,2.124484264959844,4.183923423932006
1569406093176776.0,2.45775101553218,1.2924883000913212,1.125950466672634,1.0436355717563393,1.107582389330103,1.1260566177572109,2.141590258590426,4.206587386585888
1569406093176776.0,2.465535260584422,1.2859344181875478,1.132416238033046,1.0453275305256908,1.1061479383899617,1.0998082490711503,2.16356298686427,4.237751673939534
1569406093192882.0,2.4753054201631954,1.2804346038774566,1.1394010282195852,1.0470450887379323,1.1041847112822403,1.0764109447104964,2.1867973956513187,4.273627839193048
