timestamp,emg1,emg2,emg3,emg4,emg5,emg6,emg7,emg8
1573325012343613,-6,-3,-3,1,-37,-25,-8,-8
1573325012343613,8,6,4,6,-26,14,3,4
1573325012365087,-2,2,1,19,111,61,10,1
1573325012365087,1,-3,2,19,93,70,7,0
1573325012366188,2,0,-10,-14,-76,-85,-14,-2
1573325012366188,4,0,3,-12,-50,-20,-9,-2
1573325012378753,-2,-1,3,0,41,9,0,2
1573325012378753,-2,0,-3,3,8,-3,2,0
1573325012387531,0,-3,-1,1,23,43,6,-1
1573325012387531,-2,-7,-6,-6,-11,-13,0,-1
1573325012402169,-3,2,1,-10,-67,-23,-6,-3
1573325012402169,0,0,-9,0,-51,-5,-1,1
1573325012404123,-1,-2,5,7,91,40,7,0
1573325012404123,1,6,8,-1,33,-25,-5,-1
1573325012424617,5,9,9,2,-52,-27,-8,2
1573325012424617,-6,-11,-9,0,28,0,11,-5
1573325012426567,3,-2,-3,1,71,24,5,4
1573325012426567,-4,-3,-6,-8,-74,24,2,1
1573325012438572,-2,3,-1,4,101,30,9,-1
1573325012438572,2,2,1,-3,4,-10,-13,-4
1573325012447104,5,9,7,2,22,-49,6,0
1573325012447104,0,0,0,4,-3,40,7,4
1573325012462346,-6,-2,-1,-8,38,-66,4,-3
1573325012462346,5,1,-1,-8,-25,-2,-30,0
1573325012464013,-5,-3,-5,-2,60,30,8,4
1573325012464013,-4,-6,-6,-9,-42,-21,-15,-5
1573325012484791,2,1,-1,-1,-26,36,4,2
1573325012484791,-8,-1,3,7,26,-2,7,-4
1573325012486497,8,5,7,10,23,21,-4,2
1573325012486497,0,-2,2,3,17,-29,-5,1
1573325012498653,-13,-5,-7,0,99,23,4,-6
1573325012498653,9,1,0,-7,-86,-18,4,11
1573325012507547,-6,-3,-8,-14,-100,-16,-11,-13
1573325012507547,-7,-2,0,-3,8,-4,0,-8
1573325012521822,5,3,7,9,-55,29,20,5
1573325012521822,3,5,4,7,45,-15,-5,3
1573325012523774,-3,-6,-5,-9,-74,6,-1,3
1573325012523774,5,1,-2,-2,-30,-28,-2,3
1573325012544608,2,-4,-6,-6,25,29,-1,1
1573325012544608,-2,-2,-4,-10,-39,-27,0,-3
1573325012546560,0,2,5,5,-29,-3,-2,5
1573325012546560,-3,1,4,15,72,64,6,-4
1573325012558667,7,1,0,-2,14,-66,-14,2
1573325012558667,4,-1,-1,-4,-2,11,12,14
1573325012567187,7,2,-4,-1,52,3,-4,4
1573325012567187,-3,-10,-9,-7,-30,-9,-2,-13
1573325012582875,0,6,7,6,5,21,-4,-6
1573325012582875,-5,3,5,8,17,4,-1,-3
1573325012583848,-17,-2,-1,-2,-32,-28,4,-9
1573325012583848,4,1,-2,-3,58,12,4,13
1573325012604442,-3,-4,-6,-3,-19,17,-3,-2
1573325012604442,-14,-6,-5,-13,-77,-52,-17,-60
1573325012606396,7,3,1,1,34,35,12,19
1573325012606396,-5,-2,-3,-3,-6,-6,13,-4
1573325012618279,7,0,1,-5,-10,-1,9,9
1573325012618279,2,2,1,0,0,-13,-35,-7
1573325012633510,7,-2,-1,3,44,8,6,5
1573325012633510,2,0,-2,-7,-52,-19,-6,-2
1573325012642194,7,4,4,0,-16,-9,-5,-5
1573325012642194,-2,-2,2,7,69,29,12,9
1573325012644097,-1,-2,-2,1,14,-1,-10,-5
1573325012644097,1,5,7,4,-26,-19,-2,6
1573325012664338,1,1,-3,-4,-20,13,-1,8
1573325012664338,-15,-8,-5,-3,-7,-4,5,-4
1573325012666291,2,0,-1,3,1,-7,-8,-3
1573325012666291,1,1,-1,-4,73,12,7,-1
1573325012678459,4,4,8,4,-68,-11,-6,3
1573325012678459,-10,-5,-3,1,101,41,13,27
1573325012693094,-4,0,-7,-12,-115,-35,-4,-13
1573325012693094,-5,-21,-2,-4,-28,-13,-7,-8
1573325012701922,1,0,-1,2,19,6,-5,-2
1573325012701922,8,-1,0,2,45,8,5,10
1573325012703875,-2,-2,-4,-7,-43,0,-1,-2
1573325012703875,0,6,1,4,-14,-10,-2,3
1573325012724374,-7,-5,-5,-3,22,6,-3,0
1573325012724374,0,2,-1,1,-5,1,2,-8
1573325012726322,-1,-2,2,1,4,-9,-6,-6
1573325012726322,4,6,1,0,1,0,-2,0
1573325012738039,-7,-6,-3,-2,21,-2,-4,-6
1573325012738039,5,4,-1,-4,-32,-3,2,-2
1573325012747019,-3,1,3,10,59,11,-2,-1
1573325012747019,1,1,-1,-3,-42,-6,-1,6
1573325012761834,-7,-1,-2,-5,29,7,0,-7
1573325012761834,2,-6,-9,-8,8,-3,2,2
1573325012764561,5,2,2,5,8,16,12,1
1573325012764561,5,7,5,-2,-2,-7,-6,2
1573325012784858,-1,-3,-3,-1,-4,-4,1,0
1573325012784858,3,-5,-10,-13,-39,-11,-2,3
1573325012786596,-12,7,-4,10,14,1,-5,-17
1573325012786596,-14,-31,9,10,27,7,1,-9
1573325012798913,-1,2,8,3,10,2,-6,-6
1573325012798913,1,0,0,2,18,-6,4,2
1573325012807668,8,6,4,9,-14,-14,-1,9
1573325012807668,1,19,0,6,76,5,2,0
1573325012821613,-1,-4,-1,-2,-91,-7,6,4
1573325012821613,-3,-2,1,2,-2,-3,-2,-3
1573325012823566,2,1,-4,-14,6,4,-2,0
1573325012823566,-3,-6,-12,-5,-5,-3,-4,-9
1573325012845074,3,-4,-4,1,29,8,-3,3
1573325012845074,-1,7,1,4,32,15,0,1
1573325012845927,-5,-18,-14,-36,9,-17,1,-4
1573325012845927,9,3,-2,11,-33,5,12,4
1573325012858742,-4,7,4,-8,47,3,-14,-4
1573325012858742,14,6,1,-20,-46,-4,-3,7
1573325012867404,-2,3,21,46,26,11,3,24
1573325012867404,-56,-11,-13,-14,63,5,-5,-70
1573325012881430,39,-1,1,8,-49,-13,3,12
1573325012881430,7,-17,-18,-23,-15,-5,4,-25
1573325012888568,-1,-8,-9,-28,-5,-8,-28,-22
1573325012888568,21,21,4,5,-1,-1,-2,27
1573325012911987,-19,-2,5,3,34,10,10,-5
1573325012911987,-11,-1,9,7,-29,-9,2,-14
1573325012913893,3,2,-8,-57,-17,-1,1,32
1573325012913893,43,12,11,18,-26,-8,-19,23
1573325012918771,4,-1,-8,19,-12,4,-8,57
1573325012918771,-27,18,21,3,-11,-9,8,12
1573325012927727,63,-3,13,35,-2,5,13,-32
1573325012927727,-13,-12,-4,-26,15,13,7,7
1573325012941434,-6,-6,-19,-43,-35,-17,1,-43
1573325012941434,-2,14,20,50,24,0,-8,48
1573325012948530,2,10,7,25,-4,-5,-2,0
1573325012948530,-1,-1,4,15,46,11,8,45
1573325012965145,1,-1,2,20,-29,-1,11,-32
1573325012965145,12,-3,-7,5,-38,-78,-90,5
1573325012965830,-23,0,-4,-18,-3,-1,59,-40
1573325012965830,4,0,14,42,26,62,21,18
1573325012978686,-17,0,-12,-68,40,-30,-51,-22
1573325012978686,-3,-3,6,25,-35,-3,4,-28
1573325012987369,-1,6,10,30,-17,-8,-7,15
1573325012987369,-28,-11,-11,-29,-50,-29,-22,-46
1573325013001943,32,7,5,15,32,30,29,23
1573325013001943,6,-10,-12,-31,64,18,25,2
1573325013008776,-11,-9,-4,5,-44,-22,-29,-6
1573325013008776,11,1,-8,-10,-19,-7,18,0
1573325013024393,-12,1,4,12,-8,3,0,6
1573325013024393,19,-2,-4,-3,-20,9,14,19
1573325013026412,-7,1,-3,-5,9,8,-1,21
1573325013026412,2,-5,-6,-7,-29,-23,-24,-5
1573325013047461,-8,-7,-7,-1,13,3,16,17
1573325013047461,-14,-1,-2,-6,2,2,-1,-15
1573325013048438,9,3,0,-3,39,17,3,5
1573325013048438,8,0,-3,-10,-50,-20,1,6
1573325013061124,-2,5,8,16,12,5,-8,11
1573325013061124,-6,-10,-10,-6,4,31,22,3
1573325013067958,11,12,1,-1,1,-12,-4,39
1573325013067958,7,-3,-3,2,20,-13,-30,-61
1573325013085524,-7,-4,-5,1,-9,-9,-2,-16
1573325013085524,25,9,5,4,-8,8,26,71
1573325013086501,-16,-1,0,-5,55,20,-9,-17
1573325013086501,-37,-11,-8,-6,-90,-25,-14,-55
1573325013106998,10,3,4,2,-15,-5,3,10
1573325013106998,-9,-3,0,-2,-7,-4,-8,-42
1573325013112850,-9,-13,-8,-6,-7,1,-4,2
1573325013112850,13,9,2,-1,26,14,18,47
1573325013121711,-25,-12,0,10,27,15,-1,-9
1573325013121711,5,-10,-12,-10,-16,-14,5,20
1573325013128469,-5,8,9,10,-6,6,2,28
1573325013128469,3,-7,-4,-4,6,5,5,-52
1573325013144630,5,14,5,2,11,9,15,-73
1573325013144630,-6,-5,-6,-4,-1,1,-11,-128
1573325013146579,2,14,1,-8,-37,-16,-4,-89
1573325013146579,3,-13,7,1,10,-1,8,27
1573325013167143,13,2,0,6,39,5,-1,42
1573325013167143,-2,-1,-4,-5,-39,-3,1,58
1573325013169030,-2,-12,-9,-2,4,7,-1,53
1573325013169030,25,22,3,-8,-58,-11,7,89
1573325013181800,4,10,8,3,-12,5,3,72
1573325013181800,-33,-14,-3,8,62,22,-4,5
1573325013188559,-8,13,-2,-8,-53,-23,-5,21
1573325013188559,-28,-13,-9,-5,32,8,-6,-17
1573325013205152,-10,-10,-8,-6,-4,-26,-11,6
1573325013205152,15,6,2,2,-27,31,13,36
1573325013206582,2,-10,-2,1,33,13,6,-6
1573325013206582,7,6,1,-2,30,12,24,49
1573325013227588,-8,-9,-2,3,-16,-12,-19,-11
1573325013227588,2,11,3,-4,28,-6,-1,7
1573325013229039,5,-6,-1,-2,12,2,-4,-11
1573325013229039,-1,-2,-6,-7,-36,-10,-1,-17
1573325013242037,8,2,-1,5,17,23,6,-3
1573325013242037,-19,-10,-5,-9,-31,-36,-20,-73
1573325013249886,6,-1,-4,-5,39,16,5,11
1573325013249886,-15,-6,-1,-1,10,-9,-9,-23
1573325013264396,-2,-2,-2,-1,-21,-1,0,-30
1573325013264396,3,0,4,5,84,0,-6,-6
1573325013266264,-3,-3,0,-4,-112,5,9,-2
1573325013266264,3,7,4,0,8,5,-6,-30
1573325013286767,-1,1,-3,-5,-33,-1,3,-8
1573325013286767,1,2,4,5,64,14,7,5
1573325013288712,-5,-5,-6,-6,-69,-30,-7,18
1573325013288712,8,4,1,2,25,7,-3,31
1573325013300422,-5,-6,-4,-5,-6,-10,-1,38
1573325013300422,3,0,-3,-2,-27,1,0,13
1573325013310182,-2,-6,5,10,42,5,-4,17
1573325013310182,-6,0,4,4,6,1,0,-4
1573325013331719,7,-3,-5,-5,27,-11,-3,5
1573325013331719,10,1,-1,-4,-2,0,3,10
1573325013333634,-4,-7,-2,-3,-16,-13,-2,3
1573325013333634,5,2,3,1,54,4,-1,28
1573325013347383,-4,-4,-2,-3,-28,-5,0,2
1573325013347383,4,1,0,6,67,9,-4,18
1573325013348273,-8,-8,-4,-12,-86,-25,1,-26
1573325013348273,-2,2,-1,1,27,-15,-24,-9
1573325013360962,-7,0,-1,-1,24,4,-2,-11
1573325013360962,-7,-9,3,-2,-72,-8,12,-5
1573325013369749,-13,-4,-4,0,56,12,-18,-24
1573325013369749,-6,-1,-2,0,-4,-31,-2,-7
1573325013392421,-10,-11,-10,-9,22,5,1,-21
1573325013392421,0,8,4,4,-100,-27,-11,-5
1573325013394146,3,-2,-1,-1,43,23,10,-2
1573325013394146,4,3,1,3,-18,15,11,1
1573325013406944,1,8,-3,-1,11,-5,-11,-9
1573325013406944,3,-10,11,18,29,-10,4,1
1573325013408890,5,-2,-3,3,69,14,6,3
1573325013408890,0,-3,-15,-30,-44,4,-2,-5
1573325013420701,2,-3,8,12,16,-19,-21,-20
1573325013420701,2,2,-8,-18,-43,5,2,-6
1573325013429282,1,2,9,6,54,0,-5,5
1573325013429282,12,6,9,17,11,0,-8,-1
1573325013452503,4,1,-1,-13,0,28,27,34
1573325013452503,2,1,-2,4,22,-17,2,24
1573325013453480,0,-1,-2,0,-14,-14,0,7
1573325013453480,-5,3,0,-3,0,35,5,-35
1573325013468121,-1,-4,0,1,7,-36,4,-5
1573325013468121,5,0,-4,-2,-23,14,7,2
1573325013469097,-9,-3,-7,-11,-18,-19,-28,-12
1573325013469097,-7,-7,-2,0,11,-19,6,-15
1573325013480962,1,4,3,-10,45,33,10,-11
1573325013480962,-15,-3,1,4,-17,0,-1,-10
1573325013489599,-12,0,0,8,-3,-11,-11,-14
1573325013489599,8,2,2,-3,-5,13,8,22
1573325013504307,-10,-2,-5,7,4,0,-13,-13
1573325013504307,6,-8,-10,-15,17,-16,-6,7
1573325013506184,14,3,4,8,11,60,40,18
1573325013506184,0,2,1,19,13,-56,-85,14
1573325013526679,5,4,5,5,-48,-25,26,11
1573325013526679,-16,-4,-3,-9,-5,18,-14,-51
1573325013528631,4,-1,4,20,10,4,1,-5
1573325013528631,-11,-8,-8,-10,7,8,22,-4
1573325013540343,3,-1,-4,-12,-26,-4,-7,6
1573325013540343,5,4,-1,-3,4,2,-13,3
1573325013550134,-4,-1,1,13,77,16,9,-5
1573325013550134,-5,8,13,13,-12,6,14,20
1573325013564958,11,-1,3,16,12,8,-13,-19
1573325013564958,-13,0,-1,-4,19,-5,11,17
1573325013565751,18,-6,-11,-24,2,-11,-5,19
1573325013565751,-6,-3,0,-10,-45,-4,9,-6
1573325013587441,-1,2,4,8,-33,11,5,10
1573325013587441,9,5,5,11,26,0,3,10
1573325013589177,-10,-5,-4,5,-17,9,-8,-6
1573325013589177,10,-4,-10,-15,7,1,20,4
1573325013600887,-5,-3,-11,-28,-3,-4,-5,9
1573325013600887,12,-1,8,9,-7,-4,0,5
1573325013609781,-13,0,-4,-15,-15,-5,-9,-28
1573325013609781,11,1,2,9,4,23,6,3
1573325013624337,1,1,-1,2,-10,15,86,8
1573325013624337,1,11,-1,-4,10,41,-3,7
1573325013626262,-3,-7,-4,-2,-13,-15,8,-7
1573325013626262,-9,-4,4,4,36,0,-5,-12
1573325013654744,19,8,4,3,-37,-5,-3,-1
1573325013654744,-15,-14,-7,-5,-3,-2,2,-19
1573325013655719,-3,6,2,-7,-3,-15,-10,-7
1573325013655719,7,6,-1,-2,-26,1,15,2
1573325013669411,-12,-4,1,0,12,5,-22,10
1573325013669411,20,22,12,9,22,-3,6,14
1573325013671335,15,13,-5,-9,-39,-15,-18,-7
1573325013671335,-40,-44,-13,-3,0,-7,-11,-50
1573325013684998,9,-7,3,6,3,-2,-18,-19
1573325013684998,-12,-2,1,-3,10,-5,-8,-20
1573325013685975,7,12,-1,-4,5,-1,14,21
1573325013685975,9,8,-6,-7,-4,-1,1,17
1573325013707446,-14,-5,-5,0,-5,-2,-15,-49
1573325013707446,2,3,3,-2,-11,-4,0,-31
1573325013710374,-4,-5,7,8,9,4,-1,-58
1573325013710374,-9,-9,2,2,-19,-3,2,-74
1573325013722087,-2,3,-5,1,35,3,-9,-27
1573325013722087,-12,-19,-19,-13,-62,-24,-15,-59
1573325013729897,-10,-6,0,1,-4,-1,0,20
1573325013729897,8,11,7,3,42,10,8,79
1573325013744743,23,-3,-2,-2,-59,-16,-6,61
1573325013744743,-7,-6,-11,-7,-9,-13,-8,16
1573325013746489,-32,-16,3,5,0,0,-15,-22
1573325013746489,-22,-3,-7,-2,-2,-4,0,23
1573325013767308,-17,-5,2,2,17,7,-6,16
1573325013767308,-5,1,0,-1,20,5,10,47
1573325013768936,-3,-6,-9,-8,-23,-13,-12,-11
1573325013768936,7,3,-4,-5,34,5,6,36
1573325013789649,16,15,12,-2,-54,-2,1,29
1573325013789649,0,-10,-1,2,2,-18,-14,-40
1573325013791384,4,-1,3,2,15,15,5,-13
1573325013791384,-6,-3,-3,-2,-4,-1,-10,-36
1573325013805219,14,10,-1,-2,20,-4,0,7
1573325013805219,0,-1,0,2,-4,7,3,-24
1573325013807009,2,-1,1,2,4,-2,8,15
1573325013807009,4,-2,-5,2,-22,-9,2,-17
1573325013827813,-10,-4,0,1,14,6,-11,-10
1573325013827813,12,9,6,5,50,14,0,43
1573325013829055,7,2,-2,2,17,-19,14,21
1573325013829055,8,5,2,-4,-88,-20,-7,-13
1573325013841173,-3,-3,-1,3,27,-1,7,-9
1573325013841173,2,-2,-2,-6,-77,0,2,39
1573325013849621,16,6,2,-2,-8,-2,2,30
1573325013849621,2,-2,1,3,30,6,9,32
1573325013864312,-8,-5,-4,1,13,3,-8,15
1573325013864312,12,3,-1,2,13,1,7,39
1573325013871099,9,0,0,1,6,1,-1,19
1573325013871099,-2,1,0,1,44,3,4,-2
1573325013887150,-17,-8,-6,-7,-38,-2,-10,-33
1573325013887150,9,3,6,5,14,11,13,5
1573325013888662,-10,0,-2,-3,-13,-1,-5,-27
1573325013888662,12,6,1,1,29,2,-3,2
1573325013900784,-5,-5,-4,-4,1,3,23,33
1573325013900784,-7,-3,-1,0,3,-13,-32,-28
1573325013910133,-8,-1,-1,2,-9,-13,12,-9
1573325013910133,9,0,-1,-4,-7,41,-13,-5
1573325013923975,3,-2,0,2,23,-28,-4,-6
1573325013923975,-13,-1,-5,-9,-75,-4,7,-10
1573325013930808,2,-1,-1,-3,16,10,6,1
1573325013930808,-6,5,-2,-3,-1,-5,-4,-7
1573325013948079,1,5,1,1,15,14,-2,-15
1573325013948079,-2,-18,-2,5,48,5,3,-3
1573325013949145,-1,-1,1,-5,-10,-2,-5,-1
1573325013949145,4,3,3,1,-5,-11,3,7
1573325013969640,-15,-5,-9,-19,-29,2,-21,-22
1573325013969640,8,13,9,13,7,-12,3,7
1573325013971475,-5,-7,-3,0,17,4,-4,-2
1573325013971475,3,1,-6,-7,-38,2,9,6
1573325013984264,4,8,2,1,15,7,2,-4
1573325013984264,-9,-13,9,8,51,13,1,-4
1573325013990908,-1,5,7,5,-34,2,5,-3
1573325013990908,1,-2,1,0,-35,-13,-9,3
1573325014007665,1,3,3,5,-2,-5,12,-1
1573325014007665,5,9,-4,-16,30,-4,-9,4
1573325014008478,7,1,-2,1,-13,-3,-6,3
1573325014008478,4,1,3,3,-1,-4,0,-10
1573325014030107,-6,-6,-1,8,6,16,-1,-40
1573325014030107,-3,2,-5,-12,-16,-17,6,-32
1573325014031017,-8,-2,-7,8,-1,-2,-7,32
1573325014031017,9,5,7,-1,-3,-5,2,87
1573325014044072,5,4,5,2,-23,18,-15,46
1573325014044072,6,-6,-9,1,17,-5,11,25
1573325014050898,-19,-8,-6,-12,-13,12,-15,-67
1573325014050898,19,15,4,5,-5,7,27,43
1573325014067490,-23,-21,-8,-10,-10,-14,1,-57
1573325014067490,-3,-9,-4,7,-4,6,-3,-13
1573325014069444,12,20,14,4,14,0,1,1
1573325014069444,-7,-5,-2,9,8,-9,-3,-20
1573325014089939,-23,2,-5,-8,5,-4,-23,9
1573325014089939,-10,4,-6,-2,-19,-12,-10,-15
1573325014090915,2,-6,-2,-4,21,24,0,23
1573325014090915,6,-5,1,4,16,-44,-14,-17
1573325014103603,11,-2,-11,-22,-1,-10,46,23
1573325014103603,7,3,12,24,-29,-3,-23,13
1573325014110456,10,4,-1,-5,21,-6,6,36
1573325014110456,-7,-6,-8,-12,-30,-12,-15,-58
1573325014127043,34,3,3,11,49,36,34,7
1573325014127043,2,2,-2,-7,-29,5,-24,-6
1573325014128978,-32,-7,-6,-8,-31,-10,3,-27
1573325014128978,15,-3,1,10,64,-5,-4,25
1573325014155854,9,6,12,12,18,-23,-21,-4
1573325014155854,-19,4,-2,-17,-23,34,37,-3
1573325014155854,-6,-7,-5,6,1,-4,-17,-34
1573325014155854,8,-5,-9,-12,5,27,2,5
1573325014163663,-10,-4,-3,-11,14,-14,-10,-28
1573325014163663,14,3,4,29,18,-14,4,-4
1573325014170493,8,0,2,-8,6,2,9,-1
1573325014170493,-19,-5,6,37,7,21,25,-4
1573325014187086,7,3,2,6,-1,-6,-20,26
1573325014187086,-14,-6,-2,-8,-3,0,0,0
1573325014189038,12,4,4,-1,-3,-1,5,11
1573325014189038,-4,-2,-3,-9,13,28,-25,-11
1573325014209534,-8,-6,-2,-2,-33,-28,-1,-1
1573325014209534,-1,5,0,-1,2,-17,-10,2
1573325014211487,-1,-1,-1,-3,7,24,16,6
1573325014211487,-7,-3,-3,-12,0,-4,-12,-8
1573325014223401,11,5,2,5,21,44,6,2
1573325014223401,12,9,-1,-12,5,-6,31,10
1573325014239789,-6,-13,-8,1,-4,-56,-68,-2
1573325014239789,-4,0,3,-7,-17,-14,6,-3
1573325014247605,-10,-8,-4,1,-2,11,-7,-21
1573325014247605,-1,4,3,1,29,17,4,4
1573325014248577,6,12,3,2,-4,2,10,4
1573325014248577,3,-7,-3,-3,3,6,4,-5
1573325014270049,11,11,3,-2,-23,-22,-3,47
1573325014270049,-5,-10,-9,-5,-8,-8,-5,-14
1573325014271025,-9,0,1,1,-8,-2,7,-8
1573325014271025,-14,-8,-3,-9,-12,-4,-4,-13
1573325014283719,-5,-4,-1,2,-3,2,-1,-7
1573325014283719,2,5,4,-2,-3,2,8,38
1573325014292495,9,-2,0,2,2,6,3,-5
1573325014292495,-2,6,-2,-5,0,-1,10,0
1573325014307257,-11,1,-1,-3,5,3,-3,-17
1573325014307257,9,-4,-6,-3,6,0,6,10
1573325014309088,-22,-20,-11,-4,-8,-6,-12,-58
1573325014309088,21,13,14,-1,-13,-1,14,-1
1573325014329583,-42,-12,1,0,-30,-16,-21,-111
1573325014329583,2,9,1,-1,28,21,-6,-20
1573325014331534,20,-4,-1,-1,-61,-21,15,44
1573325014331534,14,7,-3,-7,-2,-11,-2,18
1573325014343591,-17,-16,-8,-4,-19,-12,-5,15
1573325014343591,4,3,2,3,-13,0,-5,20
1573325014352380,-6,-10,-5,-3,23,8,-8,-2
1573325014352380,-10,-10,-5,-3,-3,0,8,15
1573325014374856,12,3,2,1,2,-4,-3,13
1573325014374856,16,-1,0,-2,7,4,-1,31
1573325014376781,12,8,0,1,12,15,22,32
1573325014376781,-10,-1,2,2,1,31,16,-6
1573325014390533,7,7,0,-2,33,-3,-23,30
1573325014390533,2,1,-2,-7,-28,1,34,-3
1573325014392398,-11,-2,2,3,11,-7,2,-5
1573325014392398,-13,-3,-4,-1,-1,7,-10,-12
1573325014403384,10,5,-2,3,1,-34,7,16
1573325014403384,-14,-8,-4,0,4,-10,-11,1
1573325014412337,6,9,4,-1,2,-4,-6,2
1573325014412337,0,-6,-3,1,0,-10,-3,-14
1573325014427541,9,0,-3,-1,3,26,13,20
1573325014427541,-4,-5,-2,-2,-5,-9,-11,-24
1573325014428511,-7,2,-3,-1,21,10,4,-1
1573325014428511,8,4,0,-4,-54,-17,-12,-5
1573325014449900,5,7,0,-3,-17,3,7,-3
1573325014449900,-9,-11,-2,-1,5,2,-4,-8
1573325014455750,1,6,9,6,-18,12,-2,3
1573325014455750,-23,-7,-3,0,-15,-15,-7,-23
1573325014463555,1,-4,-5,-3,-9,5,14,11
1573325014463555,-7,-3,-6,-4,-1,-18,-38,-14
1573325014472482,4,4,0,1,23,14,34,-7
1573325014472482,-2,-2,0,-4,16,-18,-38,-17
1573325014486978,3,9,6,7,-4,-11,7,2
1573325014486978,-9,-2,3,3,16,2,-4,-8
1573325014489137,6,-3,3,2,-11,-13,-4,19
1573325014489137,7,4,-2,-3,-8,13,11,6
1573325014510404,-11,-8,-4,-3,5,17,-10,-3
1573325014510404,1,-1,-2,-5,-3,13,36,-2
1573325014511740,5,-2,-2,-5,-6,-11,-10,12
1573325014511740,3,2,-2,5,24,0,3,-14
1573325014523090,-2,-3,1,-3,-4,-1,-5,-1
1573325014523090,-1,1,2,0,-8,2,0,-1
1573325014531874,4,0,-1,-1,-3,-9,-5,3
1573325014531874,-1,1,0,2,36,4,2,2
1573325014547573,7,-4,-2,0,-17,-1,1,-2
1573325014547573,3,8,0,-1,-6,-8,-6,1
1573325014548580,-4,-4,0,3,34,26,-1,3
1573325014548580,2,5,-1,-1,30,-18,-5,0
1573325014577119,-7,-16,-1,-2,-26,-4,1,-9
1573325014577119,3,0,-2,-1,-1,12,11,6
1573325014578804,0,1,1,-2,-1,-3,-7,-3
1573325014578804,-1,-3,1,3,16,16,4,8
1573325014583761,1,4,-2,-1,15,-12,-5,1
1573325014583761,2,1,1,0,-21,-1,6,0
1573325014592467,-2,-1,-5,-2,24,5,-1,-1
1573325014592467,4,4,1,-3,-32,-4,2,3
1573325014614914,-9,-9,-3,-3,-3,-16,4,-12
1573325014614914,-3,-8,-1,-3,7,27,-10,-7
1573325014615893,-9,-6,-5,-5,-14,-26,18,0
1573325014615893,1,3,-1,3,-2,-14,-18,7
1573325014629554,2,4,1,1,8,0,2,-4
1573325014629554,0,-1,0,0,5,-17,-5,-4
1573325014631507,8,7,3,1,-7,13,8,11
1573325014631507,-3,-4,-1,-2,-13,9,3,-11
1573325014643216,-4,2,2,4,14,3,-1,1
1573325014643216,-2,-3,0,-2,-2,5,-1,1
1573325014652312,-5,-3,-2,-1,-13,-4,-9,-24
1573325014652312,-8,-5,-7,-5,2,-2,24,-9
1573325014666930,17,7,5,7,18,19,-18,56
1573325014666930,-2,0,-3,-1,-6,-3,3,-4
1573325014670835,0,0,1,2,-7,-5,-6,21
1573325014670835,-4,-2,-1,-1,-4,-7,-2,-9
1573325014689498,-4,1,-3,-4,6,5,8,-20
1573325014689498,-9,-7,-2,-3,-3,1,-1,-21
1573325014691331,3,1,-1,0,-3,-10,-14,-5
1573325014691331,-2,4,1,0,10,10,2,3
1573325014703159,3,0,-3,-2,-5,2,1,1
1573325014703159,4,2,1,0,1,-11,-6,12
1573325014718671,-4,-3,0,-2,3,4,-5,-9
1573325014718671,1,-1,1,1,-5,0,0,14
1573325014727445,-4,-3,-1,-2,-2,-1,-9,-24
1573325014727445,10,5,-1,1,-3,-9,5,65
1573325014728426,-5,-6,2,1,1,-6,-13,-11
1573325014728426,-4,-2,0,-1,-6,4,9,-6
1573325014749963,-1,-4,1,0,-3,-5,-7,-9
1573325014749963,-4,-3,0,2,6,0,-5,-4
1573325014750869,12,3,-5,-3,-5,3,0,8
1573325014750869,1,-5,-2,-2,-4,0,-4,4
1573325014763644,-4,-3,-3,-1,0,1,5,-3
1573325014763644,-5,2,3,0,1,-2,0,-11
1573325014778284,-17,-11,0,-1,-1,-8,3,-3
1573325014778284,3,19,1,0,-5,10,10,-5
1573325014794992,3,6,0,-1,2,31,42,1
1573325014794992,6,2,-1,1,2,-17,-20,-9
1573325014795768,9,-9,0,-1,-1,-1,0,-1
1573325014795768,-39,-8,-4,-1,-2,-14,-3,-77
1573325014809451,44,1,-4,-1,-4,3,-5,14
1573325014809451,-4,2,4,1,-2,0,5,-5
1573325014811383,-1,0,-1,-2,-1,5,4,-37
1573325014811383,5,3,3,3,-2,5,-7,20
1573325014823093,-21,-11,-5,-2,-3,-7,-5,-16
1573325014823093,-5,-7,-7,-5,-4,-3,-5,-35
1573325014832179,5,7,2,-3,0,-3,-2,-7
1573325014832179,5,-5,0,0,0,5,0,21
1573325014856212,-3,4,4,2,1,-10,-8,12
1573325014856212,5,0,-2,1,-1,-1,-4,-2
1573325014858158,-6,6,1,2,1,7,7,12
1573325014858158,7,-1,-3,-4,-3,-4,-2,16
1573325014870108,-5,2,4,3,1,-5,-4,4
1573325014870108,-8,-6,-7,-4,-4,4,10,-5
1573325014870966,4,7,-2,-3,0,3,-26,59
1573325014870966,27,9,5,1,1,-4,-3,17
1573325014883680,-3,-13,1,4,4,-5,-15,-22
1573325014883680,-72,-10,1,-1,-1,2,-6,-39
1573325014892365,-11,-3,4,3,0,0,12,-38
1573325014892365,38,-14,-8,-5,1,-4,-9,11
1573325014914960,-4,19,-4,0,-3,-2,-6,46
1573325014914960,35,11,1,1,1,-3,-18,-58
1573325014916718,-4,1,2,4,0,1,-6,50
1573325014916718,-23,5,5,-5,0,3,0,3
1573325014929812,-19,-13,-6,0,-1,-3,2,-31
1573325014929812,11,2,0,-1,-2,3,4,12
1573325014931359,89,5,-9,-10,-1,0,7,-5
1573325014931359,-32,-7,-1,6,-3,-3,2,-6
1573325014952499,-21,-4,-3,-6,1,-2,-5,18
1573325014952499,-12,-1,5,-3,-4,-3,1,11
1573325014953476,2,-4,-4,3,-4,-2,1,1
1573325014953476,23,2,-4,3,0,-3,1,-3
1573325014966279,-22,-4,-5,-11,-3,-2,14,41
1573325014966279,3,6,-2,-2,-3,3,1,21
1573325014972993,10,26,9,7,4,1,5,-3
1573325014972993,23,-26,-13,-10,-3,-5,-8,-3
1573325014989619,-78,-15,10,4,1,0,1,-21
1573325014989619,-37,-18,-8,-13,4,-1,12,-31
1573325014991537,-78,-16,-2,5,-4,-1,-8,21
1573325014991537,47,42,-2,0,-4,-4,-2,-52
1573325015012098,18,-16,0,0,-2,-1,-5,-3
1573325015012098,56,13,-1,-1,0,-3,0,-21
1573325015013984,-5,-9,0,-3,1,1,5,23
1573325015013984,-53,-17,3,2,3,1,0,14
1573325015026893,112,24,-3,-3,-2,1,-1,-65
1573325015026893,-66,-9,0,7,2,1,0,11
1573325015033834,49,5,-3,-5,-5,-5,-5,-18
1573325015033834,-59,-9,5,4,4,5,1,27
1573325015050168,37,6,4,-2,-5,-2,-5,7
1573325015050168,12,2,-2,4,-3,0,2,28
1573325015051056,-27,-15,-7,-13,1,-1,2,-30
1573325015051056,15,15,6,3,-3,-3,10,-76
1573325015072527,81,4,-7,0,0,3,0,91
1573325015072527,-74,-7,-1,-3,-5,2,-3,6
1573325015073564,7,-4,-3,2,-5,-5,-9,-68
1573325015073564,14,-13,-1,-2,-1,1,6,-6
1573325015087259,-18,11,2,-5,0,-4,-6,-20
1573325015087259,127,20,9,9,1,4,4,43
1573325015094979,-77,-8,0,3,-1,-1,-1,-51
1573325015094979,-21,-9,-1,0,-1,1,5,17
1573325015109614,0,13,4,-2,3,-12,4,7
1573325015109614,25,1,-8,4,-3,10,-9,1
1573325015111567,-70,-16,-3,-3,-2,-2,-5,7
1573325015111567,-56,1,5,-3,-7,-12,0,-31
1573325015133048,5,-44,-7,3,7,7,1,18
1573325015133048,42,20,6,5,4,0,10,40
1573325015134016,25,-6,0,-1,-2,-8,5,-28
1573325015134016,127,16,-1,-8,3,-2,-7,42
1573325015145809,23,15,-1,-3,1,2,0,-37
1573325015145809,-49,-45,2,10,3,-2,4,-17
1573325015155112,127,28,-9,-2,-6,-57,11,49
1573325015155112,-43,-5,0,-1,2,16,-19,20
1573325015169755,21,15,2,4,-1,-3,-6,-6
1573325015169755,19,10,1,-4,-5,-5,-8,6
1573325015170726,-94,-30,-4,-4,-2,24,14,8
1573325015170726,-6,1,1,-7,-1,1,0,7
1573325015192268,-85,-15,-1,7,-3,-9,-3,2
1573325015192268,73,9,-2,-6,4,7,15,54
1573325015193522,-38,-1,-4,-7,-6,-4,-10,-71
1573325015193522,-10,7,5,5,-1,-5,13,1
1573325015205923,2,-10,-3,-5,-2,12,7,10
1573325015205923,-29,-6,1,-4,1,-4,-4,-14
1573325015214716,23,21,1,1,0,13,-2,24
1573325015214716,3,-16,-5,4,4,0,-3,9
1573325015229366,112,31,1,-2,-2,-9,3,-14
1573325015229366,-100,-22,-5,5,-2,-12,-5,-35
1573325015231242,24,-1,2,4,-5,2,-3,12
1573325015231242,-1,-16,-4,6,-3,2,-1,-8
1573325015252720,-29,9,-1,1,-3,0,22,6
1573325015252720,18,0,-1,-2,3,4,-10,-94
1573325015253774,-53,-9,0,-2,4,72,38,55
1573325015253774,25,2,-1,-5,3,-34,-37,2
1573325015266387,-35,-2,1,0,-4,-34,-30,-28
1573325015266387,34,9,-5,-14,-2,58,38,-34
1573325015275170,2,-13,0,-1,0,-12,1,14
1573325015275170,40,7,-1,0,2,20,5,15
1573325015289883,-18,0,-3,-2,-2,9,0,-71
1573325015289883,-9,-5,-2,-1,-3,-49,-11,65
1573325015291061,42,10,7,6,4,-18,-12,74
1573325015291061,-19,-4,-3,-1,-5,1,5,14
1573325015312255,-24,-6,-3,-2,2,-6,-18,-15
1573325015312255,4,0,-1,-4,-7,-3,3,-39
1573325015314201,9,6,1,-1,0,1,-2,-8
1573325015314201,-2,-5,-4,-2,-2,-28,-20,-16
1573325015325914,-3,8,7,4,3,22,24,-16
1573325015325914,-3,-5,-2,0,2,2,4,40
1573325015334698,23,7,-3,-3,0,62,25,-99
1573325015334698,-24,-3,-6,-6,-6,-66,-70,-11
1573325015349543,0,-4,-5,-2,-4,-7,-8,6
1573325015349543,27,-1,-1,0,1,14,-2,24
