timestamp,emg1,emg2,emg3,emg4,emg5,emg6,emg7,emg8
1570180012176771.0,1.6699130031835834,1.8747609882061644,1.2924871996697913,0.8496030984037112,0.0971106032317655,1.4332128691361774,9.453839404587763,15.692491539345635
1570180012176771.0,2.1219120495857786,0.6691982335560703,0.488686638422088,0.41836375916690294,0.26780944838399995,1.3775289528467671,4.487158331086729,8.402882852715683
1570180012177770.0,2.0822445634267663,0.5886443929543217,0.4588615042853146,0.3347791959128144,0.32202998342411915,1.3512091126632269,4.588513986757219,8.780671711850344
1570180012177770.0,3.021933408447347,0.9103355722700786,0.19768165342832905,0.2635215675926266,0.4568946139840855,1.3213204493541901,2.988130610895045,6.698301968518822
1570180012198718.0,2.9930188199552883,0.8706474834414802,0.20727052655976305,0.2192229236403704,0.4925053599681697,1.3029210545627288,3.086352433301687,6.97043174985246
1570180012198718.0,3.5568618374608048,1.1760162855073528,0.15435141534386201,0.2587369598524659,0.5747752873126593,1.2843202873197361,2.165717999636032,5.895227101535552
1570180012198718.0,3.51370051921008,1.1435710108383974,0.1908150750103615,0.24896529066005543,0.6023672747269573,1.2746204812506452,2.267907937960167,6.115486571326412
1570180012198718.0,3.8993854743915852,1.3715492328398184,0.24434216541498224,0.3130396769583957,0.6632839391978416,1.2664147078244423,1.6387931260466178,5.435032913525744
1570180012200707.0,3.8633328535333984,1.3477154331053889,0.27724385728670886,0.3195852303496958,0.6871502917785473,1.2667377347290816,1.7362035770161162,5.589631860184747
1570180012200707.0,4.164342520998027,1.5289374181963684,0.3485593501448941,0.37866536732341183,0.7357802003164743,1.2680322048225146,1.2664854526798992,5.1065866456382345
1570180012203754.0,4.134671531756743,1.5080607033159754,0.3797851981515464,0.38819709907162964,0.7535076307452946,1.27418932151068,1.361368351245789,5.235983871920974
1570180012203754.0,4.373695070020838,1.6545435665785306,0.4459451380913403,0.44029481337204013,0.7886203111382243,1.2780216615893163,1.0079813581461374,4.897954235440919
1570180012204821.0,4.338805635118105,1.6362964866851375,0.47117442599402,0.4521556389117669,0.7999896132042564,1.28466763414454,1.101551530857335,5.015052724291014
1570180012204821.0,4.530633532140817,1.7588684284913534,0.5247642416776068,0.4961531811079638,0.8274647318209095,1.2911854148356865,0.8312730002242984,4.754512531385301
1570180012214669.0,4.501565583056889,1.741834612123823,0.5423808659188306,0.5056716938055018,0.8387609589453102,1.3030287828796128,0.9155115587489083,4.837046952370371
1570180012214669.0,4.669525584930962,1.8477017353513296,0.5845880369169982,0.538630440279231,0.8671178492953268,1.3144463824339323,0.7211965189955853,4.6328134867016875
1570180012226680.0,4.642201911197177,1.8327658446648536,0.5982691853576281,0.5426558383640466,0.8806238733360793,1.3276495302185274,0.7962720200804079,4.717547763138643
1570180012226680.0,4.782270466803275,1.9257065424906932,0.6315169549335788,0.5713491155842433,0.9054107835956209,1.3400964269767943,0.6700740535740626,4.580040575931372
1570180012250578.0,4.749690012138684,1.9146477043584922,0.6364382199541966,0.5781937731267133,0.9158268409256465,1.35641839026969,0.734563229188786,4.661926201780024
1570180012250578.0,4.8676653479280105,2.0012183806790254,0.6603939866491698,0.6058179412985332,0.9369402077032272,1.371459236184399,0.6702856819222737,4.561256712050711
1570180012253565.0,4.830272818948767,1.9934422275865062,0.6647712517656854,0.6139011703744527,0.9471919298919609,1.386228331362733,0.7211505350551114,4.644451514102938
1570180012253565.0,4.924434911943262,2.0722645011424197,0.6885947089810115,0.6407331058948517,0.9677982352997618,1.3968795983152187,0.7002158385386287,4.58177481088779
1570180012265543.0,4.882828661801428,2.066882883943459,0.6934848971495807,0.6486385300796254,0.9764878969093186,1.4077170082684975,0.7379499110188894,4.667653618059931
1570180012265543.0,4.961555907252465,2.139751158036875,0.7156184247709765,0.6716881604135184,0.9939849264356805,1.4163762551697567,0.7492872559872686,4.615624659753734
1570180012267572.0,4.919160109626845,2.1327119319581773,0.7215679982033864,0.6806465500408192,1.0049562426870027,1.4246834511301014,0.7747010850160726,4.66723370926426
1570180012267572.0,4.995261604311503,2.193977177810896,0.7441066298086445,0.7061173585577161,1.0265525700449307,1.4307468473749119,0.8023119639077931,4.608119841361983
1570180012285479.0,4.9603016993210245,2.1827406549735113,0.7522881592100961,0.717860103157043,1.0397626240776747,1.436790692182081,0.8175531392284175,4.663951773122606
1570180012285479.0,5.025082992355086,2.238682324470108,0.7756197483321325,0.7419673938680736,1.0591332138094836,1.4404533695353037,0.8540845310151959,4.634041594713102
1570180012319501.0,4.986606176458263,2.231324748183484,0.7827577320205925,0.750896208401252,1.069734735047015,1.4455678304094153,0.859490008887635,4.682998772788722
1570180012319501.0,5.045760626093862,2.2872026661306464,0.8014327489772574,0.7704652688904365,1.0877030720128809,1.4495961880023158,0.9017041518856376,4.646135683528721
1570180012320383.0,5.0091059555263735,2.2819289817170607,0.8040509674711335,0.778311385758616,1.0989871738288413,1.4561629986648,0.9033431378150701,4.686430852478531
1570180012320383.0,5.060164213569476,2.3296197332345274,0.8165391663923298,0.7977660369706261,1.115664918055927,1.4652965023604945,0.9535847755601836,4.664887519167025
1570180012323425.0,5.026541930620139,2.3175346920686724,0.8166980706323225,0.8065373234949555,1.1247542359933262,1.477442806327543,0.9513691383230575,4.712596229309217
1570180012323425.0,5.087322121042638,2.36125195856608,0.8283745203027197,0.8255071403485985,1.1395583445465882,1.4883404195885386,1.0021982769046078,4.71515881007709
1570180012324380.0,5.072746319547045,2.3564299583291,0.8278725905455251,0.8336604556710819,1.146360468408706,1.500362848793065,0.9955522696334309,4.783120043462369
1570180012324380.0,5.1422430244966195,2.403824132077788,0.8384574932285299,0.8517238011259571,1.156479856658996,1.5128257757306596,1.0483338619908418,4.807630488642624
1570180012339384.0,5.136065092070056,2.4011484671547056,0.8380264302910679,0.8623932301702928,1.1612007863957556,1.527379918655019,1.0399341245838465,4.879870349773086
1570180012339384.0,5.205607383184067,2.4447005504920645,0.8466380357585989,0.8833044565427256,1.1698263152768082,1.540631508604009,1.0992177397551919,4.916911868595176
1570180012346317.0,5.200629971996822,2.439161827895955,0.8441471739695449,0.8948523146291882,1.171105478224641,1.554357338419009,1.0971462384263826,4.994339466085372
1570180012346317.0,5.263100812730124,2.475734241613368,0.8492561986170594,0.9118098298522491,1.1760598138837979,1.5672431217130056,1.164421588444262,5.033850662373329
1570180012354343.0,5.251019895155192,2.4664594977724046,0.8427730337111278,0.9194700918786558,1.1766708516741649,1.5816128428905776,1.1647339871390605,5.115310314414008
1570180012354343.0,5.2951454646288125,2.499419963523836,0.8451760628664909,0.9366040383008376,1.1837117140308988,1.5968298326823802,1.23392238222207,5.162380843146048
1570180012361418.0,5.262978127150539,2.4915413536959776,0.8400484289358109,0.9482901323148258,1.1878075459583093,1.6145189101953812,1.232710851623239,5.222658710040172
1570180012361418.0,5.298213984481042,2.5255744299529685,0.845913610949849,0.9675505036731575,1.1959239483940671,1.6324014360511443,1.2970045869153584,5.22888245551516
1570180012375237.0,5.281554829524317,2.5215815232230825,0.8446793791117375,0.9774721673525781,1.198521934580018,1.6514675091446902,1.2937539645787628,5.267448064216463
1570180012375237.0,5.329194558253561,2.557435983409816,0.8551954155114835,0.9886413773747612,1.2058304309765568,1.6692398981347591,1.3567287020157852,5.269952736059728
1570180012392316.0,5.3086532367723445,2.5556165291495834,0.859775198457858,0.9885591751750067,1.209721766511395,1.6878222254929744,1.3497216558662954,5.302246199501769
1570180012392316.0,5.334762461614094,2.5900478577240333,0.875387986385156,0.9905191955608005,1.2174472803913714,1.7050207918254987,1.403740858728127,5.274567707289558
1570180012398278.0,5.304110699037067,2.5859917749017156,0.882606724542156,0.9839412780758381,1.2225196803542864,1.722293456363692,1.3911230594867001,5.256731356353579
1570180012398278.0,5.334032810549172,2.613948688897335,0.8972623048073625,0.9824920570885691,1.2326048394975608,1.739072903624964,1.438995668252224,5.192944732144147
1570180012414309.0,5.305320361843853,2.6044710328704,0.901900463848071,0.976524159006569,1.2392883797896646,1.7554864437702586,1.4204236056954198,5.174498367745413
1570180012414309.0,5.328593078809258,2.6281169041982455,0.9143213916975327,0.9760528958820224,1.2473975843162017,1.7688437541473512,1.4616677870325547,5.121805638569099
1570180012416129.0,5.308918050887225,2.61873093551564,0.9191258660452578,0.9719452928071473,1.2492402972086956,1.7816105665772533,1.4420240528810822,5.110062671001129
1570180012416129.0,5.348794260890872,2.64280343146634,0.9344018698028496,0.973988383026888,1.2522529017055193,1.7937904755291183,1.4860097991688876,5.070345636966314
1570180012428391.0,5.340059234315652,2.637673364297904,0.9429595094691037,0.9709315196181226,1.2493835079965832,1.806582682248817,1.472448269303327,5.070035939791845
1570180012428391.0,5.381746850083655,2.6655243835802094,0.9569918625059551,0.9705837741177672,1.2486437041734852,1.8196240066562532,1.5230422122603409,5.040225200284119
1570180012443282.0,5.37580921418978,2.661897149763344,0.9587709430209262,0.9647061331319718,1.2467281244160378,1.8348750293114289,1.513876605132426,5.049952509413027
1570180012443282.0,5.421121800926871,2.6869439221631084,0.9667869913836062,0.9620920132365205,1.2496447491187712,1.851450783415313,1.565968085547712,5.038423815954181
1570180012452035.0,5.424879019219581,2.681893268430899,0.9675687648343181,0.9550887725808993,1.2476747637033319,1.8721096258682521,1.5573186110549853,5.068012246190043
1570180012452035.0,5.4798850109737165,2.707164257563438,0.9769615993542915,0.954646130410262,1.2474489860688038,1.8938638670288137,1.6101934540075113,5.07022893302532
1570180012458021.0,5.49095540501915,2.7049182085302967,0.9804785210528294,0.9507794847946154,1.2474162223541152,1.9164362270612396,1.6057311881987077,5.093882627426898
1570180012458021.0,5.548843546887135,2.731720713487273,0.9923398079141305,0.9492188864543221,1.2526608299154895,1.9398438619110083,1.664057980708787,5.091950679513398
1570180012474975.0,5.56191890733994,2.731771504268395,0.9977426029636498,0.9433248953081205,1.254120592459256,1.9654907138057411,1.665594699923476,5.127776643081443
1570180012474975.0,5.61671092696664,2.7605352608846636,1.0107190974380469,0.9431820218884552,1.2581872882171732,1.991936481470839,1.7280244883026152,5.150175891114924
1570180012475969.0,5.626562653913,2.761842244903063,1.016408521944844,0.942085770561128,1.261087936988532,2.020525289353296,1.7292549583595387,5.213158528359182
1570180012475969.0,5.673248121535288,2.7881961687534877,1.0260959188426957,0.9465110047147328,1.2675881123784543,2.0482206636577245,1.7817385442850222,5.250950759070357
1570180012487942.0,5.666022589898113,2.790167393542585,1.023623022802758,0.9468377489722477,1.2725269353117068,2.074673226764112,1.7693507202097143,5.27822647872419
1570180012487942.0,5.694278823025885,2.8211387610995327,1.024435738080723,0.9513340732262712,1.2814629520277137,2.098884633136132,1.810655676882702,5.231592287675037
1570180012496914.0,5.689192116005602,2.829065375123962,1.0202058263884528,0.9520222887098116,1.2874936734172941,2.121755148604895,1.7986297083073823,5.197315478867009
1570180012496914.0,5.729847157422309,2.8638894493869143,1.025161940781025,0.956108993104826,1.2953664140259957,2.1432156819562223,1.8462852632049487,5.138982128610177
1570180012512088.0,5.732611008137275,2.8733306907770775,1.0246646021156354,0.9575141173600608,1.2999487591074759,2.1659381926353567,1.84058025874124,5.114597547082401
1570180012512088.0,5.775928745936196,2.904255203974197,1.0323804774412106,0.9642112608858283,1.3055398006466228,2.1887881432044503,1.8875187358838112,5.058350395566247
1570180012513866.0,5.783048452283007,2.9095624668967863,1.036949058631168,0.9683896544209322,1.3081434044081062,2.2146168939954105,1.8767591727809647,5.03561495299458
1570180012513866.0,5.831240020571432,2.9386646822331235,1.0505852494465189,0.977337398106406,1.3138785200897956,2.2444738718251593,1.9204749013510167,4.989185344793677
1570180012534878.0,5.845327048776402,2.943967219255504,1.0576271187712718,0.9833008915710135,1.315538569431261,2.2780173182312926,1.9122693509435686,4.974792006158431
1570180012534878.0,5.899827042504136,2.972910071882527,1.0702154101968027,0.99269384497493,1.3158776023652516,2.311950049499164,1.9604257501232283,4.934374954942876
1570180012535810.0,5.917121008950074,2.982172795182607,1.0771115860260096,0.9988808702036841,1.3109575991357034,2.3469387898587595,1.9580144589721553,4.927862281453114
1570180012535810.0,5.966385394691143,3.0164713735000355,1.090623361585401,1.009561315911237,1.3074552797304595,2.381695792466401,2.01162127083689,4.885671983201815
1570180012555761.0,5.980348835045909,3.0275943903067173,1.098707932025308,1.0163647565082745,1.3026288046588315,2.41660643344234,2.01536449254705,4.853831292748642
1570180012555761.0,6.035811063601471,3.059347568678212,1.1144398326862202,1.027071392399919,1.3011827561380551,2.4514036205920484,2.0741376892780137,4.783954567491085
1570180012564738.0,6.061521330408345,3.070583535332075,1.1250157929242741,1.0348049082211324,1.2980936311397422,2.4862353295752033,2.0818279918660507,4.748105506273946
1570180012564738.0,6.1245666018731235,3.1034575072134216,1.1423929033109264,1.0444098376708046,1.296913446834721,2.5200655939306857,2.1442432981505806,4.691611746612908
1570180012571716.0,6.157039200903014,3.112729021607309,1.1534037449968289,1.0496763271962588,1.2942504482685298,2.556728370133641,2.157966330434471,4.663443563489717
1570180012571716.0,6.226610991835015,3.141233433268013,1.1710586362134852,1.059641713320959,1.295975697782056,2.5960983872962933,2.227518099296257,4.602769109580152
1570180012573764.0,6.262957822640295,3.148452654768702,1.1844203331072922,1.0678858318964792,1.2966244215331197,2.636980980107257,2.2471692261070357,4.567009682126136
1570180012573764.0,6.331972173305947,3.173940378324846,1.2028059299938476,1.0814699659430007,1.2996150040354606,2.6754815286890246,2.318052528590545,4.5008865444797115
1570180012594700.0,6.370204371472652,3.1781534015653365,1.212734095317634,1.092378522205782,1.3001532403039724,2.7121510067220846,2.338266541005488,4.465277439187813
1570180012594700.0,6.444453319861882,3.203256972638546,1.2272051032415323,1.1051207982400415,1.303853379184978,2.7481676839436346,2.409949265222882,4.4182129511851524
1570180012595837.0,6.490434278272163,3.2100013917466876,1.2359302496964029,1.1125725889693647,1.3082744156553319,2.7849540663980985,2.433818267645255,4.40092176498625
1570180012595837.0,6.5681694611749615,3.2401808608261646,1.2507345788460587,1.1192935391722612,1.317788660251772,2.821682305083337,2.5099768357397245,4.350355431489537
1570180012616592.0,6.610251109632498,3.2557144062759726,1.2596866163394072,1.1183872100627106,1.3275224734958535,2.859565648473431,2.53770908266303,4.320269814843065
1570180012616592.0,6.675782723387258,3.294115869514749,1.27290066382918,1.1204840999980545,1.341820851801411,2.895568338116611,2.610513786142575,4.277651097930017
1570180012618622.0,6.703928993014199,3.316493928523429,1.2793772925867062,1.1232067787326367,1.356547103236436,2.927994413473733,2.627877904397297,4.260197079427553
1570180012618622.0,6.764782593671886,3.358426789147711,1.287819027177114,1.1311609159871965,1.3739704640435688,2.9587551540906376,2.6878824195340973,4.216286025874671
1570180012631597.0,6.80401835860579,3.3806689594897383,1.288452911395819,1.1357508578511573,1.3894173390030506,2.9938428699519117,2.7010086343104334,4.194500288956562
1570180012631597.0,6.877598614298812,3.42024213792817,1.2922853079237184,1.1416419052727176,1.409681881667476,3.0334752068391855,2.7633422901681306,4.1598986442977886
1570180012633598.0,6.922991127304228,3.442158705604325,1.2875703191276078,1.143310234202618,1.4296760588952337,3.0770852630895167,2.7826850169540642,4.146333485711072
1570180012633598.0,6.99861897251011,3.4851882036137654,1.2856150032403209,1.1486687039340562,1.4526089936563233,3.1229561888370276,2.8506026251048477,4.120392909554504
1570180012654492.0,7.046244385600989,3.5120446549144617,1.2803117497323369,1.153860780807354,1.4741734502412338,3.1713718979255465,2.874609692072658,4.1212508948002675
1570180012654492.0,7.119555857552075,3.5563668117726586,1.2824605167374097,1.1658608166451503,1.4981274300065173,3.2207571046296626,2.943724143351144,4.1102981946407535
1570180012656487.0,7.158949980600732,3.5845041905802004,1.2831799731554174,1.1783220872865374,1.518815496842579,3.2710878249375552,2.970435502903516,4.104725145864093
1570180012656487.0,7.224557868179379,3.6322233160285515,1.2930812490703656,1.1950294024717394,1.5396292281629183,3.3220463362783006,3.04711293678186,4.072366455520405
1570180012677428.0,7.267248477533047,3.662786367059126,1.3010192292744165,1.208714509526319,1.5578589983240987,3.3736265661431366,3.083349676969207,4.046501021911346
1570180012677428.0,7.346898641081392,3.711984991138117,1.3156901263075977,1.2261595017808606,1.5784793029494633,3.424720118735064,3.164523996709014,4.003171734324466
1570180012678429.0,7.407794026093721,3.748710772591606,1.3273485242275826,1.2422510302610517,1.5974746096119967,3.476088721536788,3.2044394018628113,3.9750127250843974
1570180012678429.0,7.497724953073805,3.8065737857186748,1.3456785887257525,1.2625772377750968,1.6198836600728794,3.526221892717966,3.288552137924397,3.9365452782389947
1570180012691441.0,7.558644356702704,3.849439284411031,1.3613119864301026,1.2820124474412034,1.6410325506839534,3.575985234048636,3.3286981620297147,3.9111889252507526
1570180012691441.0,7.649393874688467,3.909484778909515,1.38158133941991,1.3047116384941544,1.6621856179636518,3.6250225195989207,3.4060822987670822,3.8780057581404397
1570180012698420.0,7.721912702059742,3.9548639182047864,1.3954268371387828,1.322237851970157,1.6782927445304516,3.6762681917523743,3.4407460867541424,3.862996385524346
1570180012698420.0,7.825688889175856,4.019994364872711,1.4151054212478331,1.3403780085510768,1.6950389835722097,3.7311454434835714,3.520685722929661,3.8493977058474287
1570180012714416.0,7.907988063224923,4.072517743584025,1.4327657431222107,1.3566547491727554,1.7122353799272279,3.7886025984856357,3.5617326653786265,3.84695098869246
1570180012714416.0,8.022571944063515,4.142569482223217,1.4553990119617959,1.3770156161679652,1.736503080590548,3.846755111508983,3.643415077520681,3.838654317842368
1570180012716325.0,8.119477944674127,4.197729376814782,1.4698032474953182,1.3944359455927686,1.7630984708223938,3.90802361734017,3.687880250510566,3.8428772056532
1570180012716325.0,8.24794201393353,4.2715402790823935,1.485393716404883,1.4136516037381497,1.793542458742759,3.9732841275851603,3.7738828044520134,3.8465365618584024
1570180012737509.0,8.353799634174727,4.3334168467816605,1.496811621411552,1.4296926643095549,1.8230983783000554,4.043272437688479,3.822266622097322,3.8539613877127903
1570180012737509.0,8.484424552019213,4.413341482413785,1.515003423689607,1.4475424862879103,1.8546344942348618,4.115825313624437,3.9143337902089237,3.8660664053130813
1570180012738271.0,8.584487297777565,4.478619162549883,1.5299524932241269,1.461565638504616,1.8846614966968231,4.188811267662406,3.9721866794601244,3.893501381154458
1570180012738271.0,8.694463045902419,4.557442773357898,1.5469471165734099,1.473389813059414,1.9183233393690329,4.259056782807891,4.068896624190664,3.9115620256580965
1570180012751480.0,8.776516820835127,4.622178991642865,1.557335741643092,1.4770507256032304,1.952420318397473,4.3270701514771055,4.12821418540739,3.9050895020006973
1570180012751480.0,8.894962259204569,4.706869659598893,1.5742469289761334,1.4809137904201688,1.9908641150535729,4.394659332144149,4.227886069468422,3.8887780901313542
1570180012758734.0,8.999634265037143,4.781060530596748,1.5901259047837333,1.4847419506878823,2.0294585080557095,4.464021570608348,4.296433521963167,3.877977368097793
1570180012758734.0,9.130768145079175,4.872683885209403,1.6121935886201124,1.4954088015300786,2.0689739302991508,4.53416670560333,4.407048960492338,3.868413815256355
1570180012775171.0,9.239736685645932,4.952025113975553,1.6303921587955916,1.507156664695651,2.102773135459726,4.605035636278464,4.483722890582115,3.8584967818340252
1570180012775171.0,9.375277020503894,5.047358712174762,1.6521668744436286,1.5218105266226958,2.1355315505012253,4.6760057145288325,4.597782127474124,3.8448660053555583
1570180012777226.0,9.494695582343912,5.1294272212997924,1.6715677810315532,1.5345446878040487,2.1667649812069723,4.7454777600270015,4.678842191136939,3.826953457266009
1570180012777226.0,9.641900485636524,5.225528004833465,1.698351056449585,1.5497003516270322,2.1969037191648857,4.807136359463422,4.795153415637176,3.813736109784626
1570180012797281.0,9.769977834434727,5.305269647328487,1.7220999233372907,1.5628555991451245,2.2181160844688548,4.8496118653481,4.873829740520998,3.803962759328652
1570180012797281.0,9.924908982181357,5.394166901385276,1.7477617477860552,1.5769822951185446,2.2357178697625897,4.8626844969559295,4.981034000800926,3.8034783383866033
1570180012798710.0,10.064099136478628,5.466736626623161,1.7669704275104352,1.5878178427215304,2.252783884717326,4.862873456915163,5.054274611968539,3.804688722154298
1570180012798710.0,10.231969530659189,5.554817022802841,1.7880697860292236,1.6002518893408506,2.272744273344327,4.874379443133544,5.166155862037147,3.8167245037345268
1570180012811410.0,10.383397873485748,5.633083845502619,1.8028247891199833,1.6087714236136683,2.28804440311615,4.895237829954624,5.2495724568058835,3.827422587519853
1570180012811410.0,10.561179321711535,5.7276877076339305,1.8197554857119995,1.6159439693283473,2.2956430217703434,4.904483479339136,5.366232450469711,3.8469556310809607
1570180012818203.0,10.722928312508573,5.812229552995922,1.831620849850009,1.617628320753389,2.2927140142068456,4.900228458340299,5.4545184502778605,3.854365876490326
1570180012818203.0,10.9136604971633,5.913546004722471,1.8426395692646707,1.616925776044354,2.2904652964446357,4.89867597237908,5.5807890225321986,3.863090091701809
1570180012835061.0,11.091724539032947,6.005127422993633,1.8459189941320981,1.6139921579833434,2.2933482494109283,4.9033194307466275,5.681420529116925,3.8672393368223714
1570180012835061.0,11.296777477324133,6.111534981054187,1.8536646167167754,1.615442843923026,2.303452081219691,4.906901095683647,5.810821677303181,3.8854551210390116
1570180012836355.0,11.487260529833067,6.20587051880226,1.8625957479397586,1.6177089524306794,2.3140147000181583,4.906275502017502,5.909426933850317,3.890979162820147
1570180012836355.0,11.704897655657588,6.313250785611232,1.8790942572562226,1.623558279863879,2.3250815890154297,4.9026092087249,6.043377253633399,3.909185245791247
1570180012856995.0,11.90853008215482,6.41091581527532,1.894199581354338,1.6285584721769708,2.334472525593117,4.90211066011494,6.15714010473551,3.927755507013896
1570180012856995.0,12.137066107495711,6.522451341785029,1.9136923899605105,1.636655094924372,2.3468860343468285,4.906268791054956,6.304980497081508,3.972256732428122
1570180012858949.0,12.346662702553774,6.620288464598145,1.9306530909541746,1.646276886282142,2.3597445915246964,4.9083493954250486,6.428317777264046,4.0127032695293225
1570180012858949.0,12.572546169479306,6.727309334489752,1.9500050501197137,1.6603873572023684,2.3710978814740886,4.893413591752742,6.57748996724221,4.071193167023604
1570180012871912.0,12.774417345477922,6.819229385514992,1.9631012642130077,1.67294789576008,2.3754684811579314,4.860159557206577,6.699191088599412,4.115566400809336
1570180012871912.0,12.993217699036592,6.921691713312925,1.9775810281732857,1.6853610205012397,2.3720610443697443,4.823726473468083,6.847259270480682,4.177223933474344
1570180012878262.0,13.197711026004816,7.016913692504068,1.9905138851236157,1.6976320753003988,2.361014891681961,4.794778241425188,6.966904261057517,4.229561955015578
1570180012878262.0,13.432074493491704,7.130546187222225,2.0084119644609575,1.7137749057686553,2.3513936030413043,4.770874543868172,7.088759233501083,4.309483097094161
1570180012894854.0,13.659536906907567,7.2385300635215675,2.022833795386121,1.7245332416693198,2.3420653929890234,4.748911540006167,7.164435270147005,4.383995118175451
1570180012894854.0,13.913370040656593,7.359543056993342,2.0361344535439656,1.7300103164834355,2.3340156231681886,4.724840232126727,7.25883132100885,4.4854071923010785
1570180012895849.0,14.156624752766536,7.469855506414104,2.0426134489193437,1.732985345537249,2.3271416883535068,4.700511378325969,7.340343069103249,4.575784976001895
1570180012895849.0,14.424161316885057,7.591392319978705,2.0536353771469082,1.741104649396912,2.32689065530081,4.68652384480772,7.451034831563036,4.6893938323093725
1570180012916838.0,14.680143386227824,7.702183806097286,2.0651715038492098,1.749602697473537,2.3309136209114407,4.687949181689346,7.536867113281784,4.787975041700924
1570180012916838.0,14.961948097795638,7.826112702957192,2.079778089817744,1.7589627637223766,2.3385250947645915,4.70345233360527,7.618678823779001,4.896244840938247
1570180012918785.0,15.233714322352565,7.943461899445769,2.0922883684057054,1.769309765817855,2.347789552394538,4.729471007935056,7.647459029332068,4.970907815485379
1570180012918785.0,15.525832444890087,8.072397953114422,2.1103914553135974,1.7840273710137222,2.3589459927311793,4.759388298348694,7.651488382658453,5.0503045407871525
1570180012931890.0,15.799780395770403,8.193025094370368,2.1249925523705286,1.7983603915827173,2.369060261621263,4.791624421792072,7.629506690281637,5.104126577714524
1570180012931890.0,16.088268455208002,8.32501168244908,2.140074401863958,1.8166474352359465,2.381641195786655,4.824670015120631,7.6415792577733,5.164671285341966
1570180012937790.0,16.359086241684693,8.446050387265391,2.1562647963019703,1.8380158172457701,2.395693726187161,4.856813631645243,7.6571487234378734,5.209109097207139
1570180012937790.0,16.638934427717746,8.574001533754291,2.177285427100961,1.8611972356444617,2.4145404724699584,4.8897088763949395,7.691066038552618,5.270540625253601
1570180012954726.0,16.900482992423544,8.689966932285085,2.1926634530297506,1.878701462288471,2.435391216409646,4.9233247730606795,7.69959240125648,5.309226026094122
1570180012954726.0,17.181563938944983,8.813148230968674,2.210018658596902,1.8939707028401285,2.4557892632999576,4.954761720472188,7.676646433965314,5.347579807379502
1570180012955687.0,17.450336109574735,8.926228377677155,2.2266342544395687,1.9059458975488006,2.4687522118737784,4.973939110195426,7.590446165094996,5.352270851379678
1570180012955687.0,17.72928013038087,9.048429479636923,2.2461265848558902,1.9177032985192617,2.4748532610617318,4.973355202883849,7.4744225281084296,5.342824047225916
1570180012976681.0,17.987379387460926,9.162375774666996,2.2653827938597604,1.9308344081656597,2.479411010824422,4.967861451385769,7.346598116991717,5.316494177180136
1570180012976681.0,18.236267148232763,9.269039710274658,2.290775349988985,1.946667319020118,2.489376106625077,4.970491495141782,7.218492595678334,5.312670274063082
1570180012979122.0,18.423086994806585,9.339365486183853,2.314244806554152,1.958520446084908,2.501067760083712,4.981313102496679,7.0645132214724615,5.313020921156614
1570180012979122.0,18.581186209750836,9.399080925918609,2.332807710140973,1.9622751807371563,2.5152399063061424,4.982208224917252,6.906894365312198,5.332338898969908
1570180012990756.0,18.7275301239463,9.449407003102595,2.341904149962894,1.9542944378761802,2.529739558569809,4.966606045374572,6.752708825132278,5.340966909077089
1570180012990756.0,18.908841531267665,9.507450610532452,2.3548627303203937,1.9452321826770533,2.5447481620754426,4.9543811164570135,6.607051429922696,5.3724664776506525
1570180013007547.0,19.07919207620386,9.544838645554181,2.370644615065539,1.9405212048869052,2.561246174818597,4.949521260673355,6.464695172813508,5.4042576925505585
1570180013007547.0,19.22663332495776,9.560357995415993,2.3897085593665204,1.9386598206938503,2.58001178654182,4.938740751675068,6.3309089992732925,5.440627581200715
1570180013014536.0,19.329998420459663,9.548055697841654,2.4057161078697487,1.9324984061089343,2.5949088231471924,4.911853553552051,6.207655376769808,5.455228557589702
1570180013014536.0,19.441191489841284,9.544293668242332,2.4238074841779866,1.9250827444964522,2.609025511390702,4.874467924090651,6.09879313902517,5.475211845952794
1570180013016531.0,19.54953896578365,9.5426038148736,2.4428023646478687,1.920623861851476,2.625971686413866,4.844083695456697,5.993525185476035,5.4820304804405025
1570180013016531.0,19.670100801789157,9.552532783760988,2.4652245057880666,1.9192526041873468,2.6472324315760756,4.8231559745582535,5.89015085485198,5.497056066030375
1570180013036601.0,19.753508987854573,9.559984394854501,2.485436132898182,1.917011412243726,2.6678105498847047,4.803913188341607,5.790162933944865,5.504208081946435
1570180013036601.0,19.7303116970606,9.53290518060879,2.5052335620858672,1.9177112221167723,2.6875443970107327,4.782990757609408,5.686582339383697,5.51705404006118
1570180013038463.0,19.5831061105701,9.438945807593251,2.5204437799490753,1.922549570579311,2.708730073315374,4.766547496251961,5.58103364227043,5.513704243310587
1570180013038463.0,19.41373609269584,9.309036337246654,2.5368046941053093,1.9321559927936534,2.737916811974881,4.762729980624148,5.473018193085945,5.5248545084000655
1570180013050871.0,19.230399530742663,9.145135648989923,2.5496706418153483,1.9442662440255307,2.774301844808698,4.770156930539831,5.365182770399618,5.540395654711022
1570180013050871.0,19.049596495314113,8.980282707288275,2.5615002796075332,1.9610633456595177,2.815227862202253,4.784796032631867,5.260893570518874,5.578828342398674
1570180013059410.0,18.888406439824557,8.840614995831071,2.5740717967647737,1.9818433132595143,2.854336122882786,4.808076687377136,5.1643189461835854,5.613216045073001
1570180013059410.0,18.76927038666063,8.73537531426222,2.5940718821370226,2.0052264158305264,2.8893138857796163,4.828483271075743,5.067487878388582,5.654959187203277
1570180013082454.0,18.67562591068064,8.64641073166889,2.617897586566856,2.025527744725692,2.9112818223954418,4.821199138736275,4.973906104165975,5.6889464266436685
1570180013082454.0,18.549253040233154,8.54551200799144,2.643747583723573,2.0428946172076277,2.9202436050340568,4.788501261003155,4.877856848093117,5.721034373508791
1570180013083643.0,18.301357094799705,8.39410380598282,2.668107066022885,2.0594622947094194,2.9277749690924604,4.757970571014215,4.786324772682907,5.726330374470607
1570180013083643.0,17.954403045526334,8.222541149867622,2.6836118133805225,2.0688701220095633,2.9283810936047563,4.725196546546322,4.694673392099162,5.728498082994469
1570180013096313.0,17.56852663406295,8.065640143658854,2.675364431672591,2.0595421999458425,2.9077676907288215,4.665068607317771,4.59867319772111,5.716488923351095
1570180013096313.0,17.18734179176065,7.932517792627085,2.655286892868772,2.0363189425146855,2.8773535023559207,4.5794939921772135,4.491784009406872,5.714677639983863
1570180013104434.0,16.806102515839296,7.800223102698572,2.6361373456716644,2.0090353361000943,2.8505445486778354,4.4919618555800875,4.381660712229961,5.7050191897907885
1570180013104434.0,16.424018355359053,7.6635676615326584,2.6193366070107342,1.9810335128360814,2.8274222625916594,4.417038686365904,4.26649025590929,5.694537780263285
1570180013110477.0,16.035203875997592,7.533244811872554,2.5992378006435857,1.9497913588479194,2.8033181590346086,4.356643467144735,4.160726635792582,5.677114907556576
1570180013110477.0,15.636357446660226,7.419056038686217,2.576369770592509,1.916027937064057,2.783394068323716,4.307662519899745,4.059150849538943,5.666439443224151
1570180013119934.0,15.252966911138488,7.313988826585198,2.552538209184688,1.8804171898030855,2.7617012480231526,4.267034697649398,3.965788795790927,5.653483210373431
1570180013119934.0,14.901979870739696,7.224533850272145,2.5311414301761612,1.841468432611687,2.7240776100887834,4.230193290651536,3.87862086503613,5.648751947830793
1570180013134301.0,14.581588629806408,7.141437318807885,2.509864716296025,1.8038502979300606,2.675547474402936,4.185920137454852,3.8012494249003828,5.62957481837817
1570180013134301.0,14.296461111043739,7.065882375457863,2.4864889905966514,1.768248162112493,2.6234339189186615,4.127763848362135,3.726526233370027,5.619097109149131
1570180013136203.0,14.040346419996267,7.001965350680683,2.4613933921415914,1.7326797769352582,2.5660380686300925,4.064245191127854,3.658465235379936,5.617090037976292
1570180013136203.0,13.801675504808141,6.940900678715096,2.4348493801361997,1.6996247433801694,2.5100386862350605,4.006536742354816,3.599188625619793,5.628525252031882
1570180013157252.0,13.549707948650104,6.8543306377950035,2.4034259588947453,1.6684693905174943,2.458442603536255,3.9548620395415566,3.550914048411591,5.635000044229012
1570180013157252.0,13.276729204933977,6.7490732900464785,2.367352694522203,1.63569570803571,2.4100161321809437,3.9072030911887143,3.496900408289442,5.646121934414087
1570180013159091.0,13.006933940628386,6.641462609919904,2.3291133774505246,1.6032818460456604,2.3662843925930135,3.868142249249433,3.4286329300193077,5.644209163397812
1570180013159091.0,12.75179399031181,6.545110521589372,2.2934415690488836,1.5728483647272156,2.3250391727397965,3.8334030400824863,3.3562151693457563,5.647701740872429
1570180013171111.0,12.517391115213995,6.460262703876747,2.262937908167944,1.5446637744090412,2.282090694561323,3.794020033237489,3.2867533367269592,5.650817957462732
1570180013171111.0,12.302824857429899,6.386245225897268,2.235507149142414,1.5193731722600021,2.2364871522209744,3.7546647111892577,3.2229956629274357,5.671362608335873
1570180013179090.0,12.102483445478224,6.321484315527368,2.2071028273708038,1.4982782149411702,2.1900268124986644,3.7251157627511966,3.16652720408777,5.68085704430918
1570180013179090.0,11.91781944003438,6.276562725455099,2.1746057464738477,1.4791967098757872,2.146610908615382,3.7050963594163373,3.1206938579182757,5.669403004038568
1570180013195047.0,11.74519512462873,6.244565395547828,2.1388528001671654,1.4602018859615695,2.106934668250192,3.690243997478019,3.0815593367925374,5.641188937552004
1570180013195047.0,11.588896846699118,6.226858176281367,2.1044831313518357,1.4410443931288008,2.07103798284194,3.6801892129276954,3.046128531563344,5.616935738771714
1570180013196043.0,11.464237214809573,6.225794889493865,2.0734963423755506,1.4227786611325468,2.039697073377482,3.677158023337389,3.0045952456459735,5.5789329283031375
1570180013196043.0,11.381890577139668,6.248051611057206,2.0437267421874945,1.408357733514741,2.013966592902331,3.6813764816988788,2.970599057872502,5.5483223877866985
1570180013217235.0,11.341025330591467,6.28823867118404,2.0161459239078865,1.3977973985841854,1.993407709988442,3.6916320812523495,2.9431246346033397,5.524088423579322
1570180013217235.0,11.340669844048257,6.349509591014879,1.9926609724914692,1.3891458725951367,1.976099324241985,3.7071872302427478,2.9292093177441223,5.521806004077553
1570180013218982.0,11.377016523339355,6.423016251793828,1.9722494181207277,1.383292147229765,1.9607872366266326,3.7298569570822977,2.915874658552869,5.5279598435749335
1570180013218982.0,11.448380543243973,6.508573230658643,1.9559938415031999,1.3803838888303284,1.9478209442019283,3.7621596760202882,2.9177446847437802,5.548703545849521
1570180013231066.0,11.54348867706758,6.603199686179873,1.946737593579877,1.3802352302977219,1.9378961765937248,3.803901978999399,2.9208004625645,5.57218514092509
1570180013231066.0,11.663560737994509,6.71451435816733,1.9445988148338422,1.3851414526176111,1.932275837844911,3.853569774975368,2.9361237711494472,5.6139430889207755
1570180013239925.0,11.812079153330446,6.833922642962874,1.9481860670597861,1.3954405804425318,1.931265451157751,3.9116463157026766,2.9496418719971667,5.641365637176192
1570180013239925.0,11.993078173900942,6.959512202580048,1.9577199340940794,1.4092025287202206,1.9328259069225877,3.9748320573618994,2.9771860115624644,5.647835651326872
1570180013254890.0,12.198956317485855,7.076492192668665,1.9705701418733468,1.4229558046967266,1.9339573658792295,4.04173368096054,3.0014472048647294,5.63436518836248
1570180013254890.0,12.412295155346458,7.173759507566636,1.985201157102517,1.4373606264087309,1.938562077753311,4.115196726323672,3.0419200737787038,5.635164461813023
1570180013255884.0,12.598484872750685,7.249595489996474,1.9981160366290538,1.450767136307894,1.9475572084949402,4.196973129914038,3.0755804334916066,5.632753272477074
1570180013255884.0,12.756620605701402,7.325694323704457,2.008335868391667,1.462166762476806,1.9602175711691812,4.288556653568495,3.118627114493671,5.638800009140224
1570180013276041.0,12.899400254991347,7.405353294172276,2.0205411700743054,1.4742955063769412,1.9757940769053894,4.391419320830913,3.1534011157199213,5.646282005005106
1570180013276041.0,13.032012891373533,7.489125170722813,2.0390292440954516,1.4893526372972674,1.9936280083809734,4.503108694739064,3.2057292628410305,5.6701972784567785
1570180013284865.0,13.152553046044748,7.56965016516746,2.0629163885619515,1.5046429315621483,2.0122928906935624,4.621137824928736,3.2512762663107675,5.689447539016721
1570180013284865.0,13.267765093797248,7.6562808841707,2.0916034332097984,1.521017220554323,2.033428009070736,4.744784168590233,3.3109976872508904,5.7176099853376385
1570180013299912.0,13.350002032527039,7.733437301046205,2.120451893531195,1.5388253840845132,2.0559209155484957,4.871386133779916,3.3614166690244787,5.748903321682447
1570180013299912.0,13.355181007405303,7.7722186900883825,2.1454932350618487,1.5595307611449527,2.0784431200291458,4.994568976192527,3.426369949100134,5.802385597022796
1570180013300765.0,13.30169313734158,7.778126144267267,2.163830206413256,1.581103169500799,2.1005153283682456,5.111578406695868,3.4814525345320972,5.860239709302192
1570180013300765.0,13.245446115567118,7.7832236587987245,2.177362691203546,1.5993605722965298,2.121610498456441,5.225881850062009,3.5473594679043083,5.94058445662535
1570180013322705.0,13.206650393981194,7.796708080660479,2.1887585414226405,1.6124565604657133,2.1402396289513277,5.339369669201697,3.5985537445375924,6.019564885056424
1570180013322705.0,13.17127987224893,7.827890177983174,2.197376047384855,1.621184663579945,2.1538049239272707,5.44719406626552,3.6638269629354165,6.100263155661902
1570180013323711.0,13.126100799083272,7.883617152374176,2.204138579914358,1.6233901438550606,2.1570768493361943,5.548019414346966,3.718510809195413,6.1642546714638575
1570180013323711.0,13.052743310568514,7.940646664618167,2.208270883348718,1.6199164497926462,2.1549150895260465,5.6410173470385905,3.7882753804189875,6.236634957247501
1570180013335810.0,12.943780528754194,7.950962673838074,2.2020919103178027,1.6144902738770133,2.149959270288902,5.7065172719086945,3.837072168563522,6.294917301543016
1570180013335810.0,12.781988945755495,7.900326156098761,2.1861888235010056,1.6131486173100962,2.136456475617585,5.707305823405966,3.871061932023514,6.321375162501951
1570180013344722.0,12.56788228633898,7.8167732413760485,2.170158039621657,1.6180252440314988,2.111513027729743,5.648614602457266,3.870572165383092,6.290505356237993
1570180013344722.0,12.315106115468568,7.730019119322501,2.157699365659143,1.6261004857045658,2.0831940612912447,5.574476278692001,3.8876631877054018,6.239562966812656
1570180013359823.0,12.068993636628882,7.657178034027031,2.1453428521786813,1.6322987582015067,2.0572674155473543,5.505569490056556,3.9082155974932253,6.182117231349558
1570180013359823.0,11.827792353983451,7.591467949593112,2.1304750946444657,1.6361625983370414,2.0352061172355147,5.448827680810002,3.955919465765095,6.135705075597095
1570180013360612.0,11.570898023210036,7.525306667352852,2.1143184046619092,1.636588044213246,2.014012674584766,5.403459540169682,4.001147436622454,6.093690112952553
1570180013360612.0,11.297220540705593,7.469979300962309,2.0980216279817867,1.632929043544855,1.9912681668420213,5.3612438399678615,4.06628392892545,6.0708808908588665
1570180013381752.0,11.041591639293605,7.441924208429037,2.0860831226805296,1.6280047394424195,1.9678293314670692,5.324389008094404,4.121033661194352,6.04802608629153
1570180013381752.0,10.806860197713215,7.4376690354286294,2.0793329002456953,1.6227959527546083,1.9450425699280145,5.291365897928467,4.190842060994837,6.025367944761958
1570180013389528.0,10.591489782035989,7.438907714869046,2.0739586567822896,1.6172051845632998,1.9245682886789761,5.260805346882903,4.250828339618205,5.992470653656204
1570180013389528.0,10.37114845374668,7.418436167642966,2.063999685753726,1.6131993196776575,1.9091280857568405,5.237550562914158,4.328355799249854,5.965680714684165
1570180013396626.0,10.143652785767367,7.370038851816789,2.0526274495836057,1.6078815889660218,1.8934163799984256,5.212762567417933,4.391300622533719,5.939690353125103
1570180013396626.0,9.88940382599789,7.2776730787858,2.041366395559292,1.5962871963713976,1.8728415519114618,5.1792517424658,4.468569027257312,5.925235676815648
1570180013403496.0,9.631477232017101,7.152598698206206,2.0272863038471525,1.5812307600519324,1.8520491591847053,5.149280291759055,4.538016926832484,5.911179346895576
1570180013403496.0,9.383449437992715,7.01663763366361,2.0078100047124754,1.5674199273226694,1.8350743041863786,5.13209414445459,4.626159159192542,5.9146082014786066
1570180013419447.0,9.154377142700348,6.8798059738079225,1.9863636005644183,1.554139312310923,1.8214655124893449,5.127911431533909,4.701605124809689,5.92353544276834
1570180013419447.0,8.930952551505147,6.7442013191089805,1.9639206675026497,1.5372018660170965,1.8147723780607878,5.134677953559265,4.795910341960379,5.95548430928315
1570180013421462.0,8.727573584203652,6.619052598248244,1.940553566064975,1.5165240131871414,1.8154278959778511,5.151681847323298,4.885749101110373,6.001195498474363
1570180013421462.0,8.534917920738721,6.487352967905035,1.9155963475590356,1.4936417230743853,1.8209334824019068,5.1744909941754536,4.997860635287754,6.074246937414648
1570180013441387.0,8.354896780636121,6.352464460851094,1.892151180851097,1.468639301259933,1.8266647567349488,5.19491651070707,5.100884759140242,6.15332390180702
1570180013441387.0,8.175638992123817,6.216453375855568,1.8699573231009994,1.4429443133193576,1.8329942239567198,5.215604336728335,5.221195141536923,6.243992834700542
1570180013449365.0,8.005348270137752,6.088963408807017,1.8526188574941782,1.4178416638374889,1.83946323746267,5.247266310231458,5.317960209349015,6.320470948608312
1570180013449365.0,7.838479702512093,5.968217406130237,1.836920233588646,1.392849797016019,1.8475560574820742,5.288685131499117,5.404096619630229,6.3977818685389884
1570180013456347.0,7.692164164294109,5.860402348717432,1.817812394306186,1.3711665575742944,1.8597634502658216,5.329107421454383,5.453362502740466,6.459749941330836
1570180013456347.0,7.562889505509231,5.760343502314853,1.7945464954574948,1.354694562153396,1.8780123817280994,5.362535144122754,5.515546190657422,6.521500924108436
1570180013464325.0,7.450473836649051,5.674846552495295,1.7726866009730304,1.3439030354452672,1.9006554166684588,5.3920906524963055,5.581447421676232,6.570379030971473
1570180013464325.0,7.3357987581865824,5.588138260175011,1.7483718194954587,1.3347041144553065,1.9269843297839242,5.422084484899344,5.67912539168027,6.6090353158851824
1570180013479286.0,7.225294240608471,5.49511769771637,1.721125477457264,1.3230952062249937,1.9550802924536808,5.455660974433867,5.776620191028072,6.6261934677778
1570180013479286.0,7.116299504391358,5.391096788015593,1.6910741646486827,1.3097125026873044,1.9857749963376676,5.49712643815172,5.900409899686219,6.660849028811292
1570180013481280.0,7.019490122818226,5.286138212017039,1.659290917036018,1.2936608452201497,2.018422855233173,5.548468959050944,6.017879218738894,6.70618411916616
1570180013481280.0,6.930893403342468,5.17587667227177,1.6264766602032699,1.2756063101024753,2.049909946266558,5.600256924565707,6.155221636889517,6.775390783999906
1570180013502570.0,6.862298688212575,5.069617800009833,1.5984438703090658,1.2596716757280766,2.0705565208543044,5.625422978906237,6.286923734604372,6.85202161871616
1570180013502570.0,6.800231522588468,4.960679734136439,1.574782463971291,1.2468734025097372,2.0839674257972787,5.613367092763509,6.4417863117980545,6.940661622757295
1570180013503640.0,6.743263128510806,4.858274760158104,1.5544458385630988,1.2373018492757415,2.100357309835324,5.590332220018696,6.5894553157634865,7.004221430892921
1570180013503640.0,6.686007544290762,4.760812879070729,1.5337204291126763,1.2309648982846095,2.1216813731928243,5.579813897349001,6.757084835881318,7.034479984500653
1570180013515189.0,6.624897814590482,4.673323302978451,1.5135957369262,1.2277666987328235,2.143887663715489,5.584436709631412,6.92054718362205,7.028428086550653
1570180013515189.0,6.552977715348992,4.583748547825968,1.4934610956148975,1.2267189240630696,2.1702071493174193,5.599146379027037,7.111523690767897,7.0046778413493245
1570180013524217.0,6.491580120089929,4.498500500434496,1.475899925106493,1.2256188568841615,2.2028408275917783,5.625755634783856,7.300716493061673,6.953606738765167
1570180013524217.0,6.438421007491029,4.412347730986562,1.457968630233633,1.223779425145705,2.2417420305464377,5.671221917439643,7.513770890957386,6.911890681563825
1570180013539221.0,6.391227331781089,4.32647772125897,1.4385816877288753,1.2231060555969218,2.282859047333435,5.733263920369405,7.721967221099919,6.877640743938282
1570180013539221.0,6.3422115159039345,4.236567395093175,1.4159597005502305,1.2257660820531449,2.3243120409310993,5.805452847462859,7.9524776253495775,6.851674373958379
1570180013541122.0,6.296195037494613,4.1537058665966455,1.3917999251303366,1.230259580079918,2.364470306103871,5.88810790739237,8.175647072282976,6.836320498575776
1570180013541122.0,6.2453082575274985,4.068778596676654,1.3677165629044485,1.2359642802368755,2.406005315137885,5.980090264865791,8.41896851956409,6.841772096651005
1570180013562080.0,6.1797451466948905,3.984407034737812,1.345451643494303,1.241513679026987,2.4478241857337717,6.075946337265681,8.657142113069716,6.844740883560447
1570180013562080.0,6.0884616642534555,3.8962572751610267,1.321587174790683,1.2477310580796697,2.4917825050375653,6.168695324733052,8.91649390066864,6.8569896170856905
1570180013563246.0,5.990658619538328,3.8143039768425484,1.2997671726605542,1.2571986872846188,2.539646710287202,6.248319284576919,9.169925104862417,6.87176374533758
1570180013563246.0,5.890622943946614,3.7284687918122814,1.2815646375522434,1.2710257150684063,2.59210717188013,6.316598104387969,9.447026940899905,6.900785417422538
1570180013576030.0,5.784395371371378,3.6397543326262887,1.2662568870606543,1.2874360484763323,2.6421797908325857,6.38782212841228,9.724905796388752,6.934687707556833
1570180013576030.0,5.66300256398535,3.5415379657328443,1.251846392833711,1.3067665330088578,2.684153857300052,6.458445785001041,10.02489075567373,6.984385333551821
1570180013585003.0,5.544059787002503,3.4444839649457273,1.2390289821792515,1.3251301432218596,2.7205681506232486,6.499742910460267,10.316149716896817,7.038105364056938
1570180013585003.0,5.434637666240208,3.347037527613021,1.2270663600666607,1.3420801493474017,2.762211381475049,6.504979839645924,10.625037122917961,7.107003578286399
1570180013599961.0,5.339514965364606,3.2584476105562166,1.2175235234285504,1.3603157763720704,2.808560061593716,6.505579137355513,10.930255483894179,7.173862433221223
1570180013599961.0,5.258610756723558,3.174628429374933,1.2110382824555566,1.3821494106235108,2.8561636001798663,6.520191225663694,11.253939631916142,7.248662839917349
1570180013601155.0,5.191458145805476,3.0994301376259865,1.2080794367256709,1.4064161837095464,2.9047299935108883,6.546884552991541,11.565925541291932,7.319760577858495
1570180013601155.0,5.13071781937711,3.0254183057798607,1.2073864736539937,1.4325661549165658,2.957782116487895,6.584399906572463,11.894397202386216,7.40083585728527
1570180013621994.0,5.082007434411096,2.9608845997075384,1.2080572296620073,1.457880872506082,3.016990491612836,6.636424680213336,12.232735864866171,7.481235316431589
1570180013621994.0,5.046730956546642,2.9014777001943766,1.2110147792512884,1.4824667784219132,3.0837720688012094,6.701813749055104,12.603192999172132,7.567050213497181
1570180013623898.0,5.024661022838899,2.8481672027973675,1.21618692756817,1.5047534258848814,3.156357321211249,6.773725504224656,12.980649060225154,7.645920682395073
1570180013623898.0,5.016995821161108,2.7942088247097523,1.2227157356244427,1.5251212300635568,3.23516389589201,6.85183182882789,13.387549289996858,7.732135109671877
1570180013635869.0,5.0242059131349865,2.745041036053333,1.2313998803390211,1.5450946716817262,3.3137351337985166,6.935386989114157,13.798046066852404,7.816278610736837
1570180013635869.0,5.049308704701549,2.699937292863399,1.2434780837427453,1.5650936721856414,3.387793807403416,7.024233659238917,14.227950733434556,7.922829744560062
1570180013644946.0,5.088822621455536,2.663376950215797,1.2573968764596888,1.583909151170007,3.457204712803169,7.125664574109333,14.660977735559738,8.044931861207713
1570180013644946.0,5.140445966506043,2.633043834098694,1.2726934709150108,1.6051823949713628,3.5254751750847797,7.240766769618883,15.086224907392742,8.175262295581343
1570180013659828.0,5.199170778954525,2.614703225787793,1.2898474712675239,1.6265926968603184,3.590029931656491,7.362778399529151,15.439343906583147,8.28275116901141
1570180013659828.0,5.268872354785346,2.605478447057746,1.3102254596039884,1.646307215712636,3.6467651240915657,7.488356962203995,15.713497117578045,8.36898205345197
1570180013660903.0,5.3419690005798035,2.603752495651316,1.3308415015200494,1.6651343489458705,3.6935791916398686,7.606538606941968,15.896985265788981,8.418308196750578
1570180013660903.0,5.418267965176715,2.6048583579789786,1.3495949606939497,1.684504570110958,3.7334480556803324,7.7109857598882,16.033740422690713,8.450810901027102
1570180013682175.0,5.49766096009338,2.612130299164868,1.3651759587967898,1.7017935722165616,3.7706337175758375,7.817861905786085,16.15727041863869,8.488093622280656
1570180013682175.0,5.591900922429403,2.6253588502730585,1.3797484347027136,1.7162149716831137,3.8094735593025053,7.937626316634882,16.296696698436342,8.549521088927145
1570180013683813.0,5.688242458221579,2.64548255241529,1.3956631672604465,1.7306283778365315,3.853575898565537,8.07342957473533,16.448265523646214,8.603542600939564
1570180013683813.0,5.784337945497868,2.670744285487706,1.4162668529932188,1.7480192860095902,3.902940669645545,8.229501101793339,16.62745788901479,8.629955135046904
1570180013695707.0,5.883535913809898,2.7022907200491564,1.43893441780773,1.765532040104492,3.9444886579124177,8.389306957809643,16.820010757658988,8.643979687502311
1570180013695707.0,5.994810537854395,2.738817409629866,1.4574327694650449,1.7789287253716388,3.970499859066655,8.520362050966101,16.997793774241806,8.680896877577448
1570180013704684.0,6.107981977767355,2.773815037200668,1.467270985615572,1.7856507288523573,3.98643952557191,8.616640053300861,17.134832063863165,8.739012463214117
1570180013704684.0,6.2252425227717865,2.8027590820228516,1.4741131035955568,1.789488231230465,4.001984371665957,8.703491693788191,17.254717129139635,8.812350647796233
1570180013718652.0,6.336828556009877,2.8275471459935586,1.4829064642871839,1.795813159915055,4.0255081683900285,8.795273356143232,17.371609810242667,8.895620880609945
1570180013718652.0,6.45376577329224,2.8562585964001523,1.4946771560062027,1.804366873726493,4.0574560678694604,8.883595019580952,17.489118693945322,8.994286297595163
1570180013726672.0,6.576468254759619,2.890941164805521,1.5055889179568058,1.8091647331327847,4.092617853071042,8.95987160013976,17.58498229409552,9.09032811111303
1570180013726672.0,6.71387284049561,2.9355075010575242,1.5155204115325622,1.8107226027492027,4.134552170554999,9.0301301393447,17.63607757630338,9.17982691634012
1570180013741632.0,6.848996170551184,2.9847496888541385,1.5217956663815524,1.8088710327141815,4.181414692555574,9.088842864913946,17.630602722359317,9.246084990517952
1570180013741632.0,6.985298111524587,3.0336471931119355,1.5226037657989153,1.8008224591873019,4.227227516137548,9.12422714430257,17.534720032415507,9.269624051755441
1570180013743579.0,7.121911183158309,3.085232862337931,1.5197661339422055,1.7923050963692126,4.271825897957862,9.16147523299012,17.413589474920677,9.266304936487707
1570180013743579.0,7.265953615541503,3.144462333828432,1.5168361908779227,1.7900187222948807,4.318932462775068,9.226991829772397,17.329556325853833,9.246584471452556
1570180013755546.0,7.409112421504097,3.203515944112085,1.515085747496849,1.7939445507157714,4.3755071191189545,9.318346395991801,17.259344815485797,9.22230236795781
1570180013755546.0,7.555028362844869,3.256975811264998,1.5159674852751042,1.7983188088940905,4.441058903076272,9.434688993208459,17.165019108852636,9.207527903630153
1570180013764524.0,7.691183125534493,3.3013714784337784,1.5197591068465148,1.7974309159066493,4.496085591282448,9.553933306272368,17.071513745506408,9.212989267691713
1570180013764524.0,7.82541721842291,3.3440919500287043,1.5268961696572774,1.7911337892442285,4.515893860030397,9.620443124541666,16.9908869214714,9.223199792209426
1570180013779535.0,7.960088769179985,3.388995037926996,1.5366613907977564,1.7804202717631452,4.501230750184374,9.626681956726761,16.93120253623705,9.228497713922103
1570180013779535.0,8.107295311600112,3.4387818978680698,1.5484958654449552,1.7648672900369102,4.467703471439937,9.599032723120121,16.847156352806,9.231445031441234
1570180013781628.0,8.249823017983896,3.4896717314433188,1.5599962348503358,1.7461561492245208,4.421356737984349,9.53807355402796,16.696814959848915,9.220462249631897
1570180013781628.0,8.394709476770853,3.5487337319806183,1.573984311719914,1.7296564176212794,4.372837243268776,9.459430218945533,16.503088308519285,9.158807760700483
1570180013802421.0,8.547477776711183,3.616785118779296,1.590478605341273,1.7189244756024356,4.327022833618839,9.38084503584035,16.33336116556154,9.08729504782366
1570180013802421.0,8.719254210296526,3.6955979958165304,1.6088884110196724,1.7110200282613302,4.276136805906339,9.297185515121035,16.130447412328767,9.021925121268623
1570180013803419.0,8.89971708742113,3.779163702022619,1.6244778722850577,1.7041233153771358,4.222304790191347,9.203981081828557,15.86196573828763,8.933865070205599
1570180013803419.0,9.087069095345273,3.869144947482562,1.6336615658828615,1.698862590950303,4.171459182380485,9.108363640326075,15.524872193079652,8.78383913702469
1570180013815394.0,9.276964983060159,3.967008736967822,1.6385736217054088,1.6957584844925455,4.12780336631036,9.02281485623557,15.183403269107249,8.615583874135943
1570180013815394.0,9.487078942159124,4.075632947458999,1.6436867473923458,1.6917113187708483,4.088965472134912,8.936936136722313,14.84057883296363,8.450219517051588
1570180013824412.0,9.710811664551093,4.190326326736383,1.6492914150310596,1.6838203659707367,4.044409368287001,8.8247859485,14.51682508852899,8.304310979045361
1570180013824412.0,9.948539424005725,4.31608714227902,1.6568746036785829,1.6721050440368763,3.9902077140048084,8.690785507467892,14.197911428402962,8.16181844188853
1570180013839329.0,10.197127085934797,4.451089438017834,1.6667776003937873,1.6605531664949793,3.937795959162556,8.554725754244423,13.908445527645856,8.0418147579591
1570180013839329.0,10.469884515959984,4.592976651887145,1.679401843143399,1.651830331471485,3.8930317583765564,8.426510338293536,13.625871074254238,7.928344548136584
1570180013841317.0,10.753367253187923,4.728635478039909,1.6941215775492398,1.6486776234443992,3.8535447163467222,8.30800611684052,13.361628506902026,7.827087512370477
1570180013841317.0,11.02721698993352,4.848705210903281,1.708363171407225,1.6493572073337242,3.8136630769469817,8.193660120605223,13.089878963385637,7.718246881202185
1570180013862261.0,11.275731848091972,4.951669480815678,1.7191345908764784,1.6502524689576543,3.7715250919881753,8.077990896782461,12.8288845013061,7.61857604725545
1570180013862261.0,11.50256974985924,5.055587469100948,1.729050904327297,1.6517329113268597,3.727312892772694,7.961831342852176,12.561466562916209,7.525746884343493
1570180013863260.0,11.666806568723185,5.156739139590508,1.7366829480455985,1.6536286875607493,3.6830855703256664,7.84444458323836,12.320842080061286,7.463975358498734
1570180013863260.0,11.758809246139847,5.236133286132038,1.7407221074063615,1.6523000188989039,3.6406941187028656,7.721372251784698,12.091921906385657,7.414973868381271
1570180013875225.0,11.830576456524293,5.2970541411321745,1.746872181746276,1.6498523572356247,3.598391065819551,7.597197189788921,11.899830710468416,7.379009428668678
1570180013875225.0,11.931864301352503,5.363977321344541,1.7560437789376293,1.6451285094355665,3.5500966457639165,7.481973928398208,11.714751672680597,7.331719871007262
1570180013890235.0,12.070630266966466,5.441582240557724,1.764184874342353,1.6359390393790403,3.4990177105295834,7.372406918658445,11.55037733317718,7.292814118942779
1570180013890235.0,12.248750083070403,5.524934535311387,1.7745691847635725,1.625790169070326,3.447126826039581,7.258301685632026,11.3813942119394,7.251547590709536
1570180013899214.0,12.454962902150843,5.618372073564681,1.787978381675768,1.6206481187741566,3.398165639352393,7.140342193381508,11.224627959488846,7.218594028372946
1570180013899214.0,12.669408462289642,5.730138674357899,1.8027022745444787,1.6209402557985755,3.353350438267477,7.024040526656467,11.057491825948201,7.183348137968005
1570180013901260.0,12.83065827144397,5.843108145214397,1.8170322119487623,1.6263011356225279,3.311376439070627,6.910580212184704,10.911655332769552,7.163328599437106
1570180013901260.0,12.87636041997001,5.911561286548261,1.8197430496227864,1.6293696569886533,3.2697230309768246,6.800964306150347,10.76294124330263,7.129815372231582
1570180013922100.0,12.828862385070119,5.924212966934968,1.804895305932112,1.6212995748449293,3.2251224854305485,6.689541080760558,10.619872231613273,7.080894168599188
1570180013922100.0,12.73708336653346,5.912455850661021,1.7841208387685865,1.6056088558432169,3.1765684000066585,6.576172284399698,10.454077070068438,7.015780507161815
1570180013923098.0,12.6151734993934,5.888289469238414,1.7653780288211802,1.5911538964656067,3.12888308279083,6.464145911228643,10.296542243690821,6.963182435410751
1570180013923098.0,12.480516025677383,5.848703847747076,1.7482970562185294,1.5780776546044402,3.0826200927805676,6.349681361735974,10.121608556837254,6.913555351137577
1570180013936116.0,12.371607422712893,5.813464719499261,1.734186746501962,1.5675343272098023,3.0370303587348,6.234710249222057,9.952056018949957,6.8833265540431965
1570180013936116.0,12.300648959926939,5.789358679211075,1.723706712462911,1.5574107638183565,2.9863446807046214,6.123629764333573,9.767962202263817,6.854253960120449
1570180013945042.0,12.263465601233415,5.773269597756463,1.717703077945597,1.546365183564884,2.931675735064308,6.013099639547975,9.595153574517326,6.842320699667916
1570180013945042.0,12.240586502749482,5.750549605204552,1.7112745830150746,1.5323191541517736,2.8767118652406647,5.903475151748333,9.409880785839114,6.833355760957808
1570180013960000.0,12.191520839753808,5.706291921445852,1.6988613697996997,1.5153139887483031,2.825382755097354,5.7973141631899825,9.23642853776792,6.830294866883117
1570180013960000.0,12.056688998966816,5.626152016741356,1.6780389158760198,1.4960312518304932,2.775893978349083,5.694814170629267,9.051138446173775,6.80725873066477
1570180013961082.0,11.850091141201732,5.5207955323817846,1.6523698836061926,1.4753733895462084,2.7249750574407536,5.593733915268301,8.88200699813756,6.7740240423832185
1570180013961082.0,11.623048747667976,5.400164499553097,1.6267449086478363,1.452620096145372,2.671894364693934,5.49195254395002,8.707644464388775,6.729741744730032
1570180013981985.0,11.409418941771968,5.278887279112492,1.6043758730333102,1.4318873430347048,2.6203243132948537,5.388541961734299,8.552915694513414,6.704773018421943
1570180013981985.0,11.192986781938675,5.152034759560575,1.5828035066957136,1.411520976192111,2.568590864500041,5.284905349348759,8.390677392994855,6.685707329031855
1570180013983937.0,10.97138218687521,5.024797355334806,1.5615546394004065,1.388798106348693,2.517822140480794,5.1838040748814755,8.244550894713797,6.684473207831065
1570180013983937.0,10.732192591810913,4.889639083830724,1.5405171309956587,1.3632655985935167,2.4682577496370635,5.087364470741593,8.091141887848352,6.695756746445461
1570180014004882.0,10.478123049877064,4.748083877042296,1.5225053354071232,1.3387100650532067,2.421379145758492,4.994310056105821,7.957362187041514,6.7343363447125935
1570180014004882.0,10.201674354890352,4.600239366146974,1.5071664018207114,1.3158143965091185,2.3766667639869343,4.90132829256429,7.81839115553013,6.769237636419859
1570180014006216.0,9.91839974443794,4.458547302332294,1.4935703128350177,1.29526189545514,2.335133866568222,4.808779860276216,7.698459941305066,6.796591734979534
1570180014006216.0,9.637831449262995,4.317915193509009,1.4788971278161955,1.2750442511639,2.2940767109783433,4.720721353797599,7.572557633335057,6.7826399551648855
1570180014019841.0,9.372848473786487,4.183254807499521,1.4616844552050843,1.2563081879383495,2.252409206310871,4.63584591613245,7.461979722741414,6.729973818829343
1570180014019841.0,9.100247850712377,4.049435766443628,1.440256273304722,1.236510438298566,2.208181685434914,4.553183703008443,7.338702919428245,6.636322219248286
1570180014021991.0,8.830126330020247,3.9253873562780233,1.4188015682862472,1.2137245258402567,2.164239299151577,4.474741146170946,7.227678608272809,6.537451581117936
1570180014021991.0,8.56210021588341,3.8036351108967024,1.3998623069456275,1.1873424810516002,2.1222696612713907,4.401010190951959,7.105552851351146,6.43198899877554
1570180014041907.0,8.30625106033217,3.6877764991779873,1.3838061264105193,1.1612204909690826,2.0817536139265074,4.330610367731788,6.999340023586996,6.345149212735387
1570180014041907.0,8.054882967329847,3.571094657881588,1.368731553654371,1.1350680950321743,2.038747906310462,4.261052369801852,6.884655784258391,6.25493591466102
1570180014043776.0,7.819615283655016,3.4602197496476905,1.3564893297869238,1.1086149015653375,1.995019318722881,4.189353387345319,6.7813582891591215,6.1665191858953134
1570180014043776.0,7.587303536590781,3.3475536422094136,1.3458783179183365,1.082185838485418,1.9532960148845167,4.116245988053789,6.6642496569168,6.04944714304681
1570180014064789.0,7.362719150830659,3.240804448800314,1.332796216552014,1.058676026284185,1.9155418963672572,4.04289924084128,6.5625623672356745,5.926705515490506
1570180014064789.0,7.132305595959897,3.134977703612646,1.3142663513735005,1.0355170502224187,1.8772158148627567,3.9726108878617183,6.453404423984039,5.796890432180756
1570180014066188.0,6.906750032415523,3.0378541236044923,1.2944646463050946,1.0130380946051087,1.8392977277203035,3.9076078109037833,6.360152630438483,5.684709023375691
1570180014066188.0,6.675000030116741,2.942616323571535,1.2747657136913253,0.9912507695648559,1.80257042571396,3.843146280110089,6.25725333475845,5.573328448031874
1570180014078730.0,6.450015562317769,2.8528696838898115,1.2561577827082193,0.9711447645057503,1.767473995437884,3.775897027949494,6.170083838002578,5.485999164929565
1570180014078730.0,6.227178519032351,2.7600476338399096,1.237891174056649,0.9526970633058256,1.7324873034032096,3.709021865608894,6.07199725104305,5.4076024708458466
1570180014085714.0,6.015218523556371,2.6709542489244384,1.2198090425393178,0.9382919968025217,1.6992518043131037,3.6421767518040213,5.984001121788926,5.347285016639912
1570180014085714.0,5.806971056615939,2.578200062415284,1.2007229076954689,0.9267984223776965,1.6678170870735796,3.5756782221220553,5.884806846977035,5.279973958575143
1570180014101621.0,5.613195380554697,2.488974814910413,1.183337242226111,0.9169868259752351,1.6373821085245255,3.5121957437045976,5.8004141656168615,5.218439066508377
1570180014101621.0,5.417609288204189,2.3985264527978547,1.1671396029265597,0.9074787258548114,1.6062220249075074,3.4522849546239196,5.706116115931857,5.147728315384273
1570180014103616.0,5.229834753299614,2.3125313459645356,1.152825295992492,0.9009286723006682,1.5775831494426655,3.3946603209469686,5.624905596871703,5.088802275692291
1570180014103616.0,5.045733626631285,2.2245962009782962,1.139852519670048,0.8973004087510251,1.550612450125197,3.3391669573159724,5.53060463184678,5.030301131296497
1570180014124560.0,4.877767505846172,2.142175731372163,1.1278031421517023,0.8953665294029468,1.5259016406257055,3.285515165245309,5.448743148721007,4.984818595431397
1570180014124560.0,4.715878567081999,2.0602093476050416,1.1169815699713683,0.8932422913874529,1.5033429377615248,3.2341387740574947,5.359673978922798,4.936023634004597
1570180014126554.0,4.565294749445969,1.9864275224838823,1.107192483646544,0.8912479858428325,1.4819645677774218,3.184469143628673,5.290755678684364,4.896180605034648
1570180014126554.0,4.414345331650857,1.9137602955173831,1.0956245881836826,0.8887622324871596,1.460309930001347,3.1351626569422164,5.216830264164259,4.850366184921175
1570180014138523.0,4.275417522783728,1.8468262732802694,1.0844497455946187,0.886120998856527,1.4414578158858002,3.087189965540804,5.155283505269518,4.813846311996453
1570180014138523.0,4.14459854984346,1.7793316315297711,1.0753836484778088,0.8837322120387503,1.425818774982679,3.0419281563556844,5.080268674893865,4.7813096230039465
1570180014147498.0,4.0289210547961405,1.7168511737150987,1.068002604807019,0.8832127872962037,1.4138370913787515,2.9973997233351204,5.018251756685843,4.767450108474552
1570180014147498.0,3.91886212617802,1.6536350843536436,1.061873848979531,0.8833598064261954,1.4006336729579476,2.9545314267631424,4.9491629154080234,4.763050332208048
1570180014162457.0,3.82470776997361,1.5948622325431356,1.0564238103232437,0.8834382834345129,1.3841960674453087,2.9154588376573156,4.898838946756288,4.775087808637952
1570180014162457.0,3.742540403589865,1.5358473527890986,1.0491772446114842,0.8829517965304637,1.3661355379420093,2.880173833391298,4.845763283724061,4.788091378959059
1570180014163517.0,3.6775121829030337,1.4833142093932552,1.042225481314094,0.8831317634730961,1.3503462786852078,2.8447259561218883,4.810282077431314,4.810806466101654
1570180014163517.0,3.6202537012032683,1.4321733160069248,1.0374232227172122,0.8847915383341203,1.3361019335911337,2.806746390696183,4.761043955313671,4.833804018526254
1570180014183402.0,3.5756814435004145,1.3868687597413623,1.034059325621714,0.8883429399038196,1.3243081379599313,2.768752405942574,4.719519758617329,4.86057176220342
1570180014183402.0,3.5385841991894718,1.3437200255807087,1.0289370775345104,0.8927251645387724,1.314353398034681,2.7312283984578665,4.664421726613388,4.89000828504525
1570180014192429.0,3.5143577963510237,1.3049130305441419,1.021053473319411,0.8942052770661274,1.3039610363716434,2.691540137573272,4.61602881435483,4.92949796433204
1570180014192429.0,3.501048502379278,1.2659345232936738,1.0122438566672338,0.8910644424594502,1.2907886764490777,2.6517582606917256,4.552708798925271,4.968603728810541
1570180014198370.0,3.4901802989313846,1.2312047699205564,1.0035953818274792,0.88731274137756,1.276766166773235,2.6135423287629003,4.502040336123782,5.003093411505922
1570180014198370.0,3.4651919915058413,1.197835852002897,0.9950903977750581,0.8839193341356459,1.2626527901778477,2.575113929542356,4.440113253694019,5.0178581204408905
1570180014207339.0,3.4407330126809508,1.169564228969527,0.987741504671038,0.8810921942498516,1.2485779521403704,2.5353928311591774,4.386303908070758,5.030200289204487
1570180014207339.0,3.4240926642590983,1.1466933740661491,0.9826004428007311,0.8797152536672133,1.2334202688593225,2.4954023916825374,4.318229862001217,5.050190153006564
1570180014222305.0,3.4143162786521644,1.1328135410678628,0.9785110401721191,0.8790815602521533,1.2180814956221528,2.4553393424340832,4.260585698257582,5.085513298211565
1570180014222305.0,3.4063798716721374,1.1259147201909814,0.9746488072375353,0.8780099165262716,1.2005527567191625,2.415478890509272,4.193204458361265,5.132831050495342
1570180014223349.0,3.398321953206712,1.124526361075976,0.970857240531855,0.8756775207164172,1.1816654668351225,2.3759696933610277,4.13808782704062,5.193404528412266
1570180014223349.0,3.3898261310493836,1.1258230939083103,0.9685245559764752,0.8698621754997691,1.1617812268782624,2.336807555639253,4.06933791473417,5.26015944934118
1570180014244242.0,3.383687683090167,1.1284201371335951,0.9692744248322419,0.8604753727537453,1.1415347626602892,2.2958218345495194,4.008561736727538,5.332272160421768
1570180014244242.0,3.3829300432105023,1.1339017488477883,0.9732519851984888,0.8501919199624712,1.1208345290278707,2.2526342525580905,3.935949471152773,5.408868206844654
1570180014246282.0,3.3925991584677666,1.1421692402093166,0.9788313708581989,0.8422589342545265,1.1026975901822138,2.209425975945568,3.8761742858034314,5.497571856088204
1570180014246282.0,3.4127246295719234,1.1534382221522492,0.9853431707947357,0.8357286385804157,1.0868305415253494,2.16754522326924,3.806954649879949,5.583364568872552
1570180014258208.0,3.431550888563568,1.1651707421147641,0.9902401362942651,0.828660608613161,1.0716443608645307,2.1253656701701185,3.7509714909565415,5.642883015311828
1570180014258208.0,3.4450143200563077,1.1810799446099154,0.9934706533043053,0.8219189614605678,1.0570943345668167,2.081059884303129,3.688573200433533,5.668358505844275
1570180014267179.0,3.4570606869827523,1.199729576822119,0.9958116208112818,0.8165843752129424,1.0442883873894653,2.0348578601127105,3.6412791443220414,5.672412747464982
1570180014267179.0,3.4709491775557963,1.2254125945507692,1.0010135958518518,0.8126339377203033,1.0307334039002833,1.9879795397630613,3.584390624424918,5.654349367606192
1570180014282186.0,3.4869651579907766,1.2562395519567695,1.0096980306786871,0.8090472951521829,1.0159298354697142,1.941065107069517,3.5404382421895613,5.6381851122991025
1570180014282186.0,3.5098172555398857,1.2947182971460491,1.0198855462339609,0.8048312073269274,1.0020855361255523,1.8959923371837768,3.491099521821395,5.629046365639145
1570180014283135.0,3.5359484823632417,1.335284448946356,1.0269607677390415,0.7999545474981268,0.9916085336746381,1.8538230324128953,3.457095084038493,5.6220584795308675
1570180014283135.0,3.5724894367810256,1.381532861930734,1.031604490849533,0.7955266918486598,0.9824667353862072,1.8158889950480823,3.4150303000400517,5.617533656747868
1570180014304085.0,3.61742079476969,1.426222039170267,1.0353545021216897,0.792406709105251,0.9745920367655314,1.7829042130651476,3.3830183132781224,5.630140450527398
1570180014304085.0,3.6774390662954994,1.473776981908934,1.04095724467087,0.7896603327710988,0.9697580293430157,1.754061849778521,3.341371376903994,5.651929794619496
1570180014306109.0,3.7448596260824734,1.5220715843624264,1.0479571131923726,0.7862081992754929,0.9688773652416461,1.727788991854998,3.3146404343672295,5.674090974655987
1570180014306109.0,3.821152886701918,1.5766735081529264,1.0548865971088077,0.7833664995800202,0.9697485529372003,1.7037026351058764,3.2825129266985646,5.684846890194741
1570180014319123.0,3.9028138220529422,1.6293215999133952,1.059352883107824,0.7818326593474438,0.9723542038311673,1.6816897968206097,3.265345616800675,5.695106438481907
1570180014319123.0,3.9924214315756887,1.6855624056983722,1.0638524567529573,0.7808327238979229,0.9766277424711394,1.6610273679418084,3.24193825147682,5.702493769631749
1570180014326024.0,4.083674063831158,1.742717857169092,1.0692958183025647,0.7803204147267045,0.9796660718059037,1.640035288746166,3.2305049998956235,5.71048967892529
1570180014326024.0,4.187592614168001,1.806996386508221,1.0771148144861624,0.7826338656538817,0.9799030245841162,1.6207895991742651,3.2098531856915344,5.7219771456603326
1570180014341978.0,4.29531270237301,1.8707185247841516,1.0845721193692885,0.7869883135896274,0.9793422042768077,1.6060945758550982,3.2001760702196176,5.746307294201072
1570180014341978.0,4.406916062916714,1.9399409834536236,1.0887775500845043,0.7917996845825229,0.980042500038353,1.5952747661187323,3.184208923887653,5.768714610388024
1570180014344030.0,4.514615737187806,2.0102182987109765,1.088160093249964,0.7970518596512592,0.9832633198051577,1.5874020249765557,3.179043631448176,5.7868343167200855
1570180014344030.0,4.625949494510914,2.0885459449038204,1.0873448586827756,0.8051945715982806,0.988051960385593,1.5845779619163447,3.163756288470568,5.791347970994375
1570180014364918.0,4.732411365959912,2.1670701352087387,1.0860624734774553,0.8151956475927788,0.9934469166625411,1.5891023964549322,3.159299462841593,5.782075219567105
1570180014364918.0,4.846388930155231,2.2514133355201813,1.0868396559098088,0.8266122572638791,1.000589774217522,1.6017941285466888,3.1469292942713274,5.764487060196587
1570180014365915.0,4.9645748656801265,2.3357482184180807,1.0912231816513336,0.8387602285525007,1.010478831701779,1.6205507399233847,3.1453306633054177,5.758352517896063
1570180014365915.0,5.0895453357114295,2.424289712563603,1.1002510069759388,0.8512882452235707,1.0232169323499958,1.6418197681204454,3.1379163637865606,5.7498421681282865
1570180014378879.0,5.213825350804007,2.5071906762313483,1.1100179713574483,0.8640580349503656,1.0386132030703352,1.664215058426251,3.1409510216555745,5.734933604246046
1570180014378879.0,5.3537833009658575,2.5921706299859086,1.1201765683347853,0.8795990787591451,1.0557944492994822,1.688690738446562,3.13766715442924,5.720221390838947
1570180014385869.0,5.502724492058435,2.6769831624932303,1.1296739799016693,0.8963684599347926,1.0748179482660256,1.7145441832699069,3.1500786019434455,5.722900355786581
1570180014385869.0,5.666860596173595,2.7701277662129025,1.1391244661608178,0.9131495671432939,1.0979187758444664,1.7396765356791921,3.158704780348771,5.733964293343366
1570180014401817.0,5.836759991303669,2.865152032706827,1.1489187794257085,0.9297087099563455,1.1253657801445809,1.7620101463459352,3.1778947244396827,5.7529925210714765
1570180014401817.0,6.0159052311064976,2.9665405164968606,1.161880135119804,0.9473702807000091,1.1557885182292291,1.7837298404876791,3.183969202231507,5.774210070366346
1570180014403811.0,6.194562324085893,3.066040081321526,1.1760124068190183,0.9630359298246034,1.1856074390107836,1.8078612102374971,3.188358689130095,5.80589645084329
1570180014403811.0,6.382985633395859,3.170599769597892,1.1912844076555063,0.9766266858260602,1.2128028259441117,1.8311226009836088,3.1763450483955435,5.848193255621144
1570180014424756.0,6.570948066982807,3.27484706065593,1.204848665342112,0.990113733437298,1.2391181785976448,1.8511878326034954,3.168298545489629,5.911904567942942
1570180014424756.0,6.755851184176232,3.384094542929496,1.21997625264742,1.0055650704338528,1.2686985688526293,1.8716233121658035,3.1466374772844707,5.984571182649159
1570180014425753.0,6.918092861596605,3.490797456857715,1.2364820674579884,1.0207402829164327,1.3001520896581948,1.8960421361626978,3.131486335107208,6.0509851438877735
1570180014425753.0,7.068244848637494,3.6022867196705732,1.2541709643545278,1.0358989300863906,1.330797158834715,1.9265366801382044,3.110092659070628,6.087271520821771
1570180014438718.0,7.211603127322951,3.714558328045317,1.270860910622832,1.0516246921613495,1.3589237374759005,1.960852561919652,3.1012707536855797,6.104582226045133
1570180014438718.0,7.361562135032946,3.835530491815182,1.2878393604373672,1.0700411340167277,1.3859024107203408,1.9956475996528702,3.085595858974584,6.116888241513735
1570180014445699.0,7.502547920034924,3.956157322386971,1.3015910298668854,1.0881396122515863,1.4146463824803952,2.0324667603885143,3.0763268556201795,6.124053562088904
1570180014445699.0,7.64402687422402,4.080465144932891,1.3130318154299,1.1031704654117827,1.4468899635664068,2.0746629708654227,3.0579649524368886,6.103563586350215
1570180014460659.0,7.79318225964562,4.205382602596693,1.3236672126408768,1.11470602981872,1.481447493509143,2.124718822493249,3.0516643615449053,6.071961740917599
1570180014460659.0,7.965911712718705,4.338967582732538,1.3363618544390388,1.1246949929468224,1.5153342469655071,2.18428405285055,3.0437470003344074,6.0359991563653255
1570180014469636.0,8.15401307150972,4.473982883181873,1.3493327416348702,1.1315882686976753,1.5463309355037003,2.249771665923538,3.0489178274057247,6.009075348129187
1570180014469636.0,8.364306244502918,4.616854429281771,1.3639833279182367,1.137099585875584,1.5776782343050317,2.3169743852674585,3.0449729556993996,5.978518546844936
1570180014484595.0,8.5887957498389,4.76129811778647,1.378967486555809,1.1435494021992996,1.6103685029289478,2.388817922705774,3.0479328876538543,5.954873762741976
1570180014484595.0,8.831448291255995,4.910642126648567,1.3965795571711996,1.151627704010893,1.642428514708918,2.465722345544019,3.046170593850677,5.918881957354148
1570180014486591.0,9.080411063236502,5.0583576417574685,1.4146678306132567,1.1587687616286864,1.6724204819319388,2.5448322254358646,3.0535268757121092,5.859565053895487
1570180014486591.0,9.345214639259803,5.212811794900335,1.433511485670129,1.167242149861586,1.70316543483337,2.628358756069181,3.0510620558820034,5.776785728406935
1570180014497560.0,9.62206590205237,5.371266789849853,1.4497168328103347,1.1767503426518688,1.73379214494068,2.7137734205738098,3.05529619115489,5.6981291256498805
1570180014497560.0,9.921859595094283,5.539212270289257,1.4644554158321381,1.187151823246678,1.7634028935750703,2.7963109602975806,3.054224049465902,5.62254095787937
1570180014506537.0,10.23531344957448,5.7093733778809295,1.480124459788415,1.1989520375041711,1.7943883088280204,2.879097389288349,3.063131882217342,5.566388213789033
1570180014506537.0,10.565717397050888,5.8876183775683115,1.4990013132220505,1.2134206392726605,1.8297928405030373,2.9645730038297486,3.0619989233090816,5.5144010905721945
1570180014521498.0,10.900122841372115,6.068138190765222,1.518413835358613,1.2294538316953176,1.870387242560561,3.052157269827332,3.0637085451998476,5.475518212700438
1570180014521498.0,11.23598890104677,6.247825231218566,1.5401913929851565,1.2472913473806382,1.9141632654545695,3.143407613686417,3.0572050173685703,5.440849551455117
1570180014523491.0,11.55745087432841,6.41257731733471,1.5638774350797506,1.263644054754223,1.9539294411630024,3.2322102797921777,3.0597725665753095,5.40609409735143
1570180014523491.0,11.88417097301304,6.5753780996491855,1.591253011025057,1.276180324073843,1.9886235413793794,3.3105595637039964,3.055304101156529,5.347823770829749
1570180014544491.0,12.23057915991474,6.744772241784833,1.6193848302255482,1.28582583304194,2.024251173523387,3.387751803956031,3.0606396586365006,5.286378321059656
1570180014544491.0,12.60525844398993,6.923635813733608,1.649160269097902,1.296357753280286,2.0654766614145204,3.4743658268148385,3.065097254917648,5.225636870674572
1570180014545488.0,12.997097905705008,7.104244356441407,1.6795100850783016,1.3074512931076763,2.113174269266678,3.571377978582264,3.081836729684582,5.178044243545883
1570180014545488.0,13.412835154288505,7.293451458084183,1.713025642675802,1.3186108116504431,2.1678549498992705,3.679789542239584,3.0933124764423936,5.132977827574992
1570180014558453.0,13.837840480853743,7.483999565854385,1.7485524454648842,1.328694756096103,2.2275026425528086,3.8011443981391895,3.1156122131816506,5.102830218736669
1570180014558453.0,14.255436190512315,7.675828257979938,1.7861249742445977,1.339908172320756,2.290132699173822,3.9328040581853347,3.138409929856214,5.078537428416308
1570180014567304.0,14.64848728226069,7.865726842889347,1.8235729712070636,1.3535406020568272,2.3502515650630253,4.049331620788015,3.171638598932299,5.0642513779524405
1570180014567304.0,15.015786907717633,8.044358863261486,1.8616532520065816,1.3717497457573609,2.399035905562273,4.1201645558338,3.1900778370542446,5.046541759997649
1570180014581636.0,15.352939062848172,8.198364460213417,1.8999271416371306,1.3938347425796556,2.4376658878870003,4.155811117808724,3.204292846849478,5.0389949271502035
1570180014581636.0,15.674843925316505,8.349913142952266,1.9424190835036141,1.4177004803022117,2.4777548709535058,4.189108803795659,3.2096877569806397,5.030500739418176
1570180014583630.0,15.981817393297318,8.504698074339611,1.987300403401636,1.4402309632052488,2.521645257519777,4.2341214255991035,3.2263467234791605,5.023035838701237
1570180014583630.0,16.27021138731771,8.639714682134443,2.0327240379575535,1.4628964521539434,2.565531573940669,4.291750893766254,3.2435529142265156,5.014466692123825
1570180014604745.0,16.50698420259843,8.706251282017437,2.070302777413795,1.48671256258836,2.608870911031493,4.361407877340744,3.276961143556533,5.0113001302833595
1570180014604745.0,16.707951301520133,8.708348536510952,2.093552373837165,1.5092969037618102,2.651052541652174,4.431424223061064,3.312184459824464,5.002531168292944
1570180014606253.0,16.90930212364894,8.702899301746383,2.1038054062438447,1.5241851176535084,2.686774947890834,4.490256889469664,3.361903373199878,5.009217641068867
1570180014606253.0,17.109097582620777,8.717021911839597,2.1102063343560062,1.533426686996103,2.7141597691134147,4.544835212618585,3.4103924117162565,5.023238851428968
1570180014618414.0,17.295556098660338,8.741060354810717,2.1175263920229668,1.5427264251490067,2.7317197722508957,4.598163922023219,3.4537169728315424,5.041014707127296
1570180014618414.0,17.453619874867346,8.759533141633742,2.1250701902555886,1.5536534401753535,2.7367778650147447,4.642144660456158,3.473309368607911,5.053604105972841
1570180014626879.0,17.53369191846275,8.750379127402988,2.1285825633368205,1.5657044449691455,2.732806472052869,4.671173498399155,3.495213307328822,5.063041900217486
1570180014626879.0,17.536216849812046,8.720870544889312,2.1315079110382427,1.5809650990332438,2.7268571120112246,4.691081233823568,3.512182217472796,5.062665471266991
1570180014641746.0,17.532422995745705,8.695034521017275,2.1367775129889512,1.5973931296764323,2.7235136938011264,4.712469658347561,3.540898656606166,5.059183463912088
1570180014641746.0,17.559316308284874,8.67796903724662,2.1473001829996785,1.6126881816582799,2.7235465761528137,4.729874846460605,3.5693616380017983,5.041015843155326
1570180014643793.0,17.587896344911673,8.668812328591446,2.1616755233651075,1.6260494310177633,2.7291184692383017,4.732869018432609,3.6080571469703586,5.02912129352069
1570180014643793.0,17.55597774449348,8.676859269660241,2.1755415293122593,1.6391062604407434,2.7387376305455713,4.7247175027778185,3.6433275756510293,5.02332145373983
1570180014664857.0,17.472288073202137,8.708834358119836,2.18714715951492,1.652342081713621,2.7496061207114897,4.713884595642483,3.683062549243536,5.019915835449713
1570180014664857.0,17.403785516987643,8.75101811545384,2.1931944411844273,1.6630137272519343,2.7650461108738673,4.705459441391617,3.707749516459914,5.00872882294232
1570180014666739.0,17.347531010214883,8.763298819576478,2.183722315881993,1.6666465764522196,2.7800141300930323,4.693582248810443,3.7342885076989734,5.001551041450891
1570180014666739.0,17.262787643282014,8.719585244594096,2.160697946495281,1.6631604649082758,2.7856607839617205,4.668625251897869,3.7479933129211345,4.992280031472545
1570180014678369.0,17.15002516876164,8.640617492847882,2.133156633846714,1.652557856633188,2.787048435163055,4.634088672820428,3.756907142805184,4.991631709380188
1570180014678369.0,16.982028931631824,8.541025393243894,2.1032984216797597,1.6349776273621128,2.7848886821743553,4.599808915384905,3.746771167407664,4.997445291316897
1570180014687480.0,16.744821419759713,8.424325880554976,2.075420762501416,1.614940801697172,2.776759490720718,4.5701584888121225,3.737547003356952,5.0194895731527
1570180014687480.0,16.475669549890352,8.309857662786234,2.0540844050799656,1.59596731653559,2.7654083286352487,4.547444435599464,3.7211860901266465,5.049786350625177
1570180014701493.0,16.218559055941252,8.21355040258093,2.0376040781803813,1.57587209680315,2.7470255139082917,4.5276452396436015,3.7150907066867016,5.088953055365201
1570180014701493.0,15.964810438216903,8.122106703566859,2.02204916709367,1.552434765203142,2.7166872524761123,4.502090717741557,3.704050508597208,5.130554077228739
1570180014703559.0,15.700733873200404,8.025779386676609,2.0037759780777167,1.5282897242777849,2.6777704745391233,4.467705433844126,3.7013008133349743,5.1830336941691275
1570180014703559.0,15.416724234358888,7.9155161051774385,1.9810957077736095,1.507118196862043,2.6356624199133103,4.426662072161237,3.6906512881409146,5.229048134600102
1570180014724257.0,15.144651768360045,7.804134470569053,1.9580608747512827,1.4890956064369834,2.5942736677209473,4.384687132845127,3.6832217634329925,5.262940922579985
1570180014724257.0,14.899027284658915,7.698254283025772,1.932922014148264,1.4702082054761962,2.5493765470489147,4.344751106323759,3.6632358871017487,5.284599858956209
1570180014726092.0,14.666942690592403,7.5884992866857335,1.8995534011539248,1.4481971911128473,2.500693714947713,4.300743814051558,3.6479892845145776,5.304329032349641
1570180014726092.0,14.425910008212112,7.467478129636565,1.8606931063764967,1.427513119730347,2.4522597628381004,4.251761647495189,3.6241559509086425,5.313661340803149
1570180014737603.0,14.1813090352254,7.345564948919251,1.821845545144571,1.4095737042029481,2.4060371537287897,4.203718562684877,3.6097496764738017,5.3148645812532616
1570180014737603.0,13.919073921594041,7.217467030980085,1.7812818856518537,1.3911315712458714,2.359800108706774,4.160808448440963,3.589509641849152,5.293937270063984
1570180014746579.0,13.648347561446498,7.08814005571268,1.7410051553174168,1.3741073799284413,2.3130322716873377,4.122838144093982,3.5775572622570158,5.2691551497070686
1570180014746579.0,13.371204268001588,6.955967392183214,1.7025560230447259,1.3585050162402514,2.2667977260010046,4.085956632998982,3.558748751609753,5.244922593588679
1570180014762104.0,13.103075998401739,6.827729529643707,1.6653647776707157,1.3424051298946433,2.2219713609067937,4.048794569395408,3.5518445350196006,5.230568296166719
1570180014762104.0,12.840377132686907,6.700109481056861,1.6242834810570617,1.3263781607088463,2.1743694853044557,4.012285396779932,3.540506603302017,5.21908677733264
1570180014763200.0,12.578521794843779,6.571194693169877,1.579336040764104,1.3116107599731448,2.123485134460086,3.9715303346776176,3.5287872259727586,5.216268421986448
1570180014763200.0,12.299515123940811,6.430358389169428,1.5338771882481146,1.2979915037407017,2.0728953595834017,3.9227825735556476,3.495642286024795,5.214166775909997
1570180014784620.0,12.017394851376505,6.278914062936647,1.4912019652202997,1.2837999402903366,2.0253528605750724,3.866598028171945,3.464182292570529,5.218918310183184
1570180014784620.0,11.73349527756331,6.119535460077404,1.450877659836365,1.2674391838224306,1.9781648294394867,3.8059770741662695,3.4247226080504762,5.219738435150429
1570180014785622.0,11.461063680452575,5.9661055114091575,1.4130076888193934,1.2518837436214234,1.932984699368075,3.74527520180854,3.394320743743282,5.226549626193803
1570180014785622.0,11.196497252253426,5.817569024360028,1.376602564532792,1.2371391355974046,1.890697287663579,3.686845070925654,3.358319611309181,5.22757033121844
1570180014798113.0,10.948456552238271,5.679299390867349,1.342012212426386,1.2222291995029382,1.850016748221659,3.629855611250799,3.3336257350398864,5.227495292275926
1570180014798113.0,10.698012013614905,5.542285657165375,1.3048509518589786,1.2088195755184874,1.810469689782823,3.5731675960642266,3.303727485981635,5.212132354451436
1570180014806560.0,10.446451523009737,5.408395128526676,1.2664909412470864,1.197281839969282,1.77322290765653,3.5181631342400546,3.282975831744207,5.192005376256836
1570180014806560.0,10.192596830022596,5.273258461669295,1.2300893996783622,1.1873453009934634,1.7374404549375109,3.4666426278477798,3.2557657363609964,5.164296049533072
1570180014821567.0,9.952883473512758,5.142102756548981,1.1973517598910512,1.1803609322074013,1.7046828944941554,3.4166964146679804,3.2388446177422803,5.140030532135388
1570180014821567.0,9.718185074385593,5.010611728530498,1.1665644597112257,1.1744476655690592,1.6718595882101954,3.3680835278463506,3.213524560811912,5.113663117120411
1570180014823515.0,9.492971082617158,4.883403037380898,1.1386035971529658,1.1658173094967397,1.6372306502868124,3.3213457307698824,3.196000910801583,5.104807387243799
1570180014823515.0,9.269740842760454,4.755991980436757,1.1117577402904721,1.151804181713446,1.601970346399187,3.276105109866367,3.1733357844831835,5.092892717735971
1570180014844053.0,9.058802344189012,4.6357879477357375,1.0864142647766313,1.1339978978213616,1.5681006685022387,3.233636682595414,3.1589209891576515,5.061963318453415
1570180014844053.0,8.850001252802185,4.516530712288949,1.0628755855737049,1.1159282576026588,1.5359883673361838,3.1943643381504594,3.1367552153727067,4.995055145538123
1570180014846049.0,8.649665956705359,4.4022168311472765,1.04186297951793,1.1000576609855124,1.5081528907960335,3.15552072093253,3.1247260941195476,4.912943664549446
1570180014846049.0,8.450126672273841,4.290577090729434,1.023798022784779,1.0853810023794574,1.48468784619934,3.1184984738046477,3.103296792464266,4.813763149684495
1570180014858014.0,8.265620270277227,4.189185279245265,1.0095518199001574,1.0710399756835167,1.4640441232003771,3.086053941851497,3.0848396312056297,4.718009902296617
1570180014858014.0,8.090797534500416,4.090602229890247,0.9975964467602866,1.0567023212978188,1.44293762461305,3.0555686180390027,3.054344179622195,4.620555131406645
1570180014866991.0,7.929127839467069,3.996638729109569,0.9892626752693162,1.043435298265149,1.4235328957766085,3.0244417393992262,3.030586952021674,4.5396740139949925
1570180014866991.0,7.767813799252828,3.9028853955900713,0.9853352498169651,1.0331033642397962,1.4085635820971627,2.994941357497969,2.998389165609385,4.46365142740864
1570180014881953.0,7.618902301494486,3.817205342426102,0.9862075760994479,1.027073976691153,1.3988527885349678,2.9672628145214,2.9722306141449755,4.3993094364507215
1570180014881953.0,7.474827990426054,3.733846549221675,0.9906095340272287,1.0243371411022346,1.3911809907610417,2.936407175997474,2.9356793050462295,4.336732864812183
1570180014883945.0,7.345320295753716,3.6571592113178246,0.9975654176379755,1.024005316828396,1.3847528569958758,2.899586148708194,2.9075795549567447,4.29287214765951
1570180014883945.0,7.225419555312486,3.5838323905771245,1.0058302538662809,1.0239913839239867,1.3768234173219722,2.8602789266641686,2.8728295770810957,4.256254476135932
1570180014903961.0,7.121467100619327,3.5197362603543625,1.0124231214460253,1.0212815871557634,1.3660422955496838,2.8216377658456744,2.8451177078234617,4.232451274683731
1570180014903961.0,7.013985306889096,3.454315480405326,1.0132108728915168,1.0156148608762592,1.353145705387399,2.785116711629226,2.8068966200286014,4.205829890709256
1570180014905887.0,6.899911563894303,3.3868688675861756,1.0071336966338098,1.0089577869920467,1.3382417782029183,2.750371909700306,2.774594644847272,4.186853035650482
1570180014905887.0,6.775363943684494,3.313733313031385,0.9979928032122126,1.0042422211916897,1.322688312747695,2.718175582908924,2.733960247196309,4.169896508346256
1570180014926831.0,6.6619396403671995,3.244767082569493,0.9898517020235843,1.0036119503697247,1.3099785548719216,2.6885519430918947,2.7030211388459233,4.16369152957024
1570180014926831.0,6.55374736140583,3.175211402067239,0.9837375426534516,1.0060760998995921,1.2976830485741055,2.6589500586900723,2.66599188337656,4.1579710444957945
1570180014928826.0,6.453521220536208,3.105704886116294,0.9786698343340356,1.009634872882642,1.2846681961213084,2.627419149808895,2.6391289185935394,4.166595209158621
1570180014928826.0,6.3526779482987825,3.0294283125121235,0.9736827589841495,1.0122650839181706,1.269862910791009,2.5941517997853234,2.6046932189885306,4.178273825776275
1570180014941792.0,6.262435158961957,2.954197675198539,0.9697639249608158,1.0129720911563258,1.2534215461305016,2.560623397470833,2.5766628427730316,4.19858940118982
1570180014941792.0,6.174595912118142,2.8776430434023053,0.9689920028835535,1.0127451353084034,1.2341584877032494,2.528764205107219,2.5409414652765188,4.225211199164612
1570180014943787.0,6.099755813510737,2.807224174621645,0.9711065245947827,1.0135599097165517,1.212594630763512,2.4983319174818654,2.516251284016821,4.2704684996694855
1570180014943787.0,6.029489698153512,2.7372505069927273,0.9741711352320385,1.0154120293259026,1.1896201946019425,2.4693565639624575,2.486142627838434,4.31747526916168
1570180014964438.0,5.962056911944391,2.6722263571210956,0.9770498647915439,1.0153375781795646,1.1674735881906688,2.441929447729954,2.463698358034805,4.348200788732864
1570180014964438.0,5.875653286728673,2.6077630091817787,0.9809742922736707,1.0123681407388803,1.1452017372180143,2.416428861345489,2.433152431139135,4.342837362806075
1570180014966576.0,5.779367542099592,2.5481993849491187,0.9855351513540687,1.0074797017735275,1.1226000947243995,2.393039228844744,2.4117391672160275,4.330061174554759
1570180014966576.0,5.677212550194341,2.4880899182046092,0.9890156929796812,1.0006386717997433,1.1006776621952212,2.372643941648436,2.385145367643063,4.315092584485104
1570180014986380.0,5.586083353635785,2.4318519806908947,0.9913588815526986,0.9937922621448857,1.0821664564155191,2.3555627181895225,2.369585736404824,4.305149740685527
1570180014986380.0,5.497949733672067,2.3755930113812025,0.9948666726997768,0.9879065176744605,1.0660254935103866,2.3417950223668353,2.346587542258811,4.287924725407851
1570180014988374.0,5.413937287693612,2.326732419930377,0.9999515306108046,0.9809900165206269,1.0503078913174204,2.331253403395546,2.328956759245749,4.274168569788809
1570180014988374.0,5.3234150407745515,2.278356685851898,1.0046472383524383,0.9730041527006348,1.0346336177566666,2.3205892964162564,2.30267401136186,4.25370612366491
1570180015002337.0,5.235171588650222,2.2346118756876683,1.004834494963087,0.9649157310431021,1.0198108880517127,2.304345358881099,2.2848787298090283,4.230274175880053
1570180015002337.0,5.141789507801182,2.1923500836380625,1.000413567491039,0.956700161565133,1.0048824804562504,2.282051041686458,2.2594248037681948,4.199975767629703
1570180015003335.0,5.053418004476356,2.1537471973817595,0.9943219799618426,0.9483306691313046,0.9913424548101236,2.256818854714077,2.2412467772465208,4.179104033182257
1570180015003335.0,4.964327838951943,2.112474646356865,0.9897042170125271,0.939799435162017,0.979050115667761,2.231795568414794,2.2174091886011404,4.1583536597517226
1570180015024819.0,4.883506137111092,2.075164279091415,0.9859544968472725,0.9310836135295039,0.9688062295285914,2.2084519146668877,2.205591829427407,4.147632277549045
1570180015024819.0,4.799787730849573,2.0377036339271637,0.9825464731189962,0.9232291886811825,0.9595769692085885,2.1864727837600038,2.187150116440692,4.1274006497584095
1570180015026122.0,4.720171150306569,2.002536756376329,0.9811934798765095,0.9181758234443966,0.9505457258054502,2.1639878894050733,2.172994207856517,4.09974114778514
1570180015026122.0,4.636560936701524,1.9636722025281779,0.9829230665465654,0.9158761278442367,0.9407021630684586,2.1401032981475834,2.1483019370018215,4.060153094236625
1570180015046882.0,4.55608405962547,1.9282641174631638,0.9861691086627687,0.9141895602661986,0.9308768474167672,2.115614204346193,2.1293535657412455,4.020431941323479
1570180015046882.0,4.4728983595876715,1.893086362060667,0.9912362932492296,0.912237204482031,0.9227380484766212,2.0927406595924976,2.1008994223929798,3.9694509922493446
1570180015048751.0,4.394913261841699,1.860318378104279,0.9964363118800024,0.9099436212958536,0.9178510214118767,2.0727444339962737,2.077650479903937,3.9221325820020243
1570180015048751.0,4.313160576898593,1.8249582945509288,1.000290864081176,0.9074765577396888,0.9143288522866719,2.0549033604503255,2.0458648082505024,3.8689966683117034
1570180015061714.0,4.235955813254681,1.7928438667605247,1.0016356259106383,0.9057672784302329,0.9113638122965094,2.0378282113455946,2.0225177623163813,3.823949156987867
1570180015061714.0,4.158310734232235,1.7618620268725111,1.001129653135486,0.9058576081937834,0.9075134840631505,2.0226436478361967,1.9945592541670436,3.7809236556090573
1570180015067873.0,4.092487851124326,1.7366716981286492,0.9985549077075692,0.9065249375379996,0.901542594960834,2.0100754106447227,1.9777105660994394,3.750478781636185
1570180015067873.0,4.033202054876679,1.7130636754922528,0.9965377837582896,0.9080679270831385,0.8933034348437293,1.999224276115819,1.9549273709806445,3.7243154547546946
1570180015084659.0,3.983534795775618,1.6934553609528817,0.9962000247126738,0.9112482167626236,0.8839713297522671,1.9878091114933216,1.9384489792354487,3.71068180342206
1570180015084659.0,3.9292658904472586,1.6689852103369376,0.9966059746367236,0.9161808428432358,0.8739941923043538,1.9751887770693692,1.9142659328568241,3.694791581528175
1570180015085651.0,3.878451311754445,1.6432727225771906,0.9952540845531397,0.9225831755675101,0.8649612356777205,1.9612667018364787,1.898083962681859,3.6899093308200994
1570180015085651.0,3.8281764639901357,1.6153975760735477,0.9909038930644322,0.9305721757714325,0.85671623536336,1.9443724423669069,1.8743856598099884,3.68238473031779
1570180015106723.0,3.7841142004037587,1.590940919706831,0.9836303430702684,0.9387812288362904,0.8506941905415161,1.9247000661224314,1.857207405306419,3.667545656061599
1570180015106723.0,3.738266359721673,1.5677757272731478,0.9769592780204122,0.9467261236175744,0.8473006912004554,1.9050979153324217,1.8333621613689304,3.6336664900883533
1570180015108590.0,3.698347240069571,1.548026153568831,0.9709032611211807,0.9561959463169223,0.8452503590765872,1.8872868695525635,1.8177117861755028,3.5998929754163846
1570180015108590.0,3.6573184558515877,1.5253458551463441,0.9638943152357984,0.9669317743537094,0.841965993444729,1.872829998127553,1.7967357882426425,3.558196747145639
1570180015121554.0,3.6164766950060003,1.5014730990473537,0.9557617729806213,0.9757830902541852,0.8368689859914784,1.8606597280916877,1.784582853608974,3.5169564720545337
1570180015121554.0,3.558721161422241,1.4707196093971056,0.9480189283872226,0.9833865077148601,0.8323570947729324,1.8479770558283997,1.7659535103958899,3.4638535604468665
1570180015128536.0,3.493410464547878,1.438694648520945,0.9412084932222898,0.9894310444757158,0.8305714754577869,1.8348582313778505,1.754426770496026,3.413702331873871
1570180015128536.0,3.4231266223753787,1.4051510065625683,0.9375026111485371,0.993362082240235,0.8288441086814877,1.8226105746902284,1.73772427081685,3.3609514412633366
1570180015144497.0,3.3583986938139736,1.3729153024966925,0.9346153327062287,0.9951012334310568,0.8238658302833455,1.8103897567150486,1.7301265595974413,3.3166951981866193
1570180015144497.0,3.295514004610829,1.3402566710680306,0.9292981015272667,0.994999823834235,0.8152857205494102,1.7974945888331073,1.7162651481512001,3.273732823500253
1570180015146535.0,3.244027077548016,1.312323191085293,0.921872782560505,0.9929511178570803,0.8070529578389346,1.7836743936921626,1.7082487213137725,3.2456398435091636
1570180015146535.0,3.1976647363736697,1.28345338752502,0.9158458937800653,0.9903569819602223,0.8016299692948314,1.770692201906123,1.694720635741856,3.2185224946771207
1570180015166441.0,3.156418715994158,1.2557977634248627,0.9101580114039856,0.9888477665846824,0.7988265797446515,1.7584812323395294,1.6900783420589285,3.194669414352395
1570180015166441.0,3.1091234974654505,1.2265029559246718,0.9045041763433733,0.9884316870552692,0.7964764726198935,1.7445610136055418,1.6819962778871074,3.1614973598479796
1570180015168429.0,3.0633617799534383,1.197027836427146,0.8983924398092864,0.9889265414444965,0.7944616188658434,1.7287286046818373,1.6810899830621884,3.1334988528881307
1570180015168429.0,3.0171655189056836,1.164642588093075,0.8926735119752023,0.9913905574880622,0.7936541104374129,1.7120754104113158,1.6715981146270793,3.1055234689442948
1570180015181402.0,2.976547652854494,1.1338886866518183,0.8879587721668118,0.9944395550039475,0.7943006329364275,1.6954502729264447,1.6680239129405352,3.0846674212650784
1570180015181402.0,2.9295597760902647,1.1039045058095553,0.8867079813485973,0.9984483371192561,0.7963128325605343,1.6807041372977898,1.6616855692322996,3.057611517670565
1570180015188376.0,2.881059018600151,1.0775410411167399,0.8875249397589545,1.0039225366731517,0.7998285623846259,1.667298064752042,1.666893877523577,3.0349960684992925
1570180015188376.0,2.8299265402225915,1.0540711126779065,0.8901503833406449,1.0088977131085848,0.804818735234885,1.6535257194069022,1.6700649849507467,3.008556984034184
1570180015204432.0,2.781565633050299,1.035527849706333,0.893740570012632,1.0114441454738037,0.8093972624506733,1.6383476122421843,1.6786657550980877,2.9819661175172487
1570180015204432.0,2.727767542218373,1.0169493070726219,0.899157081877575,1.0119715808875638,0.8122684155756962,1.6232089659314701,1.6800772649193243,2.942288737244552
1570180015206327.0,2.6734804926356524,1.000241128943185,0.9061442389361306,1.009334911263586,0.8164347186248527,1.6096280863813637,1.6882462649799341,2.902523752637065
1570180015206327.0,2.614100114118083,0.9864864066590712,0.9137341579832304,1.0030585109915013,0.8230101085287796,1.5974223120304065,1.6921553138322227,2.855501607930135
1570180015227274.0,2.5549419289319704,0.9772420868806536,0.9183854291432431,0.995090277199049,0.831065526136606,1.5863523276306128,1.701427943960051,2.8105051286942797
1570180015227274.0,2.4938582248527053,0.9719588371927178,0.9211647877423009,0.9863770807869864,0.8395753446658002,1.5766957537281747,1.7031099754163024,2.758665841280468
1570180015228310.0,2.4382151205094673,0.9713508306527975,0.9230618902152062,0.9758636539386621,0.8455533738628537,1.568580785439554,1.7094448750947104,2.710000034744009
1570180015228310.0,2.3823541622270756,0.9753044962862258,0.9281432194989463,0.9668456279093074,0.8489440620093077,1.5623512839058582,1.7112173133942223,2.656748326950927
1570180015241242.0,2.3300421679762544,0.9838003044194927,0.9362972068606713,0.9617810565467481,0.8527545114587158,1.5588066272915488,1.7191441526891795,2.6113299319990997
1570180015241242.0,2.2793576090634424,0.9971809809177825,0.947575039027382,0.96043758986353,0.8570123428702969,1.5576053692682528,1.7191762998755284,2.5658854821662045
1570180015248219.0,2.2361052678770514,1.0147238030166212,0.9590120415227487,0.9602973580483595,0.860736508913595,1.5564803907445217,1.7218266683209114,2.5284110129866186
1570180015248219.0,2.1977132305947187,1.0372281099011118,0.968694870103302,0.9576615210958027,0.8639600338162037,1.5555914298869695,1.7190073659802931,2.4897731240635412
1570180015264177.0,2.167965039793148,1.0634189820348336,0.974908131986396,0.9518158228423365,0.8677021972656906,1.5549845807499842,1.7232529680332134,2.456664977522194
1570180015264177.0,2.145635904546652,1.0954949962691016,0.9807136917723099,0.9450044546176608,0.8739612096345911,1.5549191888678962,1.7231696337790676,2.4228131914179705
1570180015266168.0,2.135993183259353,1.130927817993027,0.9868484762376238,0.9369128484041256,0.881609444907955,1.5544572767454692,1.7302728112549477,2.399162354865984
1570180015266168.0,2.139192501744654,1.1692206724250525,0.9945395405134682,0.9268665238147294,0.8867206550512233,1.552820597742632,1.7357976783695415,2.3790377579757296
1570180015287112.0,2.154199499391661,1.207728258120456,1.00087087518003,0.9168754609922423,0.888447392621293,1.552408235241626,1.748143682739099,2.363555303463499
1570180015287112.0,2.1753857674466057,1.2500888408745683,1.004396534717673,0.9098918857407544,0.8899014692764089,1.5539242991289062,1.7522761668091813,2.341906609392431
1570180015288109.0,2.2040001447336923,1.2951831878625941,1.0047068100464371,0.9053376591725302,0.8929855442532649,1.5550122797603183,1.7612740690767543,2.3243189878934563
1570180015288109.0,2.2396885510297717,1.3431938615461574,1.0053622480298239,0.9013234753450555,0.8977262286776942,1.5544058591563081,1.768130825175842,2.3071095546571243
1570180015301083.0,2.2811771645650776,1.3888730467657768,1.0062341102402852,0.897737767746341,0.9050355734994334,1.5514068767659868,1.7795368862873773,2.289992392297289
1570180015301083.0,2.3309156622793545,1.4352031979650768,1.0102345913320432,0.8945746111183285,0.9147597807354894,1.5474794171310617,1.7846516243728336,2.2654269653147936
1570180015309108.0,2.386642356595092,1.4814596462908032,1.0159577922334633,0.8896768561812238,0.9227676112985733,1.5439057360211172,1.7938615956664659,2.2411167251810755
1570180015309108.0,2.448657059590243,1.5333811212066994,1.0230395691696927,0.88345522027656,0.926493635068537,1.540237340661864,1.7970568496225878,2.2131430944215165
1570180015331994.0,2.5171946340430216,1.5879230082720928,1.029041535166181,0.8756931623734421,0.9290826112564708,1.536042873374826,1.806878775026143,2.1872919150403463
1570180015331994.0,2.5922961195329406,1.6437004126364032,1.0336918938826625,0.8668101818649528,0.93243179491939,1.5313747198669088,1.8110210465843894,2.1583689818733416
1570180015333261.0,2.6680336258085164,1.6957461450721842,1.036838731422587,0.8585100887542689,0.935456038551899,1.5259865566106083,1.8153886085423845,2.1265704453784027
1570180015333261.0,2.7489908670894834,1.7509390742147568,1.0406383821172125,0.8497810514730537,0.9382313249500256,1.5198691076926365,1.810169037782513,2.084857437356398
1570180015346070.0,2.836276147689855,1.807499850609067,1.043868846848739,0.8398104579581436,0.9397446208511666,1.5125104928856803,1.8074929276714036,2.040185920660347
1570180015346070.0,2.931851778611389,1.8654129576256484,1.048065133593666,0.8320508630211149,0.9411845548877199,1.5041470887476196,1.7981301622211825,1.996103762358289
1570180015347152.0,3.0313049598017456,1.9200877133614878,1.0531926877668116,0.8278639301411264,0.9433787561056529,1.4962107626926826,1.793057570584693,1.9576924583216626
1570180015347152.0,3.1358010463726083,1.9774513733863845,1.060932614083682,0.8271708603156337,0.9454733352239977,1.4891887535282586,1.7813385832324018,1.921360431406446
1570180015360917.0,3.2420064993169704,2.036257174841017,1.0696802217210626,0.8292376021376489,0.949496787377005,1.4821890130347735,1.7752507058950957,1.8905876723295523
1570180015360917.0,3.3558907810446597,2.097442765503735,1.080487407369732,0.8317991440413784,0.9572993273674828,1.4742090735560918,1.7653591606333552,1.862863705010919
1570180015368896.0,3.4753096450677274,2.156728029047624,1.0919349934336562,0.8308839638079005,0.9675369484964298,1.4631581360361416,1.7598482408599543,1.8392885673841959
1570180015368896.0,3.602860697445097,2.218034614520058,1.1049439154738288,0.8278399279377247,0.9782690989344521,1.449917789698395,1.7480987379384594,1.8195534888782294
1570180015383865.0,3.731922375654668,2.27848641919259,1.1172944358520334,0.8253140637802119,0.9884720998491809,1.4371474917662936,1.741539912727428,1.803423728410485
1570180015383865.0,3.867659193287079,2.3417850312789295,1.1310580192601924,0.8233129527247127,0.99628080501172,1.4266158876485497,1.7300821897693055,1.7929452819590264
1570180015384853.0,4.007911902712808,2.4061948289372515,1.1463641817127064,0.8216517690854831,0.9990087115064263,1.4190167495396975,1.72492946267785,1.7853026079181864
1570180015384853.0,4.157123057804888,2.47577187582484,1.1628829155501366,0.8214405029134372,0.99904784073746,1.413548357641376,1.7176972820342555,1.784095015038677
1570180015406336.0,4.309818262371289,2.5442661745636324,1.1763552205855954,0.8210269172535446,0.9991201790769325,1.4083631468176725,1.7165057203966274,1.7865013161195096
1570180015406336.0,4.4651807207392356,2.614216169183633,1.1878163081491238,0.8200865070512983,0.9971823271951595,1.403298010693634,1.7062236140001097,1.792089691365539
1570180015406791.0,4.619598148473303,2.68675795247208,1.1980891978418686,0.8185546610041531,0.9913670811603426,1.3996749593981188,1.6959919155995533,1.7947578679802605
1570180015406791.0,4.779521762385369,2.7662769187251537,1.210117385276777,0.818209719540729,0.9838145928356026,1.397895815969329,1.680073195188927,1.8023162420413779
1570180015420754.0,4.941141083960274,2.848536947713053,1.2224575634374102,0.8203339047273727,0.9783080696502694,1.396872583086218,1.6711747473513674,1.8097586758528916
1570180015420754.0,5.110070036034813,2.935707655118188,1.2345951340446037,0.8247069651259908,0.9746539389284152,1.3963619728127288,1.657740656462075,1.8249426632605052
1570180015428733.0,5.278368080848453,3.021829356104728,1.2432818689173386,0.8298158133402389,0.9698124426063713,1.3964336638603088,1.650085362952611,1.841183654128347
1570180015428733.0,5.441738711890514,3.1071559392804478,1.2480695776552795,0.8360604653680673,0.9629004182788287,1.3970190781768583,1.6392919241398847,1.8661885802651745
1570180015444690.0,5.598787976551889,3.1898151624827795,1.2499511976545465,0.8418234333520549,0.9539083146934036,1.395670664025826,1.6344177028445568,1.8900945512009792
1570180015444690.0,5.763273989441044,3.274938914269745,1.2528681023766473,0.8472360028196878,0.9438623274886283,1.390613049626716,1.625540931640393,1.9229636001272263
1570180015444879.0,5.931918042607723,3.3588016758862875,1.2551310355089862,0.8533759837088669,0.9336798277146294,1.3834733288713512,1.622287837145163,1.9575551763730261
1570180015444879.0,6.097618853497759,3.436459076908073,1.2593898124382974,0.8625897870632472,0.9243668009443992,1.3761775197027404,1.615115919681546,2.0035492604447653
1570180015466640.0,6.252928312283782,3.5016044583271775,1.2650653429142755,0.8745785825356884,0.9167971166728361,1.369598259121943,1.6132790708801812,2.0461250179433894
1570180015466640.0,6.4097296894711056,3.564897485127091,1.2705150144699433,0.8892121604348925,0.9099382559448781,1.363887289704901,1.6079009678396348,2.0960447224171244
1570180015466640.0,6.571652446341938,3.628402026584796,1.273866094693556,0.9043026005381607,0.9027880370141729,1.3578934916854342,1.6107174310179377,2.1441741559749072
1570180015466640.0,6.739077073113333,3.6935812754334147,1.278025909576345,0.9187322123036881,0.8964550181761293,1.3509578525063497,1.6141968765884351,2.204641392096671
1570180015480601.0,6.903948313853505,3.757065522715342,1.2826968089909294,0.9326231722774689,0.8917841355830965,1.343096233963985,1.624332395411703,2.2637116131022084
1570180015480601.0,7.067592288206375,3.820202425674459,1.2899138696966062,0.9470298908748997,0.887789110515934,1.3358212405104524,1.6300107648810092,2.330510696145266
1570180015488579.0,7.233475145022117,3.8848611133952002,1.2988087382288254,0.9591919188578276,0.884487284634162,1.329003508624124,1.6397829556551602,2.388661025737216
1570180015488579.0,7.412116321009897,3.95530955670985,1.3100095308729613,0.969797907064981,0.8829145089234194,1.3219904155800846,1.6433751796949736,2.452643551915959
1570180015503535.0,7.601974104584539,4.025973275736906,1.3219500810318805,0.9794043896209449,0.8828846962222501,1.3158754052042017,1.6492571132456468,2.5089555358820435
1570180015503535.0,7.779159724163659,4.091062706519343,1.3352492692532825,0.988708755748425,0.88434329499332,1.310933788489451,1.6495210107494296,2.5672007867533577
1570180015504531.0,7.88436932580567,4.136042618037181,1.3466787810390501,0.9980550661930788,0.8850378937002396,1.3058987489743183,1.6533879004494656,2.610675513519956
1570180015504531.0,7.916761155069278,4.165399886567776,1.3531303652477484,1.007467595699698,0.8834997902509857,1.3003202338367796,1.6536473810538534,2.6536549263072025
1570180015526474.0,7.937255608876743,4.193706626484871,1.35486402992312,1.0152406819520399,0.8820728154211219,1.2935253220646932,1.6590970750924396,2.690058345984931
1570180015526474.0,7.971190173034096,4.228736748583459,1.3576266044126644,1.02024416902011,0.8838207130168548,1.2854336855331596,1.662465909974924,2.735366527670422
1570180015527470.0,8.000601112400753,4.268681769565044,1.3614953477321774,1.0222314579632228,0.8892834205772173,1.2774729657658377,1.6736114552259607,2.7738621374085937
1570180015527470.0,8.022896907197975,4.314295449662779,1.3688758784210788,1.0241125606539536,0.8983572298010107,1.2719240169586092,1.6825690615598317,2.8175079099534632
1570180015541433.0,8.050668723599907,4.364046365864796,1.37780536740795,1.026199836569584,0.9106344244919385,1.2693033952187665,1.694873795934001,2.851796369757616
1570180015541433.0,8.08737872426733,4.416779284164868,1.3855631477379782,1.0308848246558475,0.9259222411450891,1.2689159282175608,1.7012346547035475,2.881267136055788
1570180015548771.0,8.125951050886806,4.468173668355035,1.3894525013207895,1.0382167385202103,0.942676673963139,1.2712642587069762,1.7104884528094235,2.8933939795874632
1570180015548771.0,8.150347809421852,4.5193670786746845,1.3918734771738437,1.045246162099247,0.9598590254450494,1.279511029369904,1.718690016625404,2.912673028142786
1570180015563376.0,8.15160228916781,4.554049392650795,1.3881207493310237,1.0458963058165422,0.9739628851627653,1.2929371130302403,1.7325779977681632,2.92503624707391
1570180015563376.0,8.149682939561986,4.557241807102598,1.3778274187780588,1.03947988396281,0.9802535890597762,1.3038277524210016,1.7355919517533895,2.9389726494034885
1570180015564374.0,8.167330698993831,4.550658706750289,1.3690196734179254,1.0312412198353111,0.9812501519901151,1.3075620772017114,1.736795595085362,2.9492070747694528
1570180015564374.0,8.198485753107283,4.551091703514541,1.365471791589944,1.025691908886933,0.9829595377541913,1.3062277906615207,1.7349254749479097,2.969581238312429
1570180015586359.0,8.22551045465074,4.545693241491557,1.3626771964694517,1.0223087464270826,0.9854453778381672,1.3030094886246713,1.7396406417959214,2.982832051964343
1570180015586359.0,8.2429787341981,4.5289979273026155,1.3596052313000158,1.0209558908195653,0.9877961410147605,1.2992748053139453,1.7424618022501825,2.9976600683200822
1570180015587314.0,8.255674066540124,4.512110466058123,1.3541087544519548,1.0199204176122558,0.9897952106943635,1.2947816715575955,1.7517539845670633,3.0044189549543656
1570180015587314.0,8.270978545561753,4.5061747346847225,1.3491011532198915,1.0196696121272752,0.990545072980137,1.2912002188223426,1.7573542937965196,3.018189270673389
1570180015602268.0,8.293315517846409,4.508279268720508,1.3451187896848182,1.0182064689752175,0.9891746274412602,1.287925692174314,1.7635950823075766,3.027564720448386
1570180015602268.0,8.322148722684377,4.513381875605985,1.3427976779444748,1.0138421781035922,0.9870304265793118,1.282482190276979,1.7603682585098965,3.046574414726523
1570180015609338.0,8.368606020643108,4.52368450133313,1.341985394091987,1.008379691155983,0.9847598436198866,1.275943828523298,1.7584781905670428,3.064299164255279
1570180015609338.0,8.442558396098214,4.5412065372340855,1.342812573517137,1.0051943121027174,0.9814310216423892,1.2715749182974527,1.7521476447642914,3.0897684698553927
1570180015624212.0,8.550660039118565,4.568137027394802,1.3434881057099883,1.0051784048147476,0.9771730007970342,1.2701597722158031,1.751224630068801,3.1091205539917346
1570180015624212.0,8.674419519157718,4.600523086211736,1.3453943445209884,1.0085888944096935,0.9739524172275571,1.271671666705017,1.7501826803649567,3.13460061749794
1570180015624212.0,8.749625305972584,4.61074285819959,1.343682998712331,1.0111924979967994,0.9702539094874133,1.2752471524925353,1.7555472240069454,3.1448456385286483
1570180015624212.0,8.73207709840037,4.579131575675495,1.3365355266325256,1.0119699146593462,0.9644868690362522,1.2780120179813517,1.7528611808836287,3.1408559039743933
1570180015646151.0,8.675747884018387,4.532191798275087,1.3280507488541602,1.0143357513297284,0.9577521146821297,1.2803140759885279,1.751035683347402,3.113730167804898
1570180015646151.0,8.631460482805092,4.491633372487197,1.3222058847865297,1.0204985550990078,0.9510025930410002,1.2835813282686293,1.7427698188465397,3.088912513213535
1570180015647149.0,8.59926702460356,4.456448408525876,1.3184435809358668,1.0277529417917526,0.943003239456226,1.2858196632603127,1.7359468742859787,3.0691358508485203
1570180015647149.0,8.562091299885834,4.421205748362151,1.3178194546921833,1.0335760927185713,0.9332163355234574,1.2859155654900607,1.722804847179581,3.0661100956986242
1570180015660115.0,8.531092659994503,4.38817524218228,1.317831520960029,1.0367018032802502,0.9238553561487529,1.2833756745760319,1.7143404131804745,3.060373948952253
1570180015660115.0,8.522614602637812,4.360237850785445,1.318654602544071,1.0403088273643382,0.9178639054508381,1.2803688783999194,1.703101444066491,3.0613625061017897
1570180015669092.0,8.533048823788572,4.340370286194737,1.320350435624342,1.0448980449525833,0.915676150808633,1.2798687089192309,1.6976274713983723,3.0592169268375926
1570180015669092.0,8.533099275163687,4.322244900985551,1.3228139390670282,1.0482309789813276,0.9170480432303044,1.2809723731879583,1.6886085637035146,3.0666591082365624
1570180015684053.0,8.508847295678734,4.29666220472904,1.3222756623540364,1.0476866564921354,0.9204688661705472,1.2805463231404848,1.6834770522456317,3.0724880131274968
1570180015684053.0,8.461473418287907,4.260108983201912,1.3196873919712668,1.044910932053933,0.92499527073954,1.2786756766223901,1.6737019491936955,3.0936354147277507
1570180015684053.0,8.409614636028254,4.221516253220227,1.315204038667548,1.0417170697730849,0.9292106789045123,1.2780280956516408,1.6688170274815408,3.115784494109183
1570180015684053.0,8.360663467578402,4.18361314334079,1.308644902817424,1.0400681184994562,0.9304689347950147,1.278612691884356,1.659041784341386,3.1478367699944845
1570180015706032.0,8.320777599216155,4.15107098928867,1.2997426591677739,1.0386638892589464,0.9284840983141173,1.2775446129755534,1.6528600213453517,3.1759082393458926
1570180015706032.0,8.284785891894153,4.1235466851813625,1.2898927305558032,1.036001130706859,0.9267310477381587,1.2749400887799567,1.6411798267085516,3.2113259972256025
1570180015706992.0,8.242808618342334,4.095745752471467,1.2759896814418554,1.0313450036676322,0.9263891451874163,1.2735135248327394,1.6327301621953942,3.2376486927119785
1570180015706992.0,8.169757799753253,4.053107656093303,1.2570629603074575,1.0268384042732386,0.9252241968294082,1.2733228372421177,1.618120342374808,3.269975880307564
1570180015720951.0,8.079369090021528,4.0011813773561204,1.2359047202778397,1.024760712938742,0.9215371366523706,1.2716993520963409,1.6068030362839874,3.3012213255894687
1570180015720951.0,7.98482898461651,3.948381878629013,1.2176878014219112,1.0253102204496767,0.9168625883599794,1.2684465201973232,1.5905773112728399,3.347180170238501
1570180015728936.0,7.884304841669923,3.8919426384711664,1.2014007770029385,1.0256691685155728,0.9118968371627244,1.2636161211440655,1.5764794957660815,3.3922096770121333
1570180015728936.0,7.76562847458609,3.825143333962081,1.18658778281176,1.0256556630621798,0.906740126584643,1.2559847371604433,1.55405575568747,3.4463168101847867
1570180015743893.0,7.641641973814495,3.759798936319794,1.172642517912931,1.0249345494468294,0.9012197345910932,1.247021512636968,1.5345027271220857,3.493283251319972
1570180015743893.0,7.5211818851294465,3.7006065210370314,1.1613263438149226,1.0238458817921305,0.8955409299430473,1.2399973988414505,1.5102729435876763,3.546818148077248
1570180015744888.0,7.414409733793526,3.6467772566301284,1.1522209440201134,1.0208819242485343,0.8896459568037168,1.2361314759436128,1.491799393495619,3.5937438342310966
1570180015744888.0,7.310463117905797,3.592211327319924,1.1447727466543458,1.0159787073275277,0.8849096243944009,1.233767563908691,1.4717621728791221,3.648996091066488
1570180015765835.0,7.210015356068798,3.5421184007484148,1.1383367417391728,1.009053227165661,0.8828234212109262,1.230348302792665,1.4575792202061475,3.6952939233883146
