timestamp,emg1,emg2,emg3,emg4,emg5,emg6,emg7,emg8
1570179095597412,10,6,-3,-4,-3,-2,-1,-3
1570179095597412,-4,-4,-2,0,0,1,4,-6
1570179095598409,-3,-2,-1,1,0,-3,0,-4
1570179095598409,-5,-3,-2,-1,0,-1,0,1
1570179095598409,1,-2,0,0,1,0,-1,-1
1570179095598409,0,0,-1,-2,0,1,0,-2
1570179095601436,1,-2,0,-2,-1,-1,1,-2
1570179095601436,1,0,0,-1,-2,0,1,-2
1570179095612372,-3,0,-2,0,-1,1,-1,0
1570179095612372,0,0,0,-1,-2,0,-1,1
1570179095616361,0,0,1,-1,0,-1,-1,-2
1570179095616361,1,1,0,0,-1,-1,-1,0
1570179095627886,-4,-1,-1,0,-1,-1,0,0
1570179095627886,-1,-3,-1,0,1,-1,-1,1
1570179095640297,-1,-1,-1,1,-2,-2,0,0
1570179095640297,4,3,-1,-1,-1,-2,0,-2
1570179095647303,-2,-2,0,-1,0,-1,0,2
1570179095647303,0,0,-1,1,-1,0,0,4
1570179095670218,2,-4,-2,-3,-2,-1,-2,-1
1570179095670218,1,-3,1,-1,0,-1,1,1
1570179095674206,-1,-1,0,0,-1,-2,0,-1
1570179095674206,-1,0,-1,1,-1,0,-3,-1
1570179095685210,-1,-1,-1,-1,1,0,1,2
1570179095685210,-3,-2,-1,-1,-1,-1,0,-3
1570179095725070,0,0,-1,1,0,0,0,-2
1570179095725070,0,-1,-1,0,0,0,-1,-2
1570179095726415,0,-1,-2,-1,-2,0,0,-1
1570179095726415,-1,0,0,0,-1,-1,-1,2
1570179095730058,-4,-2,0,0,-1,0,1,0
1570179095730058,3,0,-2,0,1,-1,-1,2
1570179095731055,0,0,-1,0,-1,0,-1,0
1570179095731055,2,-8,-6,-2,-1,0,-1,-1
1570179095736041,-16,3,6,1,-1,0,-3,-5
1570179095736041,14,8,3,0,-1,1,2,7
1570179095745017,16,7,3,-2,-1,-1,1,1
1570179095745017,-20,3,2,-2,-2,-3,-6,-11
1570179095751003,3,-6,-8,-3,-2,-3,-2,-2
1570179095751003,22,6,-2,2,1,1,3,4
1570179095767955,-33,-9,0,0,-2,-2,-3,-6
1570179095767955,8,-6,-4,-3,0,-1,1,0
1570179095773939,-9,2,3,-1,0,1,0,0
1570179095773939,-15,8,2,-2,-2,0,-3,-7
1570179095796878,3,-12,-7,-1,0,1,2,6
1570179095796878,1,14,-2,0,-2,-1,-3,-5
1570179095797876,11,13,7,-1,1,1,2,7
1570179095797876,-27,-36,-4,3,2,0,-2,-7
1570179095810876,36,1,-12,-5,-3,-3,-4,-2
1570179095810876,-30,-28,-3,-1,-1,-3,-4,-6
1570179095818835,28,14,-2,-1,0,0,0,2
1570179095818835,-21,20,11,-2,0,-1,2,3
1570179095833881,12,5,0,-3,0,1,-1,-4
1570179095833881,-7,-27,-6,-2,0,0,2,4
1570179095835060,-41,-17,1,0,0,1,1,3
1570179095835060,20,15,8,3,1,-1,0,-3
1570179095856718,-12,2,-12,-7,-7,-8,-9,-17
1570179095856718,12,14,2,0,-2,1,3,4
1570179095857747,26,6,4,1,1,-1,1,4
1570179095857747,-34,-14,-1,1,2,4,1,5
1570179095870681,1,6,1,1,2,1,2,5
1570179095870681,29,14,8,1,0,0,2,7
1570179095878661,-56,-51,-15,-1,-1,-3,-4,-11
1570179095878661,27,-4,-12,-5,-3,-4,-5,-4
1570179095894617,29,29,13,3,4,4,5,14
1570179095894617,-32,18,12,5,3,5,9,-14
1570179095894617,72,17,-1,-2,-1,-4,-12,12
1570179095894617,-43,-14,-9,-2,-2,-1,-10,3
1570179095916558,24,-5,-7,-5,-3,-4,0,12
1570179095916558,-52,-19,2,3,3,4,6,-16
1570179095917721,88,45,7,4,3,0,-2,76
1570179095917721,23,9,-2,-3,-3,-7,-5,-12
1570179095930521,-42,-11,3,0,-1,-3,-8,-13
1570179095930521,46,11,-2,2,-1,-1,-5,8
1570179095938502,-105,-55,-15,-4,-1,-1,-10,-29
1570179095938502,15,10,9,2,-2,0,0,8
1570179095962438,14,11,11,8,5,8,3,27
1570179095962438,-23,-5,-7,-6,-7,-6,-11,-18
1570179095963435,15,-3,-4,-4,-3,-1,-1,-26
1570179095963435,0,3,-4,0,-1,2,9,-19
1570179095976745,5,19,7,0,2,6,8,21
1570179095976745,39,20,8,3,2,0,4,70
1570179095977396,17,6,0,0,1,3,-22,49
1570179095977396,-57,-42,1,1,3,2,-6,28
1570179095991358,-16,-21,-8,0,-4,-9,-15,-63
1570179095991358,54,29,-1,-1,-1,-1,0,4
1570179095998340,-60,-7,7,0,-3,-2,19,-67
1570179095998340,16,-3,-3,-2,-3,-1,12,27
1570179096014298,-4,12,3,2,1,1,-7,-16
1570179096014298,57,52,22,1,2,1,5,-21
1570179096015295,-56,-61,-16,0,3,1,7,16
1570179096015295,27,-23,-6,-4,-4,-5,-11,-15
1570179096036239,-65,-23,-5,-3,-1,-2,-7,-7
1570179096036239,76,45,14,11,5,1,-17,73
1570179096037690,-53,-24,-17,-14,-8,-6,0,-31
1570179096037690,31,8,-2,0,1,2,7,-21
1570179096051199,-8,-10,-3,-1,0,3,8,19
1570179096051199,-3,-7,-4,-3,-1,-1,0,-28
1570179096058487,25,23,5,3,-1,0,-1,3
1570179096058487,21,44,17,3,0,0,1,6
1570179096074137,-6,-25,-11,-5,-6,-8,-6,-21
1570179096074137,-90,-47,-15,-5,-1,2,3,-25
1570179096075135,-8,25,-4,-3,-3,-5,0,-34
1570179096075135,-1,-19,-1,0,-1,2,5,-12
1570179096097076,27,37,22,5,1,3,13,18
1570179096097076,-88,-78,-16,-6,-6,-4,4,-42
1570179096097076,60,9,1,2,3,0,13,-19
1570179096097076,53,56,-1,-3,-3,0,2,16
1570179096111038,30,-6,0,0,0,0,-3,9
1570179096111038,82,34,1,1,1,0,-9,28
1570179096118020,-70,-27,1,0,2,3,14,-22
1570179096118020,-65,-28,-16,-8,-7,-8,-18,-27
1570179096135972,32,6,7,5,3,2,13,-31
1570179096135972,-28,4,2,-1,-2,-5,5,3
1570179096135972,67,44,10,2,0,0,4,19
1570179096135972,-35,-27,-7,-2,4,1,-3,5
1570179096156945,-20,-5,-3,1,1,1,5,6
1570179096156945,-32,3,-14,-9,-6,-5,-12,-23
1570179096156945,29,-2,12,5,-1,-1,-5,7
1570179096156945,-31,-21,-7,7,2,5,13,-2
1570179096172873,70,15,-13,-7,-4,-3,-6,5
1570179096172873,-96,-36,-1,0,4,5,4,-7
1570179096178857,-61,-12,-9,0,-3,0,-6,13
1570179096178857,-20,-9,-6,-8,-5,-5,-6,-42
1570179096193817,-29,6,8,9,5,3,1,19
1570179096193817,66,7,-7,-1,0,1,8,17
1570179096194814,-30,-4,-1,-5,-4,-3,-4,-9
1570179096194814,59,33,8,-2,-1,-2,6,-34
1570179096216755,-26,-16,1,2,3,1,6,9
1570179096216755,-32,-29,-7,-5,-6,-3,-5,-26
1570179096217753,-40,-14,-3,-3,1,-2,-6,-11
1570179096217753,49,9,-7,-5,-4,-3,-10,5
1570179096238698,75,53,11,-1,-4,-2,1,1
1570179096238698,-77,-100,-20,0,0,0,-3,-27
1570179096239694,125,54,4,2,0,4,8,32
1570179096239694,7,2,1,1,2,2,0,17
1570179096255651,-30,-1,0,-3,-1,1,-2,3
1570179096255651,48,33,10,6,2,3,9,3
1570179096256652,-8,-16,-4,-3,-1,-1,-2,2
1570179096256652,-39,2,3,1,1,0,2,8
1570179096276678,35,9,-1,-2,-2,0,-3,6
1570179096276678,2,-1,4,0,-2,-5,-4,-1
1570179096277593,-7,-10,-3,-1,-1,-3,-9,-12
1570179096277593,75,19,0,1,-1,-2,-3,21
1570179096299535,-78,-47,-10,-2,0,0,4,-10
1570179096299535,62,23,-1,1,-3,-4,-11,11
1570179096299835,-4,7,0,-2,0,3,-3,82
1570179096299835,-5,-24,5,1,2,1,3,3
1570179096314495,19,13,3,3,2,2,5,13
1570179096314495,-46,-13,-7,-7,-1,-2,3,-6
1570179096314950,82,40,10,3,1,0,1,-16
1570179096314950,-17,-6,-4,-1,1,4,15,5
1570179096336562,-62,-52,-10,-5,-4,-6,-19,40
1570179096336562,21,2,-5,-3,-1,-2,-23,37
1570179096344507,15,0,2,3,-1,-1,-1,-7
1570179096344507,94,30,6,4,3,4,2,26
1570179096359376,25,-15,-3,-1,-2,-3,1,-29
1570179096359376,40,13,1,2,0,2,7,-6
1570179096360372,-51,-11,2,4,4,3,2,-12
1570179096360372,-37,-6,-9,-6,-6,-7,-14,-20
1570179096374334,2,10,1,0,0,-1,-1,36
1570179096374334,12,15,7,5,3,2,8,7
1570179096381316,12,2,2,1,-1,-3,-18,34
1570179096381316,-51,-17,3,2,2,4,5,-8
1570179096396277,30,12,-7,-2,1,2,4,-19
1570179096396277,-41,-11,-4,-5,-4,-4,-2,8
1570179096397273,-1,2,4,4,0,1,7,-13
1570179096397273,22,5,-3,-3,-3,-3,-7,-7
1570179096419215,-28,-22,-2,1,0,-3,-8,-18
1570179096419215,84,41,5,-1,-1,-2,-11,6
1570179096420212,2,-4,-2,-1,2,1,5,-14
1570179096420212,-30,-13,1,0,1,-1,0,5
1570179096441193,-30,-2,-10,-9,-7,-8,-6,-58
1570179096441193,50,20,5,1,2,2,-3,21
1570179096449340,-4,-12,0,0,1,0,2,2
1570179096449340,-35,-5,1,-4,-3,-3,-8,3
1570179096457114,-6,-6,-5,-3,0,1,-2,4
1570179096457114,2,-3,-1,-2,-1,1,8,-21
1570179096457114,-3,-4,-4,-4,-6,-6,-1,-43
1570179096457114,13,11,3,3,2,4,5,34
1570179096480084,-80,-36,-7,-4,-4,-5,-5,-20
1570179096480084,6,-7,-3,0,0,1,4,-5
1570179096481050,22,8,1,0,2,1,-1,0
1570179096481050,-16,-11,3,3,0,-2,-5,-5
1570179096494015,-10,16,5,1,-1,-3,-6,-2
1570179096494015,37,6,-3,-1,-3,-3,-4,1
1570179096495012,-62,-28,-10,-9,-6,-3,-4,-20
1570179096495012,27,10,4,1,0,-2,-24,10
1570179096516990,31,22,3,4,1,4,13,10
1570179096516990,-75,-27,-3,-1,-2,3,3,-10
1570179096517951,-16,2,4,1,1,4,1,0
1570179096517951,-32,-11,-6,-3,-1,6,6,-47
1570179096538894,76,21,5,0,-1,-2,-1,0
1570179096538894,2,15,1,1,2,0,-2,12
1570179096539893,-51,-26,-2,1,1,-1,-10,48
1570179096539893,115,64,2,-4,-6,-6,2,23
1570179096554296,-96,-34,-10,-4,-4,0,2,7
1570179096554296,5,11,2,1,-1,-3,6,-27
1570179096554852,41,16,-1,-1,0,-1,5,5
1570179096554852,-19,-4,2,2,3,2,4,6
1570179096576794,7,-7,1,2,0,0,-6,-14
1570179096576794,37,-5,-4,-3,-1,-1,3,3
1570179096577791,5,7,-3,-2,-2,-3,-10,-11
1570179096577791,-59,-29,-3,1,2,-2,1,58
1570179096598734,61,17,3,1,1,1,3,9
1570179096598734,-16,7,7,5,3,1,6,10
1570179096599838,16,-10,-6,-3,-3,-3,3,-12
1570179096599838,-66,-4,-2,-1,-2,-1,6,-12
1570179096622802,20,1,-6,-3,-1,-1,-10,-1
1570179096622802,-29,-9,3,-1,-2,2,3,1
1570179096622802,15,8,-5,-5,-4,-2,5,-60
1570179096622802,22,-6,-5,-2,0,2,2,-6
1570179096636633,2,8,9,4,0,1,4,6
1570179096636633,-25,-17,-13,-5,-4,-4,-4,-10
1570179096637631,8,7,4,2,-2,-2,3,-7
1570179096637631,-14,-10,-2,-1,-1,-5,-1,-37
1570179096659572,-17,-3,-1,-1,0,-1,1,5
1570179096659572,24,13,1,-2,0,2,7,-3
1570179096659813,-44,-2,1,-4,-3,1,14,-6
1570179096659813,9,-14,-5,0,-1,-7,-7,-9
1570179096674580,3,-21,-14,-2,0,-2,-2,32
1570179096674580,13,26,5,2,1,-4,-16,7
1570179096674580,-6,2,7,1,-1,2,6,21
1570179096674580,15,40,12,1,0,1,0,22
1570179096695478,-7,-45,-14,0,1,-1,-1,-9
1570179096695478,-43,-28,1,5,0,-1,2,0
1570179096704474,33,21,-4,-5,-1,-1,-2,9
1570179096704474,-11,1,13,1,-1,2,3,-10
1570179096719412,15,40,-5,-3,-1,2,0,4
1570179096719412,-1,-36,-2,2,0,-1,-4,6
1570179096720409,1,2,-8,1,1,-1,-3,11
1570179096720409,-9,-20,5,-1,0,-2,-4,-19
1570179096742666,12,0,4,3,1,0,4,-9
1570179096742666,-15,6,2,-3,0,-1,-1,-23
1570179096743513,11,8,-4,-4,3,0,0,16
1570179096743513,3,-2,-8,-3,-4,4,7,-8
1570179096765290,12,8,-1,-3,-9,-2,2,7
1570179096765290,14,48,14,0,-4,-3,-8,9
1570179096765624,-17,-64,-4,6,1,-2,-9,5
1570179096765624,-7,-39,-18,-1,3,0,1,-5
1570179096779252,3,20,7,-3,3,3,1,-20
1570179096779252,-18,15,14,6,1,1,6,5
1570179096780249,8,-2,-2,-4,-7,-5,1,-19
1570179096780249,2,2,-13,-5,-7,-6,-7,-4
1570179096810170,-14,-31,3,5,1,1,-3,-10
1570179096810170,9,13,-9,-5,1,2,5,4
1570179096811167,15,18,7,1,0,3,2,4
1570179096811167,-6,0,-15,-5,0,0,1,2
1570179096824133,5,22,22,5,5,-4,-9,6
1570179096824133,-1,1,-5,-1,6,0,2,-6
1570179096825296,5,4,-10,-7,-18,-6,-2,11
1570179096825296,-7,-18,13,3,-2,0,-1,0
1570179096839092,11,29,-4,-5,-2,-1,2,11
1570179096839092,-15,-56,-2,3,8,5,0,-7
1570179096840089,3,6,-5,2,5,-4,-19,13
1570179096840089,9,29,13,-3,-11,-6,-3,5
1570179096862030,0,0,-2,-1,0,-1,1,-3
1570179096862030,-5,-25,-7,-2,0,1,4,-1
1570179096863128,11,37,10,1,3,5,6,1
1570179096863128,-5,-8,7,8,9,3,0,0
1570179096885037,-11,-34,-11,-4,-7,-4,3,-2
1570179096885037,-1,1,-8,-5,-17,-8,-6,1
1570179096885967,4,7,-1,-2,6,4,4,-1
1570179096885967,3,11,9,0,-2,-1,-1,1
1570179096899236,3,18,-1,0,3,2,3,-7
1570179096899236,-6,-11,-1,0,-1,2,-1,2
1570179096900345,-1,-10,2,0,0,-2,1,-7
1570179096900345,6,5,-16,-6,-2,-1,0,-2
1570179096921871,-10,-11,19,6,1,-1,-4,7
1570179096921871,14,36,-3,-4,-5,-2,0,5
1570179096922879,-10,-34,2,5,5,0,0,4
1570179096922879,1,0,-16,-5,-3,0,1,0
1570179096944811,-7,-12,12,6,8,0,-5,-3
1570179096944811,6,17,9,-2,-8,-3,-1,-2
1570179096945806,-4,-14,-9,0,4,4,5,-5
1570179096945806,-1,3,-4,0,16,7,7,-5
1570179096959769,0,-8,8,-3,-17,-5,0,-1
1570179096959769,6,27,3,-1,1,-5,1,0
1570179096966750,-6,-10,-4,-5,-22,-5,-1,-1
1570179096966750,2,-13,-1,-2,-2,4,-4,5
1570179096982714,0,1,-10,-1,11,6,13,6
1570179096982714,-3,-9,-1,1,3,-3,1,-11
1570179096982714,1,17,7,0,4,-6,-38,-11
1570179096982714,-3,-12,1,3,7,-3,1,-5
1570179097004649,5,5,-10,-2,-4,0,-5,1
1570179097004649,-1,-10,-7,-5,-2,3,6,4
1570179097005654,2,8,2,2,6,9,25,5
1570179097005654,-7,-22,7,4,0,1,5,2
1570179097019609,3,14,-7,0,-2,-1,0,-6
1570179097019609,3,-7,-2,-2,-2,2,7,1
1570179097019609,-8,1,4,5,1,-7,-49,-10
1570179097019609,0,5,-1,-3,-2,-6,10,2
1570179097041902,-1,-9,-4,-2,0,11,45,13
1570179097041902,18,36,-5,-3,7,2,-5,3
1570179097043546,-27,-38,15,3,-10,-15,-8,22
1570179097043546,-5,1,-1,-3,-16,-19,-69,-24
1570179097063538,-3,-1,-9,-5,1,-9,-30,-10
1570179097063538,4,-14,1,1,1,10,21,14
1570179097071471,30,37,5,-4,3,4,30,1
1570179097071471,-37,-40,-3,6,3,11,32,7
1570179097079284,21,12,1,-2,-2,8,32,19
1570179097079284,-20,-22,2,6,2,-10,-59,-21
1570179097086431,6,4,-2,-1,4,10,28,2
1570179097086431,13,10,-3,0,2,3,11,3
1570179097109370,-2,-3,-6,-7,-6,-11,-27,-16
1570179097109370,32,12,-2,1,-2,-6,17,10
1570179097110367,-60,-19,-5,-4,-6,-12,-40,-33
1570179097110367,10,-23,-8,-2,-1,12,43,16
1570179097124391,-4,18,8,5,6,19,60,19
1570179097124391,22,-8,-11,-3,-5,-11,-24,-1
1570179097125328,5,-3,3,0,-4,-13,-70,-26
1570179097125328,-14,-9,-10,-3,-1,-6,-19,-9
1570179097139289,-22,3,5,0,-2,-7,-11,9
1570179097139289,-14,-17,-3,1,-1,4,24,7
1570179097140286,62,50,-4,-1,4,14,48,17
1570179097140286,-31,-32,10,4,1,0,-9,-2
1570179097162228,6,-16,-13,-5,-8,-5,1,-6
1570179097162228,-9,12,3,3,7,10,24,8
1570179097163225,1,14,1,0,0,-7,-34,-9
1570179097163225,31,40,9,-1,-2,1,-2,4
1570179097185166,-5,-27,-7,0,-1,-2,-26,-6
1570179097185166,-11,15,-7,-5,-5,-3,6,-2
1570179097186164,5,-5,10,2,4,5,18,-3
1570179097186164,0,-13,-10,-2,-1,0,24,23
1570179097199129,12,27,7,0,3,-7,-58,6
1570179097199129,-16,-38,-2,0,-1,4,24,5
1570179097200126,-4,-1,-3,-2,-10,-10,-31,0
1570179097200126,9,36,-1,-1,-3,-2,-6,-12
1570179097223065,-9,-26,15,3,3,9,35,-8
1570179097223065,2,10,2,1,2,2,7,7
1570179097223065,-2,-3,-4,-2,-1,-1,-24,-11
1570179097223065,0,5,0,-1,0,0,-5,-6
1570179097245007,9,25,1,-3,-4,-3,-14,-8
1570179097245007,-21,-22,-6,-8,-7,-10,-33,-40
1570179097246003,2,-11,-4,2,6,15,47,32
1570179097246003,7,22,4,-2,-2,-2,-24,-10
1570179097259967,-8,-22,2,2,1,-2,-7,-12
1570179097259967,5,-1,13,7,2,0,-17,80
1570179097260384,-4,-12,-11,-4,-1,-1,9,14
1570179097260384,18,25,5,-1,-1,0,18,-28
1570179097282578,-27,-6,-6,-1,1,-8,-31,-2
1570179097282578,-9,-7,-3,-1,0,4,7,-35
1570179097282904,6,-3,-3,-1,-1,12,43,35
1570179097282904,1,9,1,-2,-2,-9,-17,4
1570179097303848,8,6,-1,-2,-2,-1,12,-10
1570179097303848,-8,-5,2,1,-1,2,-15,-23
1570179097311900,-6,-1,-4,-1,3,-3,8,-17
1570179097311900,2,-3,1,2,3,2,-9,4
1570179097318808,2,1,-3,1,-7,-3,10,7
1570179097318808,-8,-2,-4,-6,-16,-2,2,-20
1570179097327786,4,1,-2,-2,-2,4,25,12
1570179097327786,-3,-3,2,0,11,7,11,9
1570179097342744,6,-2,-4,1,9,4,-2,0
1570179097342744,-10,21,3,-1,0,-2,13,-9
1570179097343743,-7,-30,-4,1,4,-1,1,7
1570179097343743,-25,-23,4,-2,-23,-10,-9,1
1570179097367679,16,25,1,0,8,3,13,3
1570179097367679,6,-8,-5,5,21,15,8,2
1570179097367679,-3,16,2,1,19,1,-6,-20
1570179097367679,-6,-8,-10,-12,-66,-28,-24,-5
1570179097378649,-3,-10,-1,-4,-7,-2,2,4
1570179097378649,18,33,0,-1,-8,0,33,15
1570179097387625,-1,-18,10,7,20,11,4,6
1570179097387625,6,7,1,4,21,1,-25,2
1570179097402586,-14,-6,0,0,-8,-6,-2,-17
1570179097402586,23,4,-1,-1,6,-6,1,0
1570179097403619,-22,-11,-9,-7,-24,-5,-23,-48
1570179097403619,46,28,0,-4,1,0,18,-2
1570179097424527,-4,-30,-5,2,2,12,14,62
1570179097424527,-12,-13,15,8,32,12,-37,-3
1570179097426597,1,0,-4,0,-5,-21,8,-7
1570179097426597,2,5,-2,-4,-39,-11,6,11
1570179097438488,1,10,1,-1,-1,-3,-1,-6
1570179097438488,-5,-11,-5,-4,-5,-4,0,-17
1570179097453491,3,6,-2,-4,-11,0,-3,-1
1570179097453491,-11,-5,3,3,27,10,-12,-9
1570179097462490,9,38,0,-4,-3,-1,-7,-11
1570179097462490,-20,-61,-12,1,-7,-6,6,3
1570179097463423,-3,-19,3,4,8,7,-4,-10
1570179097463423,-5,2,-7,1,29,7,28,16
1570179097492386,10,18,2,0,-8,3,4,-3
1570179097492386,8,21,4,-2,4,-3,-15,2
1570179097494340,-6,-12,-16,-10,-40,-8,19,3
1570179097494340,-6,9,19,3,3,3,-24,-12
1570179097498328,-1,-6,-3,-3,8,-9,-18,-9
1570179097498328,8,35,2,1,2,8,11,7
1570179097507304,-11,-40,-3,3,1,-6,-2,3
1570179097507304,3,32,8,-3,-1,-9,-9,2
1570179097522309,-8,-11,-12,-1,1,5,3,-24
1570179097522309,-7,-12,11,-2,-7,-11,-18,-2
1570179097524259,19,49,3,1,13,9,11,24
1570179097524259,-7,-49,-16,-1,-2,4,-6,7
1570179097545204,-1,11,19,8,17,-3,4,-10
1570179097545204,-6,-22,-19,-5,-23,-12,2,-9
1570179097546201,13,32,5,0,5,-3,-1,14
1570179097546201,-3,1,3,-3,9,2,11,-8
1570179097567146,-6,-25,-3,-2,-20,-15,-36,-14
1570179097567146,-2,-6,-1,-2,-3,-2,9,10
1570179097569139,7,2,1,-1,7,4,14,26
1570179097569139,12,49,-4,-2,-13,-2,8,4
1570179097582625,-22,-59,-3,0,1,-3,9,-6
1570179097582625,2,11,4,1,-1,-4,-27,-1
1570179097584101,4,12,7,9,43,19,16,-8
1570179097584101,-12,-30,-8,2,21,5,-20,-15
1570179097605044,-3,0,-4,-18,-61,-28,-27,1
1570179097605044,2,34,-6,-10,-1,-7,-3,-34
1570179097606041,-2,-31,1,5,-2,2,7,5
1570179097606041,-3,13,5,4,16,20,37,4
1570179097626985,10,30,-6,-1,3,-6,-18,-2
1570179097626985,-14,-43,0,6,2,2,2,-2
1570179097628980,2,19,-5,-12,-21,-16,-30,-14
1570179097628980,12,-12,1,3,3,-4,10,23
1570179097642652,13,10,-2,3,38,15,13,6
1570179097642652,-10,4,8,-4,-39,-7,7,-18
1570179097643975,18,3,-6,-2,-4,-4,-22,-1
1570179097643975,-66,-28,4,-1,11,4,-5,-19
1570179097665176,14,12,-1,-6,-50,-2,21,7
1570179097665176,16,3,-11,1,30,4,-23,64
1570179097666977,-13,-15,10,1,-15,0,15,-4
1570179097666977,17,27,3,2,11,-11,-28,0
1570179097687834,-4,-39,-7,4,14,13,27,13
1570179097687834,5,7,13,3,-11,-2,-12,-30
1570179097688823,18,17,-2,-3,-14,-15,-12,-6
1570179097688823,16,-23,-15,-4,25,-5,-36,-4
1570179097702795,-14,19,0,-2,0,14,25,-4
1570179097702795,5,-22,1,4,8,3,19,12
1570179097703782,42,27,3,-6,-42,-11,22,-9
1570179097703782,-69,-22,-7,-3,-18,-4,11,10
1570179097724729,22,4,-8,-1,7,-2,-16,-11
1570179097724729,-16,-7,-3,-5,5,0,5,-10
1570179097726721,-40,-15,3,13,51,27,18,-11
1570179097726721,33,11,-5,-4,-42,-22,-42,-12
1570179097747697,-7,-22,-3,-1,3,-11,-1,22
1570179097747697,11,19,1,1,9,1,-21,13
1570179097748765,-4,8,-6,-5,14,5,-17,1
1570179097748765,-12,-46,0,1,-19,9,17,-11
1570179097768615,-4,34,17,5,16,19,12,-3
1570179097768615,6,6,1,-6,-30,3,30,-24
1570179097777655,0,-7,-7,-8,-23,-25,-21,4
1570179097777655,-1,1,2,1,9,-1,12,7
1570179097785720,23,19,-6,0,19,-2,-16,-6
1570179097785720,-42,-24,-6,5,17,14,17,0
1570179097786563,-9,5,0,0,-3,3,-2,-5
1570179097786563,10,10,7,-1,-9,17,32,22
1570179097807658,1,-21,1,4,20,3,-10,-27
1570179097807658,2,12,1,-1,-34,-22,-15,20
1570179097809503,4,-5,-7,-1,17,6,-7,-4
1570179097809503,21,13,0,3,9,-3,1,-5
1570179097821611,-25,-15,1,-3,-16,-5,0,-1
1570179097821611,17,19,-1,-8,-22,1,22,-2
1570179097836464,-6,7,-6,-3,-7,-1,-7,2
1570179097836464,-5,-24,4,4,10,7,21,4
1570179097845405,-4,15,4,1,11,8,-1,4
1570179097845405,-13,-22,13,5,-4,-17,-42,-15
1570179097846620,22,15,0,3,-2,-13,0,15
1570179097846620,-2,2,-1,0,17,27,22,-16
1570179097875429,2,4,0,-3,-26,-23,-10,6
1570179097875429,-2,0,-4,0,13,7,7,18
1570179097876368,-32,-9,4,3,30,20,31,-15
1570179097876368,48,28,6,1,-25,-20,-12,5
1570179097882343,-13,-27,-12,-13,-33,-20,-24,-9
1570179097882343,-8,-2,-4,1,15,6,2,8
1570179097888338,-16,-10,4,4,7,-2,-18,2
1570179097888338,7,6,1,12,80,40,23,17
1570179097905242,7,5,1,0,-33,-2,15,4
1570179097905242,7,14,-6,-10,-28,-35,-50,-29
1570179097906666,4,10,-2,-11,-51,-24,-11,-6
1570179097906666,-10,-39,10,21,82,49,24,-39
1570179097927648,-6,-2,-4,9,7,42,28,-7
1570179097927648,-17,-8,-20,-36,-80,-83,-27,-10
1570179097929212,3,15,31,-7,-35,-44,-7,3
1570179097929212,-9,-26,-19,-12,-20,-19,5,-4
1570179097942146,11,2,7,26,127,56,-22,2
1570179097942146,-5,-2,-3,18,35,48,60,8
1570179097948132,7,20,0,-12,-48,-15,-89,-44
1570179097948132,-2,12,6,-13,-23,-24,12,6
1570179097965299,-25,-19,6,11,24,22,38,28
1570179097965299,25,18,3,8,7,6,12,11
1570179097966086,-7,-34,-6,1,35,10,-30,-22
1570179097966086,-9,13,4,-1,-25,-4,-7,-26
1570179097987541,-7,-18,-9,-12,-43,-36,-12,12
1570179097987541,15,14,7,1,2,13,9,10
1570179097989020,-1,-11,-2,14,59,40,54,25
1570179097989020,-4,-3,-6,-5,-38,-11,-6,-1
1570179098001996,-12,24,6,-2,29,5,50,-21
1570179098001996,19,-12,-9,-1,-15,1,-9,-4
1570179098009970,12,-2,-5,0,-10,-8,-43,63
1570179098009970,7,27,2,4,44,13,-14,17
1570179098025207,-13,-18,1,1,13,-12,-17,-14
1570179098025207,-10,-43,-19,-11,-54,-5,18,2
1570179098026985,16,17,-6,4,30,30,48,7
1570179098026985,-19,-8,3,-12,-102,-71,-68,-28
1570179098047879,16,14,-4,-4,-3,0,4,2
1570179098047879,0,3,12,13,59,8,-34,-21
1570179098049295,6,0,-16,0,30,24,54,10
1570179098049295,-8,1,3,-4,-32,-7,9,4
1570179098061859,-11,8,6,-8,-25,-16,-23,-12
1570179098061859,20,6,-3,3,58,22,-20,-14
1570179098076010,-17,2,1,-7,-90,-34,34,6
1570179098076010,4,-8,-11,-6,-3,10,-23,-11
1570179098084946,-8,-24,-6,-2,1,-8,-7,1
1570179098084946,-3,12,4,1,15,17,29,10
1570179098086842,15,8,9,6,27,-3,-55,7
1570179098086842,0,2,-10,-8,-28,-16,22,14
1570179098115044,24,1,6,4,13,8,-7,44
1570179098115044,-16,-5,5,4,5,24,59,16
1570179098116749,3,3,-5,-13,-54,-36,-38,-31
1570179098116749,-7,-1,-5,-1,12,-7,-47,7
1570179098121797,8,9,-5,-3,-8,8,19,-1
1570179098121797,-18,-14,-2,1,32,3,13,-82
1570179098128695,-2,-6,3,1,-20,-16,-42,-5
1570179098128695,15,13,5,5,23,13,78,38
1570179098144649,-8,-7,-12,3,62,26,-70,-17
1570179098144649,-10,-8,-2,-12,-101,-57,-9,-4
1570179098146683,16,2,0,-8,-54,-26,22,1
1570179098146683,10,11,-4,-3,-6,-10,-29,-6
1570179098167726,6,21,10,7,38,20,27,3
1570179098167726,-8,-2,-2,6,23,29,-1,19
1570179098168928,-18,-17,-3,5,46,6,-8,-22
1570179098168928,4,8,0,-3,-20,2,54,6
1570179098181575,-6,-1,-2,0,-16,2,14,-10
1570179098181575,-5,-12,-1,-16,-66,-55,-118,-32
1570179098190482,0,-2,-2,4,39,21,26,2
1570179098190482,-4,-7,-1,5,34,13,-11,-16
1570179098205492,1,0,1,-2,-19,-11,15,-10
1570179098205492,9,46,7,4,43,26,-9,12
1570179098206534,-17,-58,-16,-11,-53,-20,2,-12
1570179098206534,4,9,-2,-4,21,5,2,5
1570179098227495,-2,-13,2,3,-17,7,45,11
1570179098227495,9,12,0,4,30,-7,-32,54
1570179098229382,-13,13,2,1,4,4,-14,-18
1570179098229382,-2,-6,0,1,7,6,17,-8
1570179098250587,10,11,3,15,65,25,2,21
1570179098250587,8,-9,-3,-19,-71,-46,-12,-23
1570179098251887,5,12,-3,-4,0,6,17,48
1570179098251887,-13,-36,-2,-6,-41,-23,-9,-5
1570179098265353,4,16,-1,-7,-5,-6,-16,-7
1570179098265353,-3,-10,2,14,65,47,54,16
1570179098266558,-2,5,2,8,43,32,-1,-17
1570179098266558,10,16,5,3,-2,-12,-37,-5
1570179098287344,4,21,-4,-19,-92,-45,1,-3
1570179098287344,-17,-57,-8,3,14,5,-1,2
1570179098289300,-8,-12,2,10,54,26,54,6
1570179098289300,6,13,6,23,101,55,1,5
1570179098301551,-7,-9,-10,-25,-94,-62,-75,-53
1570179098301551,3,16,-4,-37,-84,-70,7,2
1570179098310161,-4,-9,-1,4,55,19,19,-1
1570179098310161,6,12,6,6,21,11,8,24
1570179098325516,7,-12,0,11,35,15,-20,23
1570179098325516,4,5,-2,16,51,37,27,8
1570179098326223,-12,-13,-2,-8,-33,-11,-9,-12
1570179098326223,4,5,-5,-10,-45,-19,-18,53
1570179098346070,3,29,5,-7,-30,-14,17,-23
1570179098346070,-9,-42,-11,8,30,23,10,20
1570179098355040,4,11,6,8,15,7,0,-1
1570179098355040,-6,-15,-5,5,8,-1,-1,-17
1570179098361418,-7,-9,5,3,27,9,7,2
1570179098361418,16,43,11,1,-30,-2,-2,-4
1570179098370001,-8,-26,-7,-5,-8,0,1,17
1570179098370001,-2,1,3,1,-7,-8,4,-18
1570179098383962,3,-4,-1,-2,7,-3,-11,18
1570179098383962,-1,6,-7,-3,-7,2,-1,0
1570179098392940,-3,2,-6,-26,-61,-22,-5,-4
1570179098392940,0,12,6,4,18,16,0,-9
1570179098407904,0,-13,-6,17,79,35,9,10
1570179098407904,-7,-26,-1,2,-27,-5,1,-8
1570179098408896,-3,13,0,-10,-32,-23,-6,-32
1570179098408896,-5,-15,-10,-5,-4,-7,-6,-25
1570179098420896,1,8,6,20,56,14,7,9
1570179098420896,-4,0,-1,9,31,11,7,-2
1570179098429905,-9,-19,-18,-41,-67,-35,-11,-11
1570179098429905,1,5,0,-6,-5,-8,-1,-13
1570179098444802,-2,3,7,4,-1,-10,-5,-4
1570179098444802,10,16,9,19,55,25,9,11
1570179098446795,6,7,10,27,50,14,-1,2
1570179098446795,0,6,-2,-29,-91,-31,-8,1
1570179098467113,3,-15,-12,-12,-27,-10,1,24
1570179098467113,1,7,10,20,91,36,9,-10
1570179098474732,-9,-26,0,16,-51,-19,-1,7
1570179098474732,2,-2,-2,0,27,1,-3,12
1570179098481711,2,2,7,5,-5,-4,4,-9
1570179098481711,1,14,-11,-12,1,-5,-3,-10
1570179098495673,-7,10,2,4,21,18,3,-33
1570179098495673,-11,-25,-7,-3,-4,-3,1,-26
1570179098504845,5,-3,-5,-11,-55,-21,-6,13
1570179098504845,-4,12,-7,-7,-6,-2,-6,-2
1570179098506639,-1,1,15,19,69,29,9,2
1570179098506639,-2,-2,-6,-8,-53,-16,-5,-3
1570179098527680,-2,4,-5,-8,-7,-5,-2,-10
1570179098527680,9,-1,-1,-2,-7,-4,1,5
1570179098529159,-4,-7,-6,3,8,3,-5,-2
1570179098529159,2,11,12,13,31,11,3,6
1570179098541541,0,0,-2,-9,-19,-9,-13,14
1570179098541541,-1,-10,-10,-8,-20,-9,0,4
1570179098549806,3,17,10,4,11,5,0,9
1570179098549806,4,22,8,12,45,15,4,10
1570179098564568,-13,-38,-18,-19,-61,-19,-3,-30
1570179098564568,7,20,11,0,-19,-5,6,38
1570179098566835,-3,-4,-9,-6,6,1,-3,-1
1570179098566835,8,5,-1,5,13,3,0,21
1570179098587423,5,27,8,9,25,10,4,-3
1570179098587423,-22,-43,-8,2,-3,-4,-4,-52
1570179098589413,-5,7,3,-10,-11,-8,11,-15
1570179098589413,-3,-11,-13,-17,-52,-19,-14,12
1570179098601625,2,1,-4,-11,-30,-10,2,3
1570179098601625,10,26,13,3,3,-1,-10,16
1570179098610362,11,10,4,9,36,13,-12,32
1570179098610362,-4,0,4,7,13,1,-5,-16
1570179098625326,-4,-28,-7,-3,3,-2,1,-7
1570179098625326,-4,0,0,-3,-7,-4,-1,-11
1570179098626444,6,32,5,0,-4,0,4,1
1570179098626444,1,-8,-15,-4,10,7,4,9
1570179098647759,-8,-35,2,9,11,5,-1,2
1570179098647759,-3,7,9,-1,-15,-9,-3,-2
1570179098649262,3,5,-4,-3,-2,-2,-5,-3
1570179098649262,3,10,3,2,-1,1,5,2
1570179098670365,-10,-1,-5,-3,0,-3,1,-50
1570179098670365,-4,-8,-5,-3,1,0,1,-1
1570179098671270,14,12,1,3,9,4,1,7
1570179098671270,-11,-17,-5,-2,6,-1,-3,-7
1570179098685331,2,21,-1,1,10,1,-1,-3
1570179098685331,-9,-24,10,4,6,2,-3,-4
1570179098686841,2,-7,-5,-13,-54,-18,-5,3
1570179098686841,3,2,0,-1,2,0,6,3
1570179098707104,-9,8,-1,-1,0,3,18,-18
1570179098707104,6,8,-2,0,17,7,3,6
1570179098709486,0,1,2,9,24,8,3,7
1570179098709486,-9,-16,8,4,-4,-2,1,-42
1570179098730197,5,9,1,-6,-14,-7,-1,13
1570179098730197,7,15,-9,-3,1,1,1,14
1570179098731046,-5,-13,-2,2,6,3,1,-9
1570179098731046,-6,-20,-3,10,31,11,1,-10
1570179098745005,1,0,-2,3,1,0,-8,16
1570179098745005,1,3,-1,-9,-29,-12,1,-1
1570179098746199,-9,-9,-15,-22,-30,-22,-17,-38
1570179098746199,10,21,0,-3,-4,-1,-1,21
1570179098774921,-5,-27,3,10,20,8,-2,-4
1570179098774921,5,7,1,4,11,4,-3,18
1570179098776913,4,-3,1,6,9,6,7,5
1570179098776913,-4,-2,-6,-1,0,-2,-3,2
1570179098789886,14,47,8,-7,-10,-5,-3,9
1570179098789886,-20,-60,0,3,-1,-1,1,-23
1570179098791873,-6,1,-8,-2,6,6,4,10
1570179098791873,14,15,13,2,4,-1,-14,28
1570179098804848,44,-4,-2,3,8,2,0,12
1570179098804848,17,28,-6,-12,-30,-11,-3,2
1570179098810821,-12,-2,15,8,9,2,5,11
1570179098810821,-4,-16,-7,-3,-7,-4,-4,4
1570179098827784,40,22,3,0,0,-3,-2,7
1570179098827784,-1,2,-6,7,23,10,-1,9
1570179098828932,-49,-8,3,6,12,3,1,-23
1570179098828932,7,-6,-6,-16,-37,-10,10,11
1570179098849717,-13,-8,-1,0,-5,-1,2,20
1570179098849717,11,-2,-13,-8,-2,0,1,-6
1570179098851710,-1,-14,3,3,2,2,10,-32
1570179098851710,-7,13,4,0,8,-1,-9,-23
1570179098863678,-27,-11,2,5,8,4,-3,-8
1570179098863678,-12,1,-7,-13,-29,-9,0,-5
1570179098878640,15,5,1,-3,-7,-4,-1,7
1570179098878640,-9,-20,-1,0,-2,-2,1,-7
1570179098888711,1,21,-1,0,1,0,0,2
1570179098888711,-2,-4,16,10,21,6,-1,-3
1570179098889609,14,2,-2,5,5,3,-2,12
1570179098889609,-10,-30,-14,-7,-10,-4,-1,-3
1570179098909642,-11,-1,-4,-3,-4,-4,-10,-6
1570179098909642,3,18,6,1,2,1,-2,4
1570179098911554,-5,-3,-8,-4,0,-1,0,7
1570179098911554,2,12,6,6,9,3,4,8
1570179098924630,-8,-7,-7,-7,-11,-5,-8,-23
1570179098924630,-12,-6,-5,1,0,-4,-4,-6
1570179098931568,17,7,-1,-2,3,-1,-4,14
1570179098931568,4,22,18,6,0,3,-1,-4
1570179098947661,-18,-34,-12,-5,-5,-1,11,-23
1570179098947661,3,-14,-15,-3,-1,-1,-2,5
1570179098949452,4,1,7,3,2,1,-1,12
1570179098949452,-1,-7,-10,0,1,-1,0,1
1570179098970394,-1,22,11,0,-5,-1,-1,4
1570179098970394,-3,4,-1,1,4,2,3,0
1570179098971393,5,-2,-4,0,-2,0,0,9
1570179098971393,2,6,-5,-2,-2,0,3,3
1570179098984357,-7,-9,5,0,-1,-2,-4,6
1570179098984357,8,8,0,1,0,0,0,-3
1570179098991345,3,-2,7,0,-3,0,-4,1
1570179098991345,-4,-6,-5,0,0,-3,0,1
1570179099007483,1,21,5,2,1,0,-1,8
1570179099007483,-11,-35,-6,0,0,-1,-5,13
1570179099013493,12,7,-8,-4,0,0,0,6
1570179099013493,-7,-21,-1,4,4,0,1,2
1570179099030409,-1,-3,-3,-3,-1,0,-1,6
1570179099030409,4,16,-2,-2,-1,0,3,-1
1570179099031232,3,10,2,0,-1,-2,-4,2
1570179099031232,-1,3,-5,-5,-2,0,-1,-1
1570179099044353,-5,-8,6,0,0,-3,-3,-2
1570179099044353,10,14,1,1,0,-2,2,-4
1570179099051185,-4,-26,-13,-1,1,1,4,3
1570179099051185,-4,13,6,0,-1,-1,-1,-6
1570179099067472,2,-8,1,3,0,1,1,4
1570179099067472,-14,4,3,-2,0,-2,-2,-10
1570179099069180,9,21,4,-2,-1,-1,-1,2
1570179099069180,1,-25,-2,0,1,-1,0,2
1570179099090304,-6,-6,-9,-2,-1,1,4,-2
1570179099090304,-1,12,16,4,3,-1,-10,15
1570179099091365,8,-4,-5,-1,-3,-2,-1,1
1570179099091365,2,6,-9,-5,-5,-1,2,-9
1570179099104205,3,-12,-2,-1,1,0,3,6
1570179099104205,-2,6,6,0,0,1,4,-6
1570179099111020,1,6,-12,-4,-2,-1,-3,-3
1570179099111020,-3,8,20,4,2,-1,-5,0
1570179099126978,0,-7,-3,-1,-3,1,2,-2
1570179099126978,11,-3,-6,-2,0,-1,3,4
1570179099128971,-31,-13,-4,-1,-1,0,-1,-4
1570179099128971,9,14,-1,0,2,1,13,-10
1570179099149137,-3,2,-2,-2,-1,1,4,-18
1570179099149137,18,12,6,3,0,0,-16,30
1570179099157893,-1,-20,-1,1,1,0,3,-14
1570179099157893,-11,-3,1,-1,-1,-2,-10,0
1570179099164053,-1,7,5,2,0,-1,-1,7
1570179099164053,16,14,-5,-2,1,2,4,3
1570179099172854,-2,4,10,3,0,0,-3,8
1570179099172854,3,-20,-17,-3,0,0,-4,9
1570179099187823,-6,1,3,1,0,-2,4,-2
1570179099187823,-1,-8,-2,-3,-3,-3,-4,-23
1570179099188811,1,4,-1,-2,1,1,4,-6
1570179099188811,-2,7,0,-1,-3,-2,-14,-6
1570179099209755,-1,-1,9,3,-1,-1,-3,-11
1570179099209755,-20,0,-8,-4,-2,0,17,-49
1570179099215788,2,-3,5,1,1,-1,2,13
1570179099215788,-5,-15,-11,-4,-2,-3,-2,-9
1570179099223924,-13,-8,-7,-3,-4,-5,2,-60
1570179099223924,-1,4,-1,-2,-2,0,0,5
1570179099232693,1,-4,2,0,-2,0,0,-20
1570179099232693,-3,10,-1,-1,0,1,2,-7
1570179099247855,3,-3,-8,-6,-2,-1,-3,1
1570179099247855,8,-5,10,3,1,0,5,19
1570179099248872,6,4,-11,-6,-3,-2,1,-6
1570179099248872,-13,-16,8,9,4,-1,5,-6
1570179099269909,-1,-21,-10,0,-1,-1,-2,17
1570179099269909,-4,18,0,-3,-1,0,4,-5
1570179099271595,-5,-26,-2,2,2,1,-4,13
1570179099271595,11,19,-1,-4,-2,-2,3,5
1570179099292540,9,12,3,3,1,3,-2,17
1570179099292540,9,2,3,0,-1,-3,-4,-7
1570179099293531,-17,-21,-8,-3,-1,-1,0,-16
1570179099293531,-1,8,0,-1,0,2,2,8
1570179099307642,2,7,3,0,-3,-2,-1,5
1570179099307642,1,-13,-5,-1,0,0,2,3
1570179099309488,5,12,4,0,0,1,1,8
1570179099309488,3,5,-5,-5,-3,0,2,-1
1570179099330484,7,12,-3,-3,0,-1,-3,16
1570179099330484,-20,-6,-1,1,-1,-1,-2,-13
1570179099331431,23,4,15,4,-1,-3,-5,-1
1570179099331431,3,-32,-10,1,0,1,0,1
1570179099343589,-15,14,-5,-8,-5,-3,-1,-17
1570179099343589,10,22,5,-1,-1,-1,-7,14
1570179099358358,-13,-4,-4,1,-2,-4,-7,-14
1570179099358358,9,-11,-8,-3,-1,1,12,8
1570179099367836,-6,-15,-3,0,0,-1,-1,3
1570179099367836,-1,6,7,1,-1,1,0,-5
1570179099369336,6,11,-4,2,0,1,4,9
1570179099369336,2,32,14,-1,-1,-1,-4,-4
1570179099389285,-8,-34,-13,-1,0,-1,-2,3
1570179099389285,-4,1,4,-2,-2,-2,-1,-4
1570179099397408,7,26,2,-3,0,1,-1,2
1570179099397408,-5,-21,-6,-1,-2,0,-4,-3
1570179099404114,2,16,-3,-2,0,-1,-4,1
1570179099404114,5,19,-1,-1,-1,-2,-1,-4
1570179099412214,-8,-46,-2,0,-1,-2,1,-8
1570179099412214,-6,-5,2,0,0,0,-3,0
1570179099427391,5,16,9,3,-1,1,-2,2
1570179099427391,-14,0,1,1,1,-1,2,3
1570179099429313,18,15,-14,-9,-3,-2,0,5
1570179099429313,-2,38,12,4,0,3,2,-5
1570179099450239,-5,-44,10,5,0,-6,-23,-24
1570179099450239,-7,-1,-2,-2,-1,0,3,-25
1570179099451657,-13,-29,-11,1,-1,-1,-3,4
1570179099451657,-6,-1,8,-2,-2,-8,-28,-39
1570179099463079,10,20,0,-1,0,1,7,1
1570179099463079,-8,-9,-13,-2,-2,-5,3,-43
1570179099473054,18,23,-2,-1,1,0,-7,71
1570179099473054,-8,-12,26,6,1,-2,5,-25
1570179099487255,-6,-10,-12,-3,2,4,10,18
1570179099487255,5,-3,-5,-1,0,2,-3,4
1570179099489009,-5,20,8,-2,-3,1,7,-23
1570179099489009,-5,-17,-6,0,3,0,2,12
1570179099509952,13,28,5,-1,0,-1,2,21
1570179099509952,-2,-34,-4,-3,-2,-2,-13,15
1570179099511949,10,3,-1,-1,-1,-2,-1,-4
1570179099511949,4,10,-11,-2,-2,1,15,0
1570179099524012,-11,-6,-9,-6,-3,-6,-14,-23
1570179099524012,-15,-19,28,10,2,0,8,-2
1570179099532897,-2,14,3,-1,0,2,-3,-18
1570179099532897,19,33,-8,-4,-4,1,5,16
1570179099547929,-7,-37,1,3,4,3,12,-7
1570179099547929,-4,4,-10,-4,-1,0,1,12
1570179099548972,-7,-23,-2,-1,0,-1,0,-5
1570179099548972,13,43,15,1,-1,0,-3,50
1570179099569945,-11,-21,-8,-1,-1,-1,-3,-9
1570179099569945,6,6,8,0,-2,-1,-4,5
1570179099571788,-11,-3,14,6,1,1,1,5
1570179099571788,7,4,-13,-5,-1,-2,-5,-4
1570179099592737,8,20,2,-3,-2,-2,0,11
1570179099592737,-8,-28,-13,-1,-2,-2,1,-4
1570179099593732,4,19,-2,-1,-1,-1,3,-14
1570179099593732,-6,-32,-6,0,-1,1,1,-1
1570179099606826,-3,5,6,0,-2,-1,-1,6
1570179099606826,5,-1,-3,-2,0,0,2,7
1570179099613684,10,22,-4,-4,-1,-1,3,-20
1570179099613684,-20,-43,9,6,2,-2,-4,-3
1570179099630377,3,-2,0,1,1,0,-1,5
1570179099630377,8,16,-5,-4,-1,-3,1,-33
1570179099631831,-19,-18,-11,-5,-1,-1,0,4
1570179099631831,10,21,-8,-5,-2,0,2,-3
1570179099652885,0,10,26,7,1,-1,-4,-5
1570179099652885,-14,-34,-15,-3,0,0,-2,-27
1570179099653570,0,1,6,2,-1,1,1,-5
1570179099653570,1,7,-11,-3,0,1,2,5
1570179099666868,-2,-6,3,0,-2,-3,-1,0
1570179099666868,11,34,2,-1,-2,-1,-5,14
1570179099675510,-16,-33,0,2,0,-1,-5,-1
1570179099675510,6,6,1,3,3,1,-7,52
1570179099689612,6,0,1,1,0,0,-5,24
1570179099689612,2,5,2,1,1,0,0,15
1570179099691868,3,6,-8,-3,-1,-3,-4,-1
1570179099691868,-9,-7,-4,-3,-3,-4,-3,-10
1570179099712583,13,30,4,0,-1,-1,3,-7
1570179099712583,4,-17,-1,1,2,3,-4,28
1570179099714405,-4,-11,-3,1,0,1,-5,16
1570179099714405,1,-10,-2,1,0,-1,1,-20
1570179099727422,-3,-5,4,1,1,1,7,17
1570179099727422,5,18,-8,-6,-2,0,5,10
1570179099733681,-5,-18,0,-1,0,-1,5,-7
1570179099733681,9,12,2,0,1,5,6,18
1570179099750323,-3,6,-4,-3,-1,-1,-5,-3
1570179099750323,-1,-16,-1,1,0,-1,-3,-6
1570179099751307,-4,6,2,-1,-1,-3,-2,-7
1570179099751307,-1,5,-1,-3,-1,-3,-2,-8
1570179099771631,-7,-24,-11,-1,-2,-2,0,-9
1570179099771631,-2,12,-1,-2,-2,1,8,-51
1570179099780228,-4,-9,8,1,-1,-1,-6,12
1570179099780228,1,-6,-11,-1,0,3,4,6
1570179099787221,-6,-9,-1,2,1,-1,-1,-10
1570179099787221,9,34,5,0,-1,-3,2,2
1570179099793458,-12,-35,-7,0,-2,0,-1,0
1570179099793458,-2,5,-1,-1,-2,-2,-3,-10
1570179099810157,-2,-5,-9,-4,-1,-1,-3,-13
1570179099810157,6,16,4,4,1,0,7,30
1570179099811373,3,22,2,-2,-1,0,3,-28
1570179099811373,-13,-54,-9,0,3,1,2,7
1570179099832091,2,-2,-10,-3,0,-1,-1,-7
1570179099832091,-6,-16,2,-1,-1,-1,-6,4
1570179099834086,5,18,-2,-6,-3,0,9,-31
1570179099834086,-11,-4,8,5,1,0,4,-3
1570179099847097,12,28,-2,-2,-2,-2,-3,10
1570179099847097,-8,-29,-12,-5,0,-1,-3,3
1570179099853402,-8,-13,12,5,0,1,2,11
1570179099853402,5,15,1,-1,-3,-2,-4,-14
1570179099870036,-1,4,3,-1,-1,0,-3,9
1570179099870036,23,0,-7,-1,-2,1,1,10
1570179099870985,-26,34,-3,-4,2,0,-2,-2
1570179099870985,-3,-33,2,4,0,-4,-6,-7
1570179099892928,-3,19,5,-3,-5,-1,2,1
1570179099892928,-7,-21,9,6,4,3,-6,41
1570179099893925,12,2,-12,-3,-4,-4,-2,-6
1570179099893925,21,42,0,-4,-3,-5,-9,18
1570179099907038,-14,-30,2,-1,-1,0,1,-5
1570179099907038,-4,-4,-1,0,-1,0,-3,-23
1570179099913870,1,30,11,2,1,0,-2,-43
1570179099913870,-5,-11,-3,-4,-1,0,3,12
1570179099930007,5,-7,-10,-2,3,1,4,-6
1570179099930007,6,2,-5,-2,2,1,2,8
1570179099931831,1,13,14,7,12,5,2,4
1570179099931831,-23,-21,0,-4,-7,-5,-2,-25
1570179099953066,-1,-6,-19,-8,-24,-11,-3,-2
1570179099953066,-14,-9,15,-1,-6,-2,1,-11
1570179099954131,7,-7,-1,4,2,-1,-1,19
1570179099954131,-8,2,-12,-5,3,-1,-16,-44
1570179099966879,-5,7,5,4,8,3,-7,-16
1570179099966879,-10,-2,-6,-3,-4,-3,5,-5
1570179099973722,26,8,-3,1,0,7,11,67
1570179099973722,-11,11,9,1,7,0,0,-19
1570179099990676,7,4,-4,7,15,11,1,40
1570179099990676,-7,-18,5,4,-6,-6,-7,-13
1570179099991664,5,-13,-19,-16,-19,-9,-2,4
1570179099991664,9,13,10,7,3,5,12,17
1570179100012609,1,18,14,-2,-3,-2,2,-3
1570179100012609,1,5,-18,-8,-1,2,2,0
1570179100013606,-9,-32,10,4,2,1,0,9
1570179100013606,3,0,-9,-2,-4,1,5,2
1570179100026919,-1,19,0,-1,2,0,-9,-53
1570179100026919,1,-8,2,4,7,3,-3,-5
1570179100034075,-8,0,-21,-6,-6,-6,-3,-42
1570179100034075,4,9,29,11,18,12,15,-16
1570179100057596,1,11,7,0,-11,-11,-2,3
1570179100057596,-3,-42,-29,-14,-19,-5,7,20
1570179100059482,1,22,15,6,5,2,3,-7
1570179100059482,3,-21,-18,-12,-15,-10,-18,-2
1570179100072456,9,3,0,1,10,2,0,11
1570179100072456,-7,3,12,4,1,-1,-6,-19
1570179100074540,-19,-18,-9,-2,0,1,-6,-3
1570179100074540,7,10,0,4,8,2,3,22
1570179100086539,4,-3,-3,-3,-1,-1,1,7
1570179100086539,7,14,2,2,8,1,-4,8
1570179100095386,2,-1,-4,-5,-6,-4,1,-10
1570179100095386,-2,-8,-1,-7,-15,-7,-2,2
1570179100110488,7,31,1,-10,-12,-4,-2,12
1570179100110488,-11,-49,-17,6,8,4,2,-8
1570179100111349,-1,-2,12,6,7,1,-2,5
1570179100111349,3,-22,-14,2,2,2,2,20
1570179100131516,1,-5,-1,3,3,-1,-1,-6
1570179100131516,1,18,10,1,4,0,1,-14
1570179100140267,19,23,-5,-2,-8,-1,2,23
1570179100140267,-7,4,-14,-5,-8,-8,-5,-12
1570179100146461,-4,-17,24,9,7,4,5,2
1570179100146461,4,52,6,4,20,8,0,-4
1570179100155366,-13,-55,-17,-14,-38,-23,-11,-9
1570179100155366,3,6,-1,-7,-17,-5,9,2
1570179100170347,-4,-6,-3,2,4,1,3,3
1570179100170347,5,4,-3,-2,-3,1,-1,11
1570179100171461,4,-4,14,11,34,16,7,11
1570179100171461,-8,-12,3,3,5,-1,1,-24
1570179100192179,0,-3,-10,-8,-13,-3,3,19
1570179100192179,-1,4,-4,-2,5,1,-4,2
1570179100194131,-6,14,10,6,12,3,-1,-15
1570179100194131,3,16,7,-4,-15,-6,-5,-5
1570179100206100,-5,-22,-4,-7,-16,-4,0,-12
1570179100206100,2,26,2,0,-1,-2,-3,-1
1570179100215093,1,-36,-9,-2,-10,-3,-1,4
1570179100215093,-4,25,8,9,17,6,-1,10
1570179100230031,6,-6,-11,0,13,4,4,14
1570179100230031,-19,-31,3,-14,-52,-21,-1,-16
1570179100232030,6,20,-2,-4,-1,-3,-7,-2
1570179100232030,5,6,-1,7,20,10,4,14
1570179100252969,-8,1,4,2,0,-3,-7,-14
1570179100252969,4,7,-13,-4,1,0,3,-5
1570179100254251,6,35,28,7,11,8,13,1
1570179100254251,5,-44,2,17,44,18,2,54
1570179100266040,-17,-21,-9,-4,-26,-13,-10,-10
1570179100266040,4,-2,4,-5,-19,-6,1,7
1570179100274906,2,17,-16,-12,-8,-4,-9,-5
1570179100274906,5,15,9,4,0,-2,0,-9
1570179100290008,0,-4,1,-1,-4,-2,0,-7
1570179100290008,-2,-7,2,2,9,1,-2,12
1570179100291867,3,11,-7,0,3,-2,-11,3
1570179100291867,-2,8,-1,-1,-1,-2,-7,-11
1570179100312854,6,0,-8,1,10,5,-2,0
1570179100312854,-7,-3,15,5,-5,-4,-5,-18
1570179100313802,3,-10,6,7,19,11,5,11
1570179100313802,-13,-18,-13,-6,-20,-15,-10,-12
1570179100325780,4,-2,7,0,8,4,2,7
1570179100325780,2,19,-5,-2,9,-2,-4,-29
1570179100334895,8,-2,-4,-6,-22,-11,-12,8
1570179100334895,-2,-11,-16,-7,-2,-1,0,4
1570179100349711,-3,28,20,8,16,3,2,-2
1570179100349711,-5,-18,-7,6,7,1,-2,-4
1570179100351701,5,-1,4,1,-2,0,1,42
1570179100351701,-11,3,-2,-9,-22,-9,0,-55
1570179100372655,19,21,-4,1,22,10,3,21
1570179100372655,-8,-38,3,6,2,3,-1,13
1570179100373873,-16,-21,-6,1,-5,-6,-2,-11
1570179100373873,8,14,0,1,7,7,5,3
1570179100386748,-6,2,-8,-12,-21,-10,-5,-16
1570179100386748,-1,9,8,1,-7,-7,-8,-8
1570179100394800,-2,-10,-1,-3,-2,0,7,-12
1570179100394800,4,15,10,2,4,3,0,26
1570179100417726,-2,-16,3,10,14,5,5,9
1570179100417726,4,17,-1,-1,7,3,1,3
1570179100419521,-7,8,-13,-11,-20,-8,-1,-7
1570179100419521,15,15,14,2,3,1,-11,26
1570179100432568,-21,-52,-13,5,3,2,0,-6
1570179100432568,-1,4,-6,-18,-36,-13,-5,-4
1570179100433487,-4,7,1,7,18,7,3,-19
1570179100433487,6,-3,0,-7,-11,-2,5,-1
1570179100446447,3,6,-10,-5,-9,-2,0,-4
1570179100446447,0,-2,13,11,20,9,5,8
1570179100455424,2,-1,-1,6,12,0,2,-7
1570179100455424,-2,1,-10,-15,-33,-13,-4,2
1570179100470385,6,6,4,1,1,-1,-5,53
1570179100470385,2,-1,2,3,11,5,5,7
1570179100471386,5,15,1,0,-1,1,0,-2
1570179100471386,-7,-11,-2,6,21,7,3,-2
1570179100492556,1,-24,-7,0,-1,0,2,-12
1570179100492556,-5,10,-13,-12,-16,-7,-5,2
1570179100494321,3,-8,1,-3,-12,-4,-1,6
1570179100494321,-5,-11,-1,-3,-3,-4,-3,-8
1570179100515705,-1,3,6,5,11,5,1,-8
1570179100515705,5,6,-5,4,20,6,1,1
1570179100516437,-3,-3,2,-6,-15,-4,-1,-5
1570179100516437,-4,-5,-8,-6,-8,-8,-3,-7
1570179100530455,0,9,0,-6,-14,-6,-2,-13
1570179100530455,3,-10,-5,1,3,-1,-8,14
1570179100531393,6,11,6,6,20,7,-9,26
1570179100531393,5,37,10,0,-11,-5,-5,-3
1570179100552328,-11,-45,-11,-5,-7,-4,-5,-8
1570179100552328,2,-6,-5,0,4,5,6,9
1570179100554162,-7,-11,-6,-1,-5,-2,1,-8
1570179100554162,5,-2,-12,-3,2,-1,1,10
1570179100575102,0,24,18,4,5,2,-3,-11
1570179100575102,0,9,-3,-4,1,1,3,-6
1570179100576359,-3,-13,-8,-1,-8,-1,7,-14
1570179100576359,-2,-12,5,2,5,5,4,26
1570179100590070,-2,3,-4,2,1,-7,-3,-11
1570179100590070,7,-3,3,-4,-18,-9,2,26
1570179100591410,-3,8,-2,-1,8,3,-5,-39
1570179100591410,-4,-3,6,-2,-7,0,4,-10
1570179100613041,8,49,5,1,6,2,0,-3
1570179100613041,-12,-60,-10,1,2,4,5,2
1570179100614007,-4,6,8,-1,-7,-8,-10,-3
1570179100614007,-6,-26,-5,4,2,-1,-5,-3
1570179100634103,5,10,-4,-3,2,4,1,3
1570179100634103,-2,23,14,9,14,1,-6,-22
1570179100642927,7,3,-7,-7,-9,2,7,10
1570179100642927,-2,-11,-11,-3,-7,-2,-4,-10
1570179100649905,1,24,18,1,-2,-2,-2,2
1570179100649905,4,-2,3,11,15,7,9,20
1570179100651900,0,-5,-5,-8,5,4,7,6
1570179100651900,0,16,-4,-15,-33,-14,-4,-3
1570179100672843,-9,-42,-18,-7,-5,-2,-1,1
1570179100672843,3,11,7,11,20,5,2,-16
1570179100673840,9,12,4,-12,-21,-9,-18,25
1570179100673840,7,-1,-1,2,1,3,3,50
1570179100694995,9,27,-5,-5,-6,-1,2,0
1570179100694995,-7,-21,1,3,13,5,-1,-9
1570179100696859,2,5,6,14,13,3,19,17
1570179100696859,-3,1,-3,-10,-18,-7,-7,-30
1570179100717726,-4,2,5,1,0,1,1,-6
1570179100717726,2,-2,-6,-7,-9,-4,-3,14
1570179100718860,-1,-3,-5,4,9,2,0,5
1570179100718860,3,4,5,9,21,10,8,-6
1570179100732682,-5,-27,0,0,-3,-7,-4,-10
1570179100732682,-4,1,-11,-14,-22,-7,-2,-15
1570179100733688,3,-1,-3,-2,-2,-1,-7,-10
1570179100733688,-13,-12,8,8,13,3,-2,-13
1570179100754776,2,11,2,3,12,2,-5,1
1570179100754776,2,14,2,-4,-6,-4,-2,-5
1570179100756619,-5,-15,-2,2,8,1,0,-3
1570179100756619,3,13,-5,-2,5,-7,-8,-7
1570179100769590,-7,-4,-2,-8,-27,-7,7,-10
1570179100769590,2,-1,8,-2,0,0,-2,10
1570179100783551,-5,-6,-4,4,14,4,2,-2
1570179100783551,3,18,18,13,24,8,5,-7
1570179100792745,-6,-26,-24,-16,-28,-8,1,-9
1570179100792745,1,-5,1,-4,-13,-5,0,-9
1570179100798868,-8,0,-4,-1,-2,-3,-5,-10
1570179100798868,8,12,4,2,9,3,-2,3
1570179100815460,-5,-4,-1,1,2,0,-4,5
1570179100815460,1,10,0,-1,0,2,1,3
1570179100816459,4,1,-1,0,0,-1,0,5
1570179100816459,1,-4,-20,-5,3,3,5,0
1570179100829428,-5,4,22,0,-18,-8,-7,-1
1570179100829428,-5,-3,-5,-2,-2,-3,0,-6
1570179100836405,-4,-8,3,2,0,1,3,-7
1570179100836405,-1,-6,-5,-2,-4,-1,0,-1
1570179100852533,5,2,-7,4,13,5,1,3
1570179100852533,4,26,5,-5,-6,-3,-4,-3
1570179100854475,-5,-25,-3,1,-3,1,1,0
1570179100854475,-5,-16,-5,-1,-3,1,-1,2
1570179100875301,3,0,-3,0,9,2,-4,4
1570179100875301,0,14,-5,-3,-9,-5,0,-2
1570179100876300,4,1,9,1,0,-1,0,3
1570179100876300,1,-6,-4,-3,-8,-4,-15,19
1570179100889264,-3,-5,2,4,6,3,2,-5
1570179100889264,0,-10,-21,-7,3,3,4,7
1570179100896248,0,26,18,5,1,-1,-4,-2
1570179100896248,-8,-21,0,-4,-9,-3,1,-14
1570179100911204,5,1,-3,2,14,4,2,4
1570179100911204,0,3,5,3,2,0,-4,0
1570179100920181,3,21,-17,-8,-3,-3,2,-1
1570179100920181,-16,-34,15,0,-11,-7,-2,-10
1570179100935146,1,3,-5,-5,-6,-3,2,1
1570179100935146,-2,-6,3,3,5,1,1,-7
1570179100936139,2,6,1,0,1,-1,-1,-4
1570179100936139,1,8,-4,0,3,4,6,-5
1570179100949108,-1,-12,-2,2,4,2,3,8
1570179100949108,-1,5,7,1,-1,-4,-8,3
1570179100956364,-2,-4,-3,-3,-5,0,12,-19
1570179100956364,0,-2,-8,-3,1,-1,1,5
1570179100972041,2,4,2,-1,1,2,-1,-3
1570179100972041,-1,4,2,-1,0,-1,2,1
1570179100974038,-5,-19,-9,-3,-5,0,-1,-1
1570179100974038,-1,18,10,2,1,2,1,-18
1570179100995166,-3,-18,-5,0,0,-2,-2,-2
1570179100995166,-6,-15,8,4,2,0,0,-8
1570179100996981,-1,-8,-14,-6,-8,-2,-3,11
1570179100996981,4,11,-2,-2,-1,-2,1,-3
1570179101009282,4,17,3,-1,-3,-3,-3,5
1570179101009282,2,2,-4,0,2,-1,-1,2
1570179101017922,-5,-11,3,1,1,0,-2,2
1570179101017922,3,11,4,1,-2,-1,0,1
1570179101032936,4,-1,-2,-1,1,-2,-9,4
1570179101032936,0,-11,-11,-5,-3,0,0,1
1570179101034048,-10,3,23,6,2,-1,-5,-11
1570179101034048,9,31,6,-1,0,-1,1,8
1570179101054833,-6,-26,-8,-2,-1,-1,1,-4
1570179101054833,-13,-33,-10,-2,-3,-1,2,-1
1570179101056874,3,13,4,0,-3,-2,-4,-1
1570179101056874,4,-3,-12,-2,-1,-5,-6,4
1570179101068784,12,46,7,-3,-3,-1,-8,22
1570179101068784,0,-3,19,4,-2,-4,-5,-4
1570179101077761,8,-10,-12,-3,1,0,1,6
1570179101077761,8,18,11,0,0,0,1,-5
1570179101091721,-14,-43,-16,-2,-1,1,4,-8
1570179101091721,2,23,1,-2,-4,-1,-2,1
1570179101098708,-5,-30,-6,-2,1,0,-3,1
1570179101098708,18,-4,1,1,1,1,3,5
1570179101115194,15,24,8,2,1,0,-1,-9
1570179101115194,-19,-10,-4,-2,1,3,4,4
1570179101116767,8,5,-2,-2,-1,0,0,-1
1570179101116767,-13,28,-9,-8,-3,-1,1,0
1570179101128819,0,-24,21,5,-1,1,4,-9
1570179101128819,5,4,-15,-3,-1,-3,-2,-2
1570179101137607,5,19,8,-2,0,-2,0,4
1570179101137607,-10,-48,-13,1,3,2,3,3
1570179101158595,3,18,-3,-1,-1,-1,1,-1
1570179101158595,-3,15,4,-1,-2,-2,-4,-5
1570179101167527,-8,-17,-11,-3,-2,-1,-2,0
1570179101167527,21,15,0,-1,1,-1,-2,0
1570179101175004,-24,-9,2,-1,0,0,3,-7
1570179101175004,10,-6,-4,0,0,1,2,3
1570179101176601,15,15,-1,0,-1,-2,1,1
1570179101176601,-11,-12,8,3,-1,-1,-2,-2
1570179101188699,1,4,-6,-1,0,2,0,1
1570179101188699,1,1,0,-3,-2,-2,1,-11
1570179101203645,-12,1,0,1,-1,-1,0,-2
1570179101203645,-5,-9,-1,1,-1,0,1,-6
1570179101212528,-5,-2,-4,-1,-1,-2,0,6
1570179101212528,21,5,2,0,0,0,-2,-5
1570179101214400,-34,-6,-1,-2,-1,0,-1,-1
1570179101214400,-1,-6,-3,-3,-1,-1,-1,-3
1570179101235404,-27,-10,-5,-4,0,-2,0,-6
1570179101235404,5,12,-3,-3,-4,-3,-1,1
1570179101236720,26,23,14,4,-1,-1,-3,3
1570179101236720,-31,-38,-6,-1,0,-1,-2,-8
1570179101249430,4,-1,-3,2,-1,1,0,4
1570179101249430,6,4,3,1,0,2,0,5
1570179101257289,-2,5,1,-1,-1,-1,1,-8
1570179101257289,9,18,4,-1,-2,-2,-2,4
1570179101272293,12,0,0,0,0,-2,0,1
1570179101272293,-16,-8,-1,0,1,-1,-1,1
1570179101274235,14,4,0,0,2,1,0,2
1570179101274235,-19,-11,-2,1,0,0,-3,-7
1570179101295184,16,4,-2,-3,-3,-1,-1,2
1570179101295184,3,1,0,0,-2,0,1,1
1570179101296794,-8,-8,-1,-1,0,0,0,1
1570179101296794,16,6,4,3,1,2,3,9
1570179101308150,-24,-7,-5,-3,-3,-3,-4,-15
1570179101308150,-17,-1,2,-1,-1,-2,-2,-4
1570179101317160,-7,-10,-3,-1,-1,-1,0,0
1570179101317160,20,4,-5,-1,-1,0,-1,2
1570179101332083,1,7,3,0,1,2,2,3
1570179101332083,4,-1,1,0,1,-1,-1,2
1570179101334128,-9,-11,-6,-2,0,-2,-1,-1
1570179101334128,-9,3,-1,-1,0,2,1,-5
1570179101355018,8,1,-2,-1,-1,-1,-2,-2
1570179101355018,-9,-5,-3,-2,1,0,0,-7
1570179101356346,11,3,-2,1,-1,-2,-6,7
1570179101356346,-3,0,-1,-2,1,-1,0,-1
1570179101368987,0,1,-1,-1,-2,0,7,-11
1570179101368987,3,1,2,3,0,-2,-9,7
1570179101377957,-2,-3,-3,-4,-2,-1,3,1
1570179101377957,5,2,0,-1,-2,-3,-2,3
1570179101393059,3,1,0,0,0,-1,-3,0
1570179101393059,-1,-1,-2,0,0,0,2,-3
1570179101394334,-11,-5,0,0,1,0,-2,-5
1570179101394334,-8,-5,-3,-3,-2,-1,-3,3
1570179101414989,1,0,-2,-3,1,1,-3,4
1570179101414989,4,0,-1,-2,0,0,1,0
1570179101416858,4,4,2,0,-2,-3,-8,-3
1570179101416858,-2,-1,-2,0,0,0,3,-2
1570179101428827,-2,-1,1,0,0,-1,1,1
1570179101428827,3,-2,-2,-2,-2,2,2,0
1570179101444009,-3,-5,-3,-2,-1,0,5,-2
1570179101444009,-4,-2,0,-2,1,0,1,-1
1570179101452990,4,4,-1,0,-1,-1,-3,5
1570179101452990,-4,-1,0,0,-1,-1,-3,0
1570179101458741,0,0,-3,0,-1,1,-1,-2
1570179101458741,0,1,0,0,-1,-2,-3,-1
1570179101482683,-2,-2,-2,0,1,0,1,1
1570179101482683,-1,0,0,-1,0,-1,2,0
1570179101483675,2,0,-1,-1,-1,0,1,0
1570179101483675,0,-1,-1,0,0,-1,-3,-3
1570179101497886,1,-3,-1,-1,1,2,0,3
1570179101497886,1,-1,1,0,-2,-2,-1,-1
1570179101499633,0,0,0,-1,0,11,2,1
1570179101499633,-3,-1,-1,-1,-7,-20,-6,-3
1570179101512598,0,1,8,-1,-2,-3,1,-2
1570179101512598,-2,-1,3,-1,1,-2,-2,4
1570179101514592,0,-2,6,-1,1,4,3,-1
1570179101514592,-2,-3,3,0,-1,3,2,1
1570179101534547,1,0,-1,1,-1,0,0,-2
1570179101534547,-2,-1,-3,-1,0,-2,-1,-2
1570179101536534,0,1,-2,-1,0,-3,-3,-3
1570179101536534,0,-1,-3,-2,2,3,2,3
1570179101557489,2,-1,-1,0,1,-2,-1,1
1570179101557489,-1,-1,-1,-1,0,2,-1,-2
1570179101559472,0,0,-3,0,-2,-2,0,-1
1570179101559472,-1,-1,-3,-1,0,3,1,-2
1570179101579626,0,0,-2,-1,-2,-2,-1,1
1570179101579626,2,-1,-3,-1,-2,-1,1,-2
1570179101581801,1,-1,-5,-2,0,-3,1,3
1570179101581801,-1,-1,-1,-1,1,0,-1,-3
1570179101595441,-7,-3,-6,-2,-2,2,15,-16
1570179101595441,1,1,-1,2,-1,-2,-5,0
1570179101596465,1,-1,0,2,0,-5,-1,0
1570179101596465,-4,-3,-5,-2,-1,5,10,-6
1570179101617469,-5,-6,-3,-2,-2,0,-3,0
1570179101617469,2,1,-1,-1,-1,-2,-1,2
1570179101619375,-1,-1,-2,0,0,-3,-2,-2
1570179101619375,2,4,0,-2,-2,1,-1,-2
1570179101631631,0,3,9,2,0,-1,-6,1
1570179101631631,-3,-8,-8,-2,0,2,2,0
1570179101638261,1,-1,0,-2,-1,-2,-2,1
1570179101638261,0,-1,0,-1,1,-3,-4,0
1570179101655225,4,5,-1,-1,2,0,-3,2
1570179101655225,0,3,4,0,0,-1,-1,2
1570179101656272,-2,-4,-3,0,-1,0,3,-4
1570179101656272,2,2,2,0,-1,-3,-10,14
1570179101676352,-2,-1,-2,1,0,3,-3,1
1570179101676352,-3,-1,-2,-1,0,2,6,-1
1570179101685237,-1,0,-1,-1,-2,-2,-4,3
1570179101685237,0,-1,2,0,2,0,0,-4
1570179101692168,-2,-3,-2,-1,0,-3,-4,-11
1570179101692168,1,1,1,-2,-3,-1,0,1
1570179101698101,3,5,2,2,6,7,-6,3
1570179101698101,-1,-3,-3,-1,-6,2,-3,-3
1570179101716060,-1,-2,-1,-3,-4,-13,-2,1
1570179101716060,2,0,1,0,3,2,1,-1
1570179101717436,-2,-2,-1,-1,0,-2,1,-3
1570179101717436,-1,0,0,2,2,1,2,0
1570179101737230,-1,0,-3,-3,0,5,-4,4
1570179101737230,0,1,1,-1,-2,-5,-4,-2
1570179101739321,0,2,1,-1,-3,-3,2,1
1570179101739321,3,-1,1,-1,1,0,-11,14
1570179101751960,-1,-1,0,1,-3,-5,3,-1
1570179101751960,1,-2,-1,-1,5,11,1,2
1570179101758939,-2,-2,-1,-2,-2,7,0,-7
1570179101758939,-3,-4,-2,0,0,-6,2,-5
1570179101775187,2,0,-1,-2,0,1,1,2
1570179101775187,-3,-2,-2,-2,-4,-6,-1,-4
1570179101776896,-6,-2,-1,0,-3,-2,6,-15
1570179101776896,0,-1,-2,-1,-1,2,2,-1
1570179101797057,2,-1,-1,-1,0,1,-1,7
1570179101797057,-2,-2,-2,0,-1,-4,-4,-19
1570179101804825,-1,0,0,0,5,15,2,2
1570179101804825,-2,0,-4,-3,-10,-29,-4,-7
1570179101811946,-1,-1,-4,-4,1,0,6,1
1570179101811946,-1,3,1,-1,-4,-1,0,-2
1570179101819002,0,1,2,-1,-2,-6,0,3
1570179101819002,-2,-1,-2,-2,3,10,4,1
1570179101835060,0,2,-1,1,0,-2,-2,2
1570179101835060,-1,-2,0,-1,0,4,1,3
1570179101836732,5,2,1,1,0,-8,-21,21
1570179101836732,-1,0,2,3,2,0,-3,-4
1570179101857874,-4,-2,-3,-3,-4,11,7,-4
1570179101857874,1,1,3,5,5,-8,-5,5
1570179101858777,1,-2,-2,-5,-6,9,9,-2
1570179101858777,-4,-2,-1,-1,-4,-13,-1,0
1570179101871636,-3,0,0,0,-3,-1,-6,0
1570179101871636,8,3,-1,0,2,7,5,11
1570179101878618,-2,-2,-1,-2,-2,-14,-2,-8
1570179101878618,-6,-5,0,3,2,9,-10,11
1570179101895625,5,4,0,1,1,-1,-7,-5
1570179101895625,0,-2,-4,-4,-2,-1,5,-4
1570179101896659,-12,-8,0,1,1,-4,2,-1
1570179101896659,8,5,1,-1,1,15,11,-2
1570179101917564,10,2,-1,-2,-1,2,0,1
1570179101917564,-9,-8,4,1,-1,3,-1,-3
1570179101918541,6,6,1,1,-1,1,-1,-1
1570179101918541,-14,-4,1,0,2,-1,1,-6
1570179101931496,0,-4,-1,0,0,-3,0,4
1570179101931496,3,0,-5,-2,-2,-4,2,-1
1570179101938806,0,7,4,-2,-1,-6,2,-2
1570179101938806,-9,-21,-8,2,2,-1,0,-3
1570179101962596,1,1,0,0,1,-3,-1,0
1570179101962596,-3,0,-4,-4,-3,-3,-3,0
1570179101964393,6,9,-4,-3,-1,-4,-1,0
1570179101964393,11,29,11,1,1,-1,-1,-2
1570179101977358,-12,-39,-6,3,2,-2,0,-2
1570179101977358,-7,-11,-7,2,1,-2,1,-2
1570179101979357,0,0,-5,-4,-1,-1,1,-1
1570179101979357,7,6,-5,-3,-3,3,3,0
1570179101991322,-2,12,3,-2,-2,0,-2,-1
1570179101991322,0,3,4,0,-1,0,-2,1
1570179102000295,1,-6,-4,1,0,0,-2,-1
1570179102000295,-1,-3,-3,-2,0,3,1,-1
1570179102015470,-1,2,0,-1,0,1,-3,1
1570179102015470,2,1,-1,-2,-2,-1,-2,-2
1570179102016545,-6,-8,-2,2,1,-1,-4,1
1570179102016545,3,-6,0,-2,0,-1,-2,1
1570179102038251,-5,5,-1,-2,0,0,0,-2
1570179102038251,6,4,-1,-2,-1,0,0,1
1570179102039190,5,-2,2,2,1,-2,-16,18
1570179102039190,1,-2,0,1,0,0,-1,-1
1570179102051353,1,3,-2,-1,0,-1,-1,3
1570179102051353,-5,-1,0,0,-2,-1,-2,2
1570179102060512,-5,-5,0,0,1,0,3,-6
1570179102060512,2,-2,-1,0,-1,0,-2,3
1570179102083122,-2,1,0,-3,0,0,-4,-1
1570179102083122,-2,-1,-1,2,0,0,0,0
1570179102084244,0,-2,-2,-1,-2,1,3,-5
1570179102084244,-2,1,-1,-2,0,0,3,-4
1570179102096038,-1,1,0,1,-1,0,3,-4
1570179102096038,-1,-3,0,-2,-2,-12,-1,0
1570179102105014,-1,-2,-2,-3,0,-10,1,-1
1570179102105014,4,1,0,-1,0,-9,0,1
1570179102111202,-5,-1,-2,1,-2,-2,-1,0
1570179102111202,-11,-2,-1,0,0,1,0,-6
1570179102120086,12,4,-2,-2,-1,1,0,-2
1570179102120086,-10,-4,-1,0,-3,3,2,-2
1570179102134939,6,0,0,0,0,4,-3,-1
1570179102134939,-3,-1,-1,-1,0,6,-2,-3
1570179102136928,1,0,-2,1,1,5,3,-5
1570179102136928,-4,-2,2,-1,0,4,-2,0
1570179102157927,1,0,-1,-2,0,-5,0,-1
1570179102157927,-4,0,1,-2,-2,-12,-2,1
1570179102158874,-4,-3,0,0,-2,-9,-4,-8
1570179102158874,1,2,-2,-2,-1,-4,1,-3
1570179102170953,7,3,2,2,1,0,-23,34
1570179102170953,3,1,-1,0,0,8,0,-2
1570179102179843,-9,-4,-1,-2,-1,8,2,0
1570179102179843,6,2,-2,-1,-2,7,-4,-2
1570179102194881,-6,-3,-2,-2,0,7,10,-9
1570179102194881,4,-2,-2,-2,-1,5,2,9
1570179102196775,1,1,1,2,-1,7,-4,-1
1570179102196775,-6,-3,-3,-3,-1,-2,-1,-3
1570179102217718,-1,-3,-2,-1,0,0,5,-5
1570179102217718,4,1,0,0,-1,-1,-4,-5
1570179102218709,-6,-3,-2,0,0,3,7,0
1570179102218709,0,-2,-1,-1,0,1,2,-3
1570179102230751,1,-1,0,-1,-2,-3,4,-4
1570179102230751,3,-1,0,-2,-3,-2,-2,1
1570179102239657,-4,-2,-1,-2,2,0,0,-6
1570179102239657,-1,-2,-2,-1,1,1,0,1
1570179102255208,-1,-1,0,-1,-2,-5,-3,-1
1570179102255208,-1,0,-1,-2,2,4,1,-2
1570179102256620,8,1,-1,-1,-2,-2,-3,-4
1570179102256620,2,1,0,0,-2,-2,1,8
1570179102277731,-16,-6,0,-1,-2,0,1,-8
1570179102277731,0,-2,0,0,-1,-1,-1,-2
1570179102278619,-5,-1,1,0,-1,-2,0,3
1570179102278619,4,-1,-2,-2,-2,-6,-1,0
1570179102291592,4,0,-1,1,1,5,0,-5
1570179102291592,-4,-1,-3,-1,0,-2,0,-1
1570179102300493,1,0,0,-1,0,-5,-1,0
1570179102300493,-3,-2,-2,-2,-1,2,0,-4
1570179102315451,4,1,0,2,-1,-3,-4,5
1570179102315451,0,0,-2,0,1,-2,0,-2
1570179102316448,0,-1,-2,-1,-2,-2,1,-2
1570179102316448,-5,-4,-1,-2,-1,-1,13,-19
1570179102336722,-3,-1,1,-1,-2,-2,0,-5
1570179102336722,1,0,-1,-3,0,-1,1,2
1570179102345431,-6,-2,-1,-1,-1,-1,1,3
1570179102345431,1,0,1,1,1,2,-2,2
1570179102360334,0,1,0,-1,-2,-2,1,-5
1570179102360334,0,-1,-1,-1,-1,0,-1,0
1570179102361334,-1,-2,-2,-1,0,-1,4,-2
1570179102361334,-1,-2,0,0,-2,-1,-4,0
1570179102382551,2,1,0,-1,2,0,1,1
1570179102382551,2,1,0,2,-1,-2,-3,1
1570179102384267,1,-1,-2,-1,-2,0,-1,1
1570179102384267,-1,-2,-1,0,2,-1,-4,3
1570179102397243,2,0,-2,-2,-2,-2,-1,2
1570179102397243,0,2,-2,-1,0,0,-1,-2
1570179102399227,0,0,-1,0,-1,-1,-2,0
1570179102399227,-3,-1,0,-1,-1,0,-3,2
1570179102420565,-3,-3,-2,-2,-2,0,2,-6
1570179102420565,-2,-1,-2,-1,0,0,1,1
1570179102422168,0,-1,-1,0,-1,-1,0,-1
1570179102422168,-1,0,0,0,0,-1,-2,1
1570179102434620,0,1,-1,1,-1,-2,0,0
1570179102434620,-1,0,-1,0,-1,0,-1,0
1570179102448156,0,-1,-1,-2,1,-1,-2,-1
1570179102448156,-1,0,-1,0,-1,-2,-3,-1
1570179102457083,0,-2,-2,0,0,-1,0,0
1570179102457083,1,-2,0,-2,0,0,-1,2
1570179102459136,-2,2,1,0,0,-3,-3,-2
1570179102459136,-2,-1,-2,0,0,-6,0,-1
1570179102480072,2,3,-2,-1,0,-4,1,-1
1570179102480072,-1,-1,-2,-1,-1,-3,-1,-2
1570179102482005,-1,0,5,3,-1,2,2,-1
1570179102482005,0,-1,-1,-1,-1,2,-4,2
1570179102495149,-2,0,1,0,0,2,0,-3
1570179102495149,-3,-3,-1,-2,0,2,7,-14
1570179102496967,4,1,-1,-2,0,0,-6,7
1570179102496967,5,3,0,-1,-3,0,-10,8
1570179102517962,0,3,1,-1,0,1,-1,0
1570179102517962,-2,3,1,-2,-2,1,1,-3
1570179102518912,-8,-18,-2,0,0,-1,-3,-6
1570179102518912,-11,-15,0,0,0,2,4,0
1570179102539851,14,21,-6,-3,-2,1,1,3
1570179102539851,2,-13,7,3,1,-2,-5,4
1570179102541847,7,14,1,0,-2,0,0,-2
1570179102541847,11,23,0,-4,-2,-2,-1,0
1570179102553859,-15,-14,4,2,1,-1,-2,-1
1570179102553859,-9,-24,-14,-5,-3,-2,-5,-7
1570179102561797,-1,-5,0,2,0,2,2,5
1570179102561797,1,15,6,2,0,-2,-1,-5
1570179102577056,3,3,-1,-3,-2,-2,-2,0
1570179102577056,-13,-10,0,6,2,2,12,-13
1570179102584786,-5,-13,-4,-1,-1,-2,-8,5
1570179102584786,-3,0,1,1,0,0,0,0
1570179102599743,21,24,0,-1,-1,-2,-1,1
1570179102599743,-1,1,2,-3,-1,-3,-2,-1
1570179102599946,-12,-8,-3,-3,-2,-2,3,-4
1570179102599946,8,1,0,-1,-2,1,1,-2
1570179102613796,-7,-1,5,1,0,0,1,4
1570179102613796,19,14,-7,-4,-1,3,0,2
1570179102621639,-9,-4,-5,-2,1,-3,-2,-1
1570179102621639,0,-7,1,0,-1,-1,-5,3
1570179102637669,-13,-18,-1,4,2,-1,-1,-3
1570179102637669,3,18,5,1,-1,0,-2,7
1570179102637669,2,1,-6,-1,1,3,3,1
1570179102637669,19,-4,-15,-7,-5,-5,-3,-9
1570179102659529,0,0,-1,-2,-1,0,-1,1
1570179102659529,-13,-5,-3,-1,-1,-1,-4,4
1570179102659835,6,3,8,0,-1,0,1,1
1570179102659835,-22,-13,-5,-3,0,0,0,-5
1570179102673499,12,1,1,-1,-1,-2,-1,-2
1570179102673499,-17,-5,6,3,1,-4,-5,-2
1570179102689504,12,2,-2,-2,0,-2,0,-1
1570179102689504,-3,-2,1,0,0,2,3,2
1570179102698427,-13,-5,2,1,0,0,-1,-2
1570179102698427,14,10,-2,-1,-2,-2,-3,-3
1570179102699429,-4,-3,0,1,-2,-1,-1,0
1570179102699429,-1,1,1,1,1,1,0,-1
1570179102719370,-7,-10,-5,-2,0,0,-1,-1
1570179102719370,9,14,3,0,-1,-1,-3,0
1570179102720368,-6,-10,0,0,-1,-2,-17,13
1570179102720368,7,2,1,1,-1,1,4,6
1570179102733345,0,8,-2,-1,-1,-4,-4,-3
1570179102733345,-5,-18,1,0,1,1,9,1
1570179102741312,15,25,1,-1,1,1,8,-2
1570179102741312,8,-7,-7,-6,-1,-2,-2,-3
1570179102756517,-10,-17,-4,0,-1,0,-4,-2
1570179102756517,2,21,5,0,1,-1,-1,-1
1570179102757271,-6,-22,-3,1,1,-2,1,-2
1570179102757271,-8,1,3,3,4,2,0,7
1570179102779328,3,3,0,-1,-1,0,4,-2
1570179102779328,-10,-2,-4,-1,-1,-3,-4,-1
1570179102780208,-5,-6,-4,-1,-2,-1,1,-5
1570179102780208,7,6,-1,-1,0,-1,0,-1
1570179102793221,6,2,0,-1,-3,-1,-1,3
1570179102793221,6,5,0,0,0,0,-3,0
1570179102809131,10,10,0,-3,-1,-2,-1,-2
1570179102809131,-9,-8,-1,0,0,-2,2,-5
1570179102832074,-3,-4,2,1,2,0,3,1
1570179102832074,1,0,-2,-3,-1,0,5,-4
1570179102833138,2,2,-1,0,0,-3,-8,6
1570179102833138,-14,-8,-1,0,-1,1,1,-5
1570179102839050,0,1,1,1,1,0,0,-1
1570179102839050,10,3,1,1,0,2,0,2
1570179102840048,-5,4,2,1,1,-1,2,-9
1570179102840048,-14,-14,-5,-2,1,-1,0,-3
1570179102854013,9,-1,-1,-2,-2,-3,-3,-5
1570179102854013,-9,-10,-5,-1,0,-2,-4,-1
1570179102868976,-1,3,3,-1,-1,-1,2,-4
1570179102868976,-6,-3,3,1,-1,1,-2,2
1570179102876951,-9,-7,-2,-1,-1,-1,2,-5
1570179102876951,18,14,1,0,-2,-2,-1,6
1570179102877948,-8,-5,-3,-2,-2,0,-2,-8
1570179102877948,5,8,1,1,-2,-2,1,2
1570179102899147,-4,-3,-1,-1,1,1,-1,2
1570179102899147,-5,-9,-2,-3,0,0,-3,1
1570179102899886,13,22,10,1,0,0,1,7
1570179102899886,5,-9,-9,1,0,-1,-2,-4
1570179102914890,-12,-17,-9,-3,-1,1,4,-10
1570179102914890,-13,-13,-1,1,2,-3,-14,16
1570179102921878,7,14,-2,-3,-4,0,1,-11
1570179102921878,8,10,7,1,-1,-1,-1,1
1570179102936789,3,3,2,0,0,0,3,0
1570179102936789,5,5,0,-2,0,0,2,-5
1570179102937787,-22,-22,-8,-3,0,-1,-1,-6
1570179102937787,8,11,1,0,-1,-2,-4,5
1570179102959766,0,-13,-7,-1,-2,-2,-3,3
1570179102959766,0,6,-2,-1,-1,0,1,-1
1570179102959766,-3,-3,5,2,1,1,1,0
1570179102959766,-4,-1,-2,-1,-1,2,4,-3
1570179102973694,-3,-4,0,-1,1,-2,-4,4
1570179102973694,7,2,1,1,0,1,2,0
1570179102981718,-6,-2,-3,0,0,0,3,-1
1570179102981718,-6,-2,0,-1,-3,-2,-2,-6
1570179102996634,5,9,2,-2,-1,0,-1,2
1570179102996634,-2,-6,0,0,-4,-3,-3,-3
1570179102997658,5,4,1,0,0,-1,-1,2
1570179102997658,-4,-3,-4,-2,1,-1,-1,0
1570179103019567,1,-3,3,2,1,1,-1,0
1570179103019567,1,3,-5,-4,-1,-1,4,-2
1570179103020281,-2,2,2,0,-1,1,-2,-4
1570179103020281,-10,-21,-7,-1,-1,-2,-2,1
1570179103033538,0,5,0,0,0,-1,-3,0
1570179103033538,1,1,0,0,1,-1,1,-2
1570179103041518,-1,6,-2,-1,0,0,-1,1
1570179103041518,2,4,4,2,-2,1,-1,0
1570179103056632,-2,-2,-4,0,-3,-1,-2,-1
1570179103056632,-2,-2,-2,0,-1,-1,-1,1
1570179103057477,7,7,6,2,1,1,0,1
1570179103057477,-6,-21,-3,1,0,0,0,-1
1570179103079506,-3,1,-1,-3,1,0,0,-1
1570179103079506,-4,-12,0,1,2,0,-1,-1
1570179103080406,0,2,-5,-3,0,-1,1,1
1570179103080406,2,5,0,-2,0,-1,-3,-1
1570179103093768,2,5,4,2,-1,-1,4,-8
1570179103093768,1,0,-1,-1,1,-1,-11,10
1570179103109541,5,-5,-4,-1,1,-2,-11,13
1570179103109541,0,5,2,-3,0,-2,0,-3
1570179103116450,3,6,-1,-2,1,0,-1,-3
1570179103116450,1,2,3,0,-1,0,-1,-8
1570179103117357,0,-2,-3,-2,-3,-3,-1,3
1570179103117357,7,9,0,-1,-2,-1,-5,-1
1570179103139459,3,6,-1,0,1,2,10,17
1570179103139459,-12,-16,-4,-1,-1,-2,-4,11
1570179103140248,4,-7,6,4,0,1,2,-2
1570179103140248,-10,3,-7,-5,-2,0,6,-9
1570179103153389,4,9,3,-1,-1,0,-8,7
1570179103153389,17,7,4,5,2,6,1,70
1570179103162187,0,8,1,-1,-2,-1,2,-31
1570179103162187,5,7,2,2,0,2,4,5
1570179103177187,-1,-3,0,0,0,-2,-4,-3
1570179103177187,-7,4,2,-1,-1,-2,1,-33
1570179103177187,-11,-12,-7,-4,-1,-1,-3,-49
1570179103177187,3,-5,-3,-1,-1,0,-2,20
1570179103199245,-1,-3,1,1,0,-1,-5,-10
1570179103199245,-8,0,4,-2,-4,-6,9,-46
1570179103200518,-12,1,0,0,-1,-4,-12,-38
1570179103200518,7,7,1,0,1,2,13,32
1570179103214056,-2,-19,-7,-3,-1,-5,-5,8
1570179103214056,-3,-2,-2,-1,-1,1,6,-11
1570179103222073,4,-1,0,-2,0,-1,5,22
1570179103222073,-1,4,3,1,0,-4,-7,-7
1570179103237403,-1,5,2,-2,-2,0,-2,0
1570179103237403,1,-1,-2,2,4,2,-1,6
1570179103237986,-1,-4,-3,2,5,3,5,12
1570179103237986,-5,-1,-1,-3,-11,-4,-5,-9
1570179103258932,2,3,2,-2,-7,-4,1,-3
1570179103258932,-6,-10,-5,-4,-3,-5,-2,-17
1570179103259975,0,2,-3,-1,-2,2,0,19
1570179103259975,0,-1,2,3,14,4,1,-6
1570179103274054,2,9,2,-1,-5,0,-1,-1
1570179103274054,-5,-19,-4,-3,-6,-2,-2,4
1570179103282093,4,0,-2,0,-3,-2,1,13
1570179103282093,-4,-2,0,0,-3,-3,-4,-35
1570179103297154,-1,2,0,0,4,1,-2,6
1570179103297154,5,8,0,0,3,-1,-5,5
1570179103297824,6,-3,0,1,0,-1,-5,34
1570179103297824,0,0,4,3,11,4,1,-11
1570179103319046,-12,-4,-5,-4,-11,-5,-2,-20
1570179103319046,9,4,2,0,-1,2,6,59
1570179103319892,-4,-1,1,-1,-2,-2,2,-4
1570179103319892,4,2,-2,-1,3,3,5,19
1570179103349685,-1,-3,-2,0,5,2,6,-3
1570179103349685,-2,2,-1,-2,-2,0,0,-7
1570179103350684,3,-1,-1,-1,-1,-2,-5,12
1570179103350684,2,2,-3,0,-1,-1,-5,12
1570179103356672,-2,-5,0,1,0,0,-1,-7
1570179103356672,-7,-2,-1,-1,-3,0,1,-24
1570179103357869,0,0,-1,-1,0,1,6,-6
1570179103357869,-4,-1,-2,-1,-6,-3,-4,-6
1570179103379626,-2,-2,1,0,2,-2,-7,-3
1570179103379626,3,3,0,0,0,-1,-10,1
1570179103379626,0,3,3,0,0,-1,2,3
1570179103379626,2,10,2,-4,-5,-1,4,-7
1570179103402545,0,-2,-2,3,2,3,2,24
1570179103402545,-5,-16,-4,1,-1,2,6,-3
1570179103403542,-4,-3,-3,-1,-2,0,1,-4
1570179103403542,-4,-13,-4,0,-2,-3,-2,-7
1570179103417068,3,3,2,-1,3,1,2,-7
1570179103417068,-9,-1,0,-1,-1,-5,-12,-30
1570179103417632,2,-2,-4,-1,-1,1,3,12
1570179103417632,6,7,8,1,-2,-2,-4,4
1570179103439619,-12,0,-1,1,2,1,1,6
1570179103439619,5,-2,-2,-3,-2,2,10,-25
1570179103440448,3,0,0,-5,-2,-2,-3,-8
1570179103440448,-1,-4,-4,-2,-2,-1,-2,3
1570179103462386,5,-2,-2,-2,-1,0,3,4
1570179103462386,-13,-4,2,-1,0,-1,1,-49
1570179103463518,-7,0,-4,1,0,-1,1,-4
1570179103463518,9,6,0,0,-1,-2,-1,2
1570179103477395,-4,-3,-3,2,3,1,-8,36
1570179103477395,1,0,-3,-1,0,1,1,3
1570179103477395,15,14,4,0,-1,-2,9,4
1570179103477395,-7,-8,-1,-1,0,-1,-4,6
1570179103499289,-2,-9,-4,-1,0,3,4,-15
1570179103499289,-7,16,3,-1,-2,0,4,-38
1570179103500283,-10,-25,-5,2,1,-1,-14,12
1570179103500283,3,2,2,0,-2,-4,-5,-16
1570179103522450,0,4,3,0,-1,-1,-1,-1
1570179103522450,0,0,-2,-1,-1,0,1,9
1570179103523698,2,9,-1,-2,-3,-1,3,-6
1570179103523698,-12,-6,-2,-3,-1,-3,-9,-23
1570179103537290,5,-4,-2,-2,-1,0,-3,-5
1570179103537290,3,3,3,0,1,-3,-6,24
1570179103537290,-2,6,-5,-4,-2,-2,-3,-5
1570179103537290,6,-8,-1,-1,-1,1,1,17
1570179103559124,-2,2,0,0,-2,-1,0,-11
1570179103559124,2,6,5,3,0,0,-5,16
1570179103560122,-5,-6,1,0,1,0,2,-3
1570179103560122,0,2,-3,0,-1,-1,5,-2
1570179103582330,-5,-1,-3,-4,-1,-1,0,-7
1570179103582330,8,10,0,-1,-1,1,10,4
1570179103583062,2,-25,-4,0,2,12,-6,57
1570179103583062,-4,4,0,-1,-2,2,-3,0
1570179103597022,2,8,5,2,-1,-1,9,-15
1570179103597022,-4,-8,-6,0,-2,-4,-2,-3
1570179103597022,-1,11,4,0,-1,-3,3,-24
1570179103597022,-1,-1,-1,1,3,1,0,14
1570179103619014,7,0,-1,-1,-2,-1,-1,11
1570179103619014,2,-2,-2,0,0,0,-2,9
1570179103620479,-4,-1,3,-1,-2,-2,0,-20
1570179103620479,2,-2,-3,-1,0,0,3,12
1570179103642953,0,0,-4,-2,-2,-3,-1,-6
1570179103642953,-7,-2,2,1,-1,0,4,-8
1570179103643269,0,5,1,0,-2,-3,-2,-12
1570179103643269,-3,-7,1,0,1,-2,-14,11
1570179103656969,0,-2,-6,-3,0,-1,-3,0
1570179103656969,-2,-19,-5,-1,2,1,-1,9
1570179103657870,-1,-5,-4,0,-1,0,1,-5
1570179103657870,3,7,2,-2,-1,1,8,16
1570179103678932,10,8,4,0,1,0,1,38
1570179103678932,1,7,5,-1,0,0,-5,9
1570179103679867,-3,0,-2,-2,-1,-2,5,-14
1570179103679867,-6,-13,-8,-2,-1,0,1,-20
1570179103702862,-2,1,3,-1,-2,-2,-6,-16
1570179103702862,-1,-2,-4,-1,-2,0,-3,-7
1570179103702862,6,6,1,1,-1,1,-6,38
1570179103702862,-2,-1,-1,-1,-2,-2,-5,-11
1570179103716812,-5,-6,-2,1,0,2,-1,2
1570179103716812,7,5,3,1,0,-3,-18,13
1570179103717700,-6,3,-3,-4,-3,-2,-1,-18
1570179103717700,-1,2,-1,-2,0,1,5,-5
1570179103739662,-2,-6,1,1,0,-2,-5,-5
1570179103739662,0,-9,-3,0,-2,1,2,-4
1570179103739662,-3,-5,-5,-2,0,-2,-1,-4
1570179103739662,0,13,5,2,-1,-2,1,1
1570179103762635,0,2,3,-1,0,-1,2,-7
1570179103762635,1,3,-1,-1,0,-1,2,4
1570179103763579,0,0,1,0,1,-1,-2,-4
1570179103763579,-2,1,0,0,-2,0,4,-8
1570179103776965,-2,-4,-5,-2,-2,-1,3,-8
1570179103776965,0,0,1,-1,0,0,1,2
1570179103777544,10,0,1,4,2,1,-4,58
1570179103777544,-5,-4,-3,0,-3,-2,0,1
1570179103799489,0,0,3,0,-1,0,-1,-2
1570179103799489,-2,0,-1,0,-1,-1,1,4
1570179103799489,-1,2,1,1,-1,0,3,-19
1570179103799489,0,1,1,0,0,2,3,1
1570179103822641,-2,6,-1,-3,-1,0,-5,-1
1570179103822641,-1,1,-1,-1,-2,-2,-3,-18
1570179103823496,-9,-18,-8,-3,-2,-3,-8,-1
1570179103823496,-5,-8,-4,-2,1,-1,-2,-4
1570179103836509,-2,5,-1,-2,-2,-1,-1,-11
1570179103836509,-2,5,-2,-3,-2,-1,-2,-32
1570179103837381,0,6,2,2,-2,0,4,-10
1570179103837381,3,2,-6,-1,1,0,-1,2
1570179103859516,-7,-4,0,1,-2,-4,-8,-15
1570179103859516,2,-7,-4,-1,-1,-4,-1,9
1570179103860321,0,2,-1,-3,0,1,2,-5
1570179103860321,-7,-7,-3,-2,-4,-5,-5,-30
1570179103882471,3,2,-1,-1,1,0,4,-4
1570179103882471,-1,-1,-1,0,-2,1,4,13
1570179103883265,-2,-2,2,0,-2,0,1,-9
1570179103883265,1,1,-2,-2,-1,-1,2,3
1570179103897264,1,-2,0,0,0,2,0,3
1570179103897264,-3,1,0,-1,0,1,-3,12
1570179103897264,-5,-11,-2,-1,0,1,14,-19
1570179103897264,2,4,3,0,1,0,0,2
1570179103919286,2,-5,-5,-1,-1,1,1,6
1570179103919286,1,-1,0,0,1,1,-2,14
1570179103920305,-2,11,2,-1,-1,-2,0,-10
1570179103920305,0,-11,-3,1,-1,0,0,2
1570179103942105,3,8,4,0,0,-1,2,4
1570179103942105,-3,-14,-2,-1,0,2,7,-3
1570179103943105,0,3,1,0,0,1,-2,4
1570179103943105,-1,1,-1,-1,-1,-3,0,3
1570179103956077,0,-1,-1,1,-1,0,-2,3
1570179103956077,-1,2,-2,0,1,-1,1,2
1570179103964510,1,3,0,0,-1,-2,-3,-2
1570179103964510,6,0,1,1,1,1,0,15
1570179103979009,-3,-1,1,-2,0,1,8,-1
1570179103979009,4,1,-1,1,1,-1,-3,11
1570179103980120,-4,-6,0,0,-1,2,9,-20
1570179103980120,-2,2,-2,-1,0,0,4,3
1570179104001948,-1,-4,-1,-2,-1,-4,-9,-10
1570179104001948,2,7,0,-2,1,0,1,5
1570179104003262,1,0,-4,-2,-2,-1,-1,1
1570179104003262,-1,-6,-1,-1,-1,2,0,-8
1570179104024882,3,2,4,4,2,2,9,13
1570179104024882,-10,-6,-3,-2,-2,-2,0,-16
1570179104025882,3,4,-1,0,-1,-2,-5,9
1570179104025882,3,7,0,-2,-3,-2,0,-6
1570179104039042,-4,-16,-2,0,1,-2,-3,-13
1570179104039042,4,16,6,-1,-2,0,0,-7
1570179104039841,-5,-9,-1,2,0,1,4,7
1570179104039841,-1,-3,-1,-1,1,-2,-9,-12
1570179104062780,0,4,-1,-1,-1,0,9,-9
1570179104062780,-1,-4,-3,-1,0,1,0,9
1570179104062780,2,2,0,-2,-2,-1,-8,8
1570179104062780,-2,3,2,0,1,-2,-1,1
1570179104075791,-6,-10,-6,-3,-2,0,1,2
1570179104075791,2,7,2,0,0,1,2,3
1570179104084725,2,3,-2,-2,-1,-2,-3,-2
1570179104084725,-2,-3,0,1,0,0,-1,-2
1570179104099798,0,-4,-2,-2,0,-1,-5,9
1570179104099798,0,-4,-1,0,-2,1,2,1
1570179104099798,1,-3,-2,0,3,1,-2,4
1570179104099798,6,7,0,2,0,3,6,18
1570179104124036,2,10,-2,0,0,0,-2,0
1570179104124036,-4,-10,-3,-2,-1,0,-1,1
1570179104124701,-1,-4,0,1,-2,-3,-1,-3
1570179104124701,-2,-1,0,1,-1,1,-2,-2
1570179104136592,-15,-7,-4,-4,-4,-7,-28,-63
1570179104136592,2,8,0,0,-1,-1,-1,-4
1570179104144914,1,1,2,-1,-1,-3,-18,14
1570179104144914,-4,-27,-9,-2,0,-2,0,5
1570179104159535,-3,1,0,-2,0,1,0,2
1570179104159535,0,5,4,2,0,-1,-3,-6
1570179104160517,-2,4,1,-1,-2,0,4,-9
1570179104160517,-4,4,-1,-1,-4,-3,-1,-27
1570179104182605,10,1,3,3,0,-1,-4,29
1570179104182605,-2,0,-1,-2,-2,0,-2,3
1570179104183455,-1,-1,-4,-2,1,0,6,3
1570179104183455,-3,7,8,2,1,-1,1,1
1570179104196425,2,-8,-5,-1,0,1,7,11
1570179104196425,4,1,1,1,1,-1,-2,4
1570179104204517,-2,-6,-4,-1,-1,0,0,-8
1570179104204517,-1,-1,-4,-1,1,0,-1,2
1570179104219364,3,4,3,0,-2,-1,7,1
1570179104219364,-9,-12,-4,-1,0,-3,-7,-5
1570179104220358,0,2,1,-1,-2,-1,-2,-2
1570179104220358,4,2,1,0,0,-1,-13,20
1570179104242309,2,1,0,-1,0,2,5,6
1570179104242309,5,-3,-4,1,-1,2,6,20
1570179104243423,3,7,4,-2,0,-1,2,-6
1570179104243423,-12,-11,-2,-3,-4,-2,-6,-30
1570179104256441,0,-8,-3,0,1,3,12,35
1570179104256441,0,2,-2,-3,0,-2,-6,-9
1570179104264288,-1,5,0,1,0,-1,2,-2
1570179104264288,5,15,5,1,2,1,3,-2
1570179104287226,-7,-22,-13,-2,-1,-2,-4,-15
1570179104287226,-3,3,-3,-1,-1,-2,2,-11
1570179104288176,-5,-4,1,-1,-1,0,1,-2
1570179104288176,1,5,3,-2,-1,0,2,0
1570179104302139,1,6,4,1,-2,-1,-3,-2
1570179104302139,-1,-2,-2,-2,-1,1,11,-16
1570179104303140,2,-6,-2,1,2,2,-2,5
1570179104303140,-1,-1,2,2,-2,-3,-2,3
1570179104325309,3,3,0,0,1,0,-7,11
1570179104325309,-2,-5,1,-2,-1,0,3,-2
1570179104326219,-2,-2,-3,-2,-2,-1,-1,-6
1570179104326219,1,-3,-5,-3,-1,1,0,-1
1570179104339123,5,9,5,1,0,0,6,0
1570179104339123,0,-12,-1,1,1,1,-2,52
1570179104340044,0,-1,1,1,-1,-2,-5,6
1570179104340044,3,-1,-5,-2,-2,1,0,6
1570179104363112,-3,10,2,-2,-3,-3,-5,-35
1570179104363112,-6,0,0,-1,-3,-3,-6,-47
1570179104363112,-2,-9,-1,-1,0,0,1,7
1570179104363112,2,2,0,-1,-1,1,3,7
1570179104385112,-2,-3,3,-1,1,-1,-3,-2
1570179104385112,-6,-1,-1,-2,-1,0,10,-27
1570179104385915,2,3,1,1,-3,-1,-7,17
1570179104385915,-2,1,-2,1,-1,-1,0,-12
1570179104398880,-3,1,-3,-1,-2,-2,-5,-3
1570179104398880,2,-2,0,-1,-1,0,-4,6
1570179104400368,-2,1,-3,1,0,-2,4,-16
1570179104400368,1,-2,-1,-1,-1,-2,-1,14
1570179104422816,2,6,0,-1,0,-2,-2,3
1570179104422816,-7,-8,-1,0,0,0,-1,9
1570179104422816,1,-1,1,-1,0,0,0,-4
1570179104422816,-1,-2,1,-2,0,-1,0,-4
1570179104444757,1,4,3,-1,0,-2,3,-5
1570179104444757,3,-7,-5,-1,-2,-6,-13,-37
1570179104445809,-9,-3,0,-2,-2,-4,-16,-32
1570179104445809,0,-1,-2,0,1,1,-2,23
1570179104459722,-1,1,2,0,1,0,0,6
1570179104459722,5,8,-1,0,1,0,-1,13
1570179104460226,1,-10,-4,-1,0,0,1,10
1570179104460226,0,-1,-1,0,-1,-3,-3,-3
1570179104482751,-3,-2,-3,-1,0,0,-1,-9
1570179104482751,-3,2,2,-1,-3,-2,-3,-17
1570179104482751,-1,4,1,0,0,-1,-2,-14
1570179104482751,2,-1,2,1,-1,0,3,-1
1570179104504602,-7,-6,-4,-3,-1,0,1,2
1570179104504602,-8,-5,-2,-1,-3,1,6,-12
1570179104505658,2,0,-1,-3,-1,1,2,13
1570179104505658,-4,-2,-1,-4,-3,1,11,-10
1570179104519566,1,-2,-2,0,0,2,0,13
1570179104519566,3,6,6,1,2,1,2,6
1570179104520555,-7,-5,-3,-2,-2,-2,9,-21
1570179104520555,1,2,-1,1,0,0,3,24
1570179104542891,-7,-16,-5,-1,-2,-3,-1,-20
1570179104542891,3,5,1,-2,-1,1,0,5
1570179104543503,6,5,0,1,0,1,8,23
1570179104543503,3,13,2,-3,0,-3,-5,-11
1570179104565501,-1,-8,0,0,4,0,-2,2
1570179104565501,2,7,-3,0,-2,0,-1,11
1570179104565755,0,-8,0,0,1,0,-17,20
1570179104565755,-9,-11,2,0,-2,-3,-4,-21
1570179104580011,6,16,1,-1,1,0,1,16
1570179104580011,-1,-17,-2,-1,-7,-4,-3,7
1570179104580505,0,10,-3,-5,-4,-2,4,-15
1570179104580505,-2,-4,-3,-1,1,-1,-5,-5
1570179104602440,3,1,-3,1,-1,0,-3,-3
1570179104602440,-1,-1,-1,0,4,1,-2,-6
1570179104603333,0,3,0,2,0,1,1,-5
1570179104603333,-1,-1,-2,0,-1,0,0,13
1570179104625274,1,4,1,1,1,-1,0,-2
1570179104625274,1,0,0,-1,0,0,3,14
1570179104625488,1,4,-1,0,-2,-2,1,1
1570179104625488,6,21,4,0,0,-2,0,1
1570179104639361,-11,-33,-2,3,-2,-2,-2,-10
1570179104639361,-3,-1,3,1,0,-1,-5,3
1570179104640234,2,4,-1,-3,1,2,2,-3
1570179104640234,-3,-4,-1,-1,0,0,-1,-12
1570179104670158,9,17,3,-4,-1,-1,0,13
1570179104670158,-2,-1,-1,-2,0,-2,-4,-3
1570179104671152,1,-14,-2,3,-1,0,4,13
1570179104671152,-3,-4,-6,-2,0,0,-4,-24
1570179104692181,-12,-1,0,-1,-2,-3,-3,-8
1570179104692181,8,8,0,2,2,-2,-2,9
1570179104693140,4,9,1,-1,-1,1,2,6
1570179104693140,4,4,2,5,-2,0,3,12
1570179104700126,14,4,1,0,2,3,1,8
1570179104700126,-11,-1,-2,-1,0,2,-1,-6
1570179104707107,-2,-16,-3,1,0,0,0,3
1570179104707107,-8,-3,-3,-3,-1,-1,-3,-10
1570179104722062,-1,-7,-5,-2,-1,0,2,-4
1570179104722062,8,8,3,2,1,1,2,9
1570179104723011,-7,-8,-1,-2,0,0,-2,-8
1570179104723011,4,-2,-2,-3,-2,1,0,3
1570179104745064,-5,-3,-7,-3,0,-3,-2,-8
1570179104745064,3,-4,-1,-6,-3,-2,-1,12
1570179104745952,5,9,5,4,0,1,2,-3
1570179104745952,4,5,7,0,-1,-1,0,13
1570179104759348,-1,4,3,-2,-3,0,-3,-1
1570179104759348,1,-10,-8,2,4,2,4,4
1570179104759938,-8,5,1,1,1,-1,-3,-15
1570179104759938,0,-3,1,-1,-2,0,-1,2
1570179104782922,2,14,5,1,-1,1,-1,1
1570179104782922,-10,-27,-6,-2,-1,0,1,-3
1570179104783190,1,1,-5,-3,0,0,0,2
1570179104783190,-2,-6,7,-5,-5,-3,-3,-4
1570179104804796,-7,5,-9,0,1,-1,0,-4
1570179104804796,10,13,12,7,3,-3,-1,0
1570179104805792,2,1,-3,0,0,-2,0,1
1570179104805792,-2,-7,1,0,1,0,0,-1
1570179104818758,1,-2,1,-5,-2,-1,1,-2
1570179104818758,-9,-2,-5,-4,-3,-1,-3,-5
1570179104819755,-1,-2,2,0,-1,1,0,1
1570179104819755,-2,0,3,1,0,1,0,-2
1570179104842701,1,-2,3,3,1,0,2,0
1570179104842701,1,2,6,-1,-2,-1,-2,-3
1570179104842701,-1,-1,0,-5,-3,-2,-4,-2
1570179104842701,-1,-5,-13,1,1,0,1,-1
1570179104864634,2,-1,1,2,1,-1,0,1
1570179104864634,2,3,1,-2,-1,2,0,0
1570179104865632,-2,5,2,4,-1,-1,-2,-1
1570179104865632,-1,-9,-10,-6,-1,-1,-1,0
1570179104887577,-2,-4,-1,-1,-2,0,-1,0
1570179104887577,9,9,0,0,-2,0,-1,0
1570179104888571,-1,3,0,1,-3,-5,-3,1
1570179104888571,-5,-7,-3,-2,-3,9,1,-2
1570179104902531,15,2,-3,-1,-6,-19,-6,-1
1570179104902531,-13,-1,19,3,5,6,5,-2
1570179104903528,12,2,-16,-1,0,2,0,2
1570179104903528,8,2,0,2,-2,-11,0,4
1570179104925507,-20,-11,-4,-2,1,11,-2,-1
1570179104925507,20,9,0,-1,1,2,0,3
1570179104925507,-6,-2,2,-4,-6,-12,-3,-8
1570179104925507,1,-2,-4,1,5,-1,-1,-3
1570179104938683,3,1,12,1,0,-3,2,7
1570179104938683,-18,-11,-22,-4,-6,-2,-7,-11
1570179104946775,1,0,5,2,3,4,4,3
1570179104946775,0,3,5,-2,-3,0,2,2
1570179104962608,12,2,-4,0,-1,-5,0,-4
1570179104962608,-3,-1,1,0,0,-3,-1,3
1570179104963513,-2,-2,-2,0,2,3,0,-2
1570179104963513,1,-3,-3,0,1,0,-1,-1
1570179104984409,-2,0,2,2,4,5,-2,0
1570179104984409,2,2,-2,-2,0,-2,5,2
1570179104992346,-1,-4,1,-2,0,1,0,-1
1570179104992346,0,-2,0,-1,-1,-4,0,0
1570179104998903,-6,-4,-6,-2,-2,3,-1,1
1570179104998903,2,3,-1,2,2,-2,-2,1
1570179105007305,4,-1,1,-1,2,-3,-1,1
1570179105007305,-4,0,1,4,3,2,1,0
1570179105030197,-4,-1,2,2,-1,2,0,-2
1570179105030197,1,-3,-6,2,-2,0,-1,0
1570179105030499,-5,-1,2,0,-2,2,0,-2
1570179105030499,-1,-1,-4,-6,-3,2,-2,1
1570179105045152,-4,-4,-7,-7,-3,0,-1,-3
1570179105045152,0,1,2,-4,-3,-5,-1,-2
1570179105046149,-2,0,2,0,0,1,-1,1
1570179105046149,-2,0,1,1,-2,-2,-3,-2
1570179105058307,3,4,3,3,-1,-2,2,7
1570179105058307,-1,-1,3,1,0,0,-1,-5
1570179105067099,-3,-4,-7,-6,-2,0,-1,-3
1570179105067099,-2,-3,-6,-8,-4,-1,0,-3
1570179105081259,0,0,-2,0,-3,-1,0,2
1570179105081259,1,3,4,3,0,2,0,2
1570179105098012,2,7,21,10,0,-1,0,2
1570179105098012,4,4,-1,3,4,0,1,1
1570179105105206,-7,-6,-9,-8,-2,1,-3,-3
1570179105105206,-4,-4,-3,-3,-2,-3,-3,-2
1570179105106992,0,-5,-10,-8,-5,-1,0,-3
1570179105106992,-2,-2,0,2,1,-6,-1,0
1570179105119097,1,2,4,3,4,16,1,-2
1570179105119097,-3,-5,-4,-9,-1,6,0,-4
1570179105133964,-6,-6,-5,-11,-47,5,-3,0
1570179105133964,1,1,-2,3,27,7,5,-4
1570179105141117,0,0,3,3,-3,-3,2,3
1570179105141117,1,4,-1,-5,-3,-8,0,2
1570179105156055,2,1,-2,-4,1,-3,1,1
1570179105156055,1,-1,1,11,15,9,0,3
1570179105164986,-3,-1,3,1,-2,-10,-2,-1
1570179105164986,-3,-5,-5,-4,0,2,-1,1
1570179105166826,-2,0,-7,-3,-6,-4,-1,-1
1570179105166826,0,0,2,0,-14,-5,-3,-2
1570179105179040,2,2,4,3,7,-4,-1,-3
1570179105179040,1,0,1,3,-8,-2,-1,1
1570179105187959,1,0,-8,2,11,2,1,-1
1570179105187959,-1,-1,-4,-3,-7,-3,-3,-1
1570179105200975,1,-1,3,3,-1,0,0,-2
1570179105200975,0,1,9,1,0,1,-1,-1
1570179105209801,-2,-5,-14,-2,7,-5,-1,-3
1570179105209801,1,5,3,-5,-2,-1,1,2
1570179105224675,-2,0,1,-4,-7,-1,-2,1
1570179105224675,-1,-1,1,0,0,0,0,1
1570179105226666,0,-1,2,5,12,-2,0,1
1570179105226666,1,4,3,4,-8,-1,-1,1
1570179105238724,1,1,-1,-1,0,-1,0,-2
1570179105238724,-3,-5,-7,-2,0,-2,1,-6
1570179105247610,-2,-1,0,0,3,0,-2,-3
1570179105247610,-3,-4,-8,-8,-8,-1,0,-1
1570179105261667,-4,-2,7,4,-1,-3,-3,-1
1570179105261667,3,2,-9,-1,4,0,-2,2
1570179105270549,0,2,1,-2,0,-1,0,3
1570179105270549,2,1,4,1,-3,-2,-1,2
1570179105284514,-2,0,-1,-2,1,1,0,3
1570179105284514,-2,-1,-1,2,1,-1,0,4
1570179105292905,-1,-2,3,3,3,1,-1,4
1570179105292905,-2,-2,-4,-2,-3,-1,-2,7
1570179105307727,-1,-3,-7,-4,-1,-2,-2,6
1570179105307727,-1,-1,-4,0,-1,-1,0,-3
1570179105309277,-1,1,4,0,3,1,0,2
1570179105309277,0,0,-1,1,0,-1,0,-2
1570179105321560,4,4,-2,0,-1,0,-1,-4
1570179105321560,0,0,-1,2,1,-2,-1,-3
1570179105330399,-2,-4,2,1,2,-1,0,-5
1570179105330399,0,1,-3,-1,-3,-2,-2,-8
1570179105345396,1,-4,-5,-3,0,-1,0,-5
1570179105345396,5,14,10,1,-1,1,0,-2
1570179105346651,3,29,-1,-1,-2,-1,-1,-6
1570179105346651,-3,-26,4,1,-4,-1,-1,-4
1570179105367678,-22,-56,-17,0,-1,-1,0,-6
1570179105367678,-12,-28,-13,-3,1,0,0,-4
1570179105369286,1,2,0,-2,-1,0,-1,-1
1570179105369286,5,29,2,0,-1,0,0,1
1570179105381436,11,27,6,-2,0,0,1,1
1570179105381436,2,19,13,0,1,0,-2,-2
1570179105390384,1,-8,0,0,2,-1,2,2
1570179105390384,-14,-45,-4,0,0,-1,-2,-4
1570179105404363,-6,5,-4,-2,-2,-2,0,-5
1570179105404363,-4,-14,-10,-4,-2,0,-1,0
1570179105412518,9,17,3,1,0,1,1,8
1570179105412518,-2,13,3,-4,-2,-2,-5,-21
1570179105427208,8,4,3,2,-3,-1,0,8
1570179105427208,10,42,3,-2,-2,-1,-1,5
1570179105429126,1,-1,8,1,-2,0,-1,-7
1570179105429126,-13,-55,-25,-1,1,0,3,7
1570179105441098,20,35,13,2,1,1,1,3
1570179105441098,-44,-85,-14,-1,-2,-2,-5,-20
1570179105450070,2,-2,0,-1,-1,0,1,6
1570179105450070,3,11,3,1,1,1,0,3
1570179105465035,2,9,-7,-7,0,-1,-1,3
1570179105465035,15,24,9,-1,1,1,1,10
1570179105466027,-3,-11,-2,2,0,0,0,5
1570179105466027,-13,16,3,0,-1,-2,-4,-21
1570179105486975,12,-5,-1,0,0,0,0,23
1570179105486975,7,10,0,0,1,1,1,2
1570179105489090,3,27,-1,-1,-1,-1,-3,4
1570179105489090,-13,-49,-3,-3,0,-2,1,20
1570179105500941,-3,-4,-5,3,1,4,3,-6
1570179105500941,-3,-26,-5,-1,-2,-3,-4,3
1570179105510086,4,12,-3,0,2,0,-1,2
1570179105510086,24,60,19,1,-2,0,1,11
1570179105525233,-17,5,-8,-3,-1,-2,-5,-3
1570179105525233,-13,-47,-16,-3,-1,-1,3,4
1570179105526864,-18,5,1,0,-2,1,1,-21
1570179105526864,1,7,-2,-4,-1,1,0,-1
1570179105547932,15,-3,8,5,-1,0,1,4
1570179105547932,23,37,7,8,1,-3,1,5
1570179105549094,-8,-17,-1,2,2,2,6,21
1570179105549094,3,4,-4,-4,-3,-2,-5,-30
1570179105560775,9,15,1,0,-1,2,2,2
1570179105560775,19,-5,-2,-6,-3,-2,-6,-15
1570179105569910,-83,-53,-9,2,0,-2,-2,-18
1570179105569910,14,24,5,4,0,1,2,7
1570179105584856,26,-4,0,-1,-1,-1,-1,1
1570179105584856,-21,7,-1,-2,-3,-4,-6,-14
1570179105586703,44,20,4,-5,0,-1,0,7
1570179105586703,72,28,3,0,3,3,5,16
1570179105607689,-103,-67,-10,-2,4,-4,-9,-28
1570179105607689,-3,4,2,2,-1,-1,0,1
1570179105608653,47,-1,-1,1,-1,-1,-2,2
1570179105608653,21,9,0,-1,-3,-3,-2,6
1570179105620951,-48,-9,-1,-4,-2,0,-2,-12
1570179105620951,9,26,5,0,-3,-1,0,4
1570179105630590,48,-3,2,3,3,-1,-2,2
1570179105630590,2,-1,-3,-2,-3,0,1,-1
1570179105644548,-68,-19,-6,-6,-2,-3,-3,-13
1570179105644548,-19,-2,-3,-6,0,-1,-1,-4
1570179105646641,-25,-2,-3,-3,0,0,0,-3
1570179105646641,28,0,3,6,2,0,1,8
1570179105667777,-2,10,-4,-3,1,1,2,5
1570179105667777,10,5,5,2,1,2,-3,-8
1570179105668488,-17,-18,-9,-9,-6,-6,-8,-19
1570179105668488,-28,-22,-7,-3,-1,-1,-4,-7
1570179105681455,64,9,3,0,-1,0,3,14
1570179105681455,13,15,4,3,2,2,3,2
1570179105690427,16,22,4,0,-2,-1,0,5
1570179105690427,-51,-13,-1,0,0,0,1,1
1570179105705391,39,9,3,1,-1,-1,2,8
1570179105705391,-43,-16,-8,-5,0,1,-1,-12
1570179105706470,18,6,-1,-2,-3,-1,4,-7
1570179105706470,-50,-14,0,0,2,2,4,10
1570179105727530,25,-2,-8,-3,-9,-9,-10,-23
1570179105727530,-35,-16,2,4,2,4,1,0
1570179105729322,21,4,0,-1,0,-1,0,24
1570179105729322,-5,1,-2,-4,-2,-3,0,-13
1570179105741609,15,10,6,3,2,3,-2,-22
1570179105741609,-26,-14,-7,-5,-3,1,11,-38
1570179105750282,28,9,5,3,-1,-2,-7,-6
1570179105750282,20,21,0,-4,-3,-6,-13,16
1570179105765403,-25,-12,-2,-2,-1,0,2,5
1570179105765403,76,22,6,4,2,-1,1,66
1570179105766559,-46,-21,-2,-1,1,2,-2,4
1570179105766559,-8,-6,-4,-4,-2,-1,-2,-13
1570179105787375,-13,1,0,-1,1,6,1,8
1570179105787375,55,15,-1,-5,-4,-1,-3,-30
1570179105789187,-75,-33,0,-1,-6,-6,5,31
1570179105789187,2,-4,-1,0,0,-8,-1,36
1570179105803131,32,15,3,0,-1,-9,6,24
1570179105803131,-3,4,4,1,9,25,2,-4
1570179105810112,18,-1,-5,2,1,-3,-6,-19
1570179105810112,-22,-6,-7,-3,-2,-3,0,-57
1570179105825268,21,11,2,5,0,-3,-7,4
1570179105825268,-7,-4,-3,2,-2,-7,-7,-68
1570179105826082,-10,-1,-5,-1,-1,1,-4,-46
1570179105826082,1,-3,2,3,0,1,0,1
1570179105847015,11,9,5,0,0,-10,-3,7
1570179105847015,-5,4,-4,-2,0,-3,2,30
1570179105849120,95,37,3,1,4,5,7,32
1570179105849120,-94,-43,1,4,1,-7,6,20
1570179105860969,16,0,-6,-5,0,29,9,-5
1570179105860969,-50,-16,1,0,-1,-6,2,7
1570179105869948,29,6,-4,-3,-5,-4,-6,27
1570179105869948,46,8,2,3,-2,-1,-2,11
1570179105885012,-75,-22,0,3,3,10,6,10
1570179105885012,27,9,5,0,-2,-6,-1,37
1570179105886901,-43,-15,-10,-9,-5,-2,-6,-29
1570179105886901,4,5,-1,-8,-2,0,-7,-3
1570179105907850,-4,0,3,0,-2,-7,-6,-16
1570179105907850,-3,-7,-5,-4,-5,-7,-4,-12
1570179105908938,-16,-7,1,-2,0,-4,-8,-21
1570179105908938,73,19,4,3,4,11,15,31
1570179105929790,-14,9,6,6,1,-18,-5,-22
1570179105929790,13,-5,-11,-6,-4,-13,-9,-14
1570179105931781,-4,-13,-3,-2,-6,21,10,-10
1570179105931781,8,16,3,2,2,1,1,9
1570179105945037,33,5,-4,-5,-2,-1,-1,-1
1570179105945037,-6,-2,0,0,-2,-9,-7,-1
1570179105946795,-21,-13,1,2,3,16,6,-19
1570179105946795,30,15,2,4,3,14,3,-70
1570179105967684,-1,9,-4,-4,-3,-27,-6,-75
1570179105967684,12,-2,-3,-7,-10,4,6,-62
1570179105968686,8,3,-1,-3,0,5,1,25
1570179105968686,-27,-19,-2,4,8,6,-6,9
1570179105980648,30,16,1,-4,-10,-5,5,51
1570179105980648,-64,-26,-5,0,-12,-55,-15,37
1570179105990407,6,-5,-1,0,6,0,16,48
1570179105990407,-32,-2,-1,-4,-9,-2,-16,-29
1570179106004731,-1,-12,-8,-3,-6,2,-12,9
1570179106004731,30,15,2,1,-6,-30,13,30
1570179106011575,-10,-2,0,-2,-2,-31,-17,3
1570179106011575,-14,-6,-5,-4,4,5,2,-11
1570179106027644,18,7,3,2,8,24,2,12
1570179106027644,-3,-1,2,3,12,29,8,15
1570179106029520,-10,-1,-2,3,-3,-8,-11,-14
1570179106029520,12,6,-2,0,12,22,-2,2
1570179106041535,-18,-17,-4,-5,-20,-42,-16,-20
1570179106041535,9,4,-1,0,-10,-7,-8,14
1570179106050469,-10,1,-1,-2,7,32,10,-31
1570179106050469,6,2,-2,-3,-6,-17,-4,-3
1570179106064759,-2,-8,-1,2,5,8,2,12
1570179106064759,4,2,0,0,8,17,-5,-1
1570179106071411,7,8,3,2,-13,-3,0,0
1570179106071411,-11,-6,-4,-3,4,-13,1,-3
1570179106087365,2,-2,2,1,3,8,6,9
1570179106087365,7,6,1,0,2,12,1,1
1570179106089359,-2,-2,1,1,2,-6,-1,1
1570179106089359,4,-3,-2,-2,-6,-7,-2,4
1570179106101463,0,-1,0,-2,0,8,7,1
1570179106101463,6,4,1,-4,-2,10,-2,9
1570179106110390,-5,-1,-1,3,3,-7,-3,-9
1570179106110390,1,0,-1,-1,-6,-3,0,4
1570179106124315,-2,-2,-2,-1,3,7,5,-10
1570179106124315,-8,-5,-1,-1,0,7,11,-23
1570179106131251,4,0,0,-1,1,-3,3,12
1570179106131251,3,2,2,0,-3,-5,-2,-1
1570179106154385,-1,-2,0,0,0,1,-3,9
1570179106154385,4,2,1,2,4,4,1,7
1570179106162298,-3,0,-1,-1,-3,-11,-3,-7
1570179106162298,-1,0,-1,-1,-3,-6,2,4
1570179106171220,-3,-2,-3,0,1,-2,3,-3
1570179106171220,0,2,1,-1,4,4,-2,3
1570179106173141,1,0,-2,-2,1,2,-1,-4
1570179106173141,2,-1,-1,-1,-5,1,-3,5
1570179106184262,-2,-2,1,1,0,4,-2,1
1570179106184262,2,2,0,0,1,7,-3,4
1570179106191294,-3,2,2,0,-1,0,-1,0
1570179106191294,-1,-3,-1,0,-2,1,2,1
1570179106207257,6,-2,-2,-2,0,0,-2,7
1570179106207257,4,-1,-3,0,1,2,0,3
1570179106209042,2,-1,0,-1,0,-1,0,6
1570179106209042,1,0,-1,-1,0,1,-1,1
1570179106230110,-3,1,0,-1,2,3,-2,-9
1570179106230110,0,-2,-2,-1,1,1,-3,4
1570179106231307,-2,1,0,-2,2,-1,-1,1
1570179106231307,-2,-2,-2,-2,-2,-2,-2,0
1570179106244130,3,-1,-2,0,-1,-1,0,13
1570179106244130,1,1,0,0,0,0,-2,3
1570179106250934,-1,0,-1,-1,1,-1,-3,2
1570179106250934,-7,0,0,0,-1,7,2,1
1570179106266886,7,1,0,2,1,5,6,12
1570179106266886,-3,0,1,1,1,3,1,5
1570179106268968,-2,-2,-2,1,-2,-2,-2,20
1570179106268968,-1,0,0,-2,-1,-4,0,19
1570179106289850,-2,0,0,-1,-1,-2,-2,7
1570179106289850,0,1,1,0,0,-2,-2,-6
1570179106291826,-1,-1,2,1,0,-1,2,-17
1570179106291826,2,1,-6,-3,-1,-2,-3,-8
1570179106304154,-6,-8,2,1,2,1,-4,-10
1570179106304154,2,5,-2,-1,-2,0,16,1
1570179106312884,4,12,6,1,-1,-4,-3,-8
1570179106312884,-5,-22,-13,-2,-1,-9,-14,-6
1570179106334712,-8,-20,-11,-4,-2,-8,-5,-21
1570179106334712,10,18,-1,-3,1,5,17,9
1570179106336706,-7,-13,9,5,2,8,23,3
1570179106336706,-8,-2,12,6,-1,-14,-14,-8
1570179106349673,-9,-17,-7,-3,-2,-8,-16,-9
1570179106349673,-1,-2,-2,-3,-3,-1,2,-10
1570179106351657,6,15,-5,-7,-4,-3,-28,-3
1570179106351657,11,19,5,0,2,7,22,5
1570179106363750,-3,4,6,0,-3,-9,-30,-19
1570179106363750,-1,0,-2,0,-1,-2,0,-5
1570179106372720,-1,1,-2,0,0,5,16,1
1570179106372720,0,-8,-3,0,0,5,10,3
1570179106387745,4,8,0,1,0,4,13,8
1570179106387745,0,-6,-1,-1,1,3,-2,3
1570179106388564,-3,-9,-4,-2,-1,-1,-3,-6
1570179106388564,1,-2,-1,-2,-1,-2,1,0
1570179106409506,2,7,-2,-1,0,2,4,3
1570179106409506,-3,-3,0,-1,-1,-4,-11,0
1570179106411575,-3,-9,-3,-1,-1,-4,-1,-4
1570179106411575,3,5,0,-1,0,1,-2,-1
1570179106423641,2,5,5,0,0,3,11,5
1570179106423641,-5,-6,0,-1,0,-5,-4,-12
1570179106432494,0,-2,-2,-1,0,-5,-23,-35
1570179106432494,2,1,-2,-2,-2,2,6,-14
1570179106446627,1,2,0,1,1,1,2,-5
1570179106446627,-4,-5,-1,0,0,-1,0,7
1570179106455380,-3,0,-2,-1,-2,-2,1,10
1570179106455380,-3,-1,-2,-1,-2,-2,-6,5
1570179106470340,13,7,2,0,-1,0,6,16
1570179106470340,-3,-2,4,1,0,1,-3,8
1570179106471339,-9,-8,-1,-4,-2,-5,-1,5
1570179106471339,-5,-3,-1,-1,-1,2,0,6
1570179106483494,17,11,-2,-3,-4,-2,1,3
1570179106483494,-4,-2,-5,-1,0,2,-3,-3
1570179106498265,-10,-10,-4,-2,-1,0,-2,1
1570179106498265,-6,-7,-3,-1,0,-1,-1,3
1570179106507312,3,8,6,1,3,3,6,4
1570179106507312,-27,-23,-6,-3,-3,-4,-8,-10
1570179106509237,22,11,-3,-2,-1,0,5,17
1570179106509237,25,21,0,-2,-2,0,-1,2
1570179106530369,1,0,2,1,0,-1,1,-2
1570179106530369,15,5,6,1,0,-4,-4,4
1570179106531556,-36,-4,-5,-2,-4,8,5,1
1570179106531556,-22,-18,-2,0,3,-13,-5,-6
1570179106544154,2,-1,-2,-1,-6,0,2,-1
1570179106544154,-8,-3,-1,0,-2,0,0,-1
1570179106552168,22,9,-2,-1,-2,-4,0,-7
1570179106552168,-2,0,0,-1,1,13,2,2
1570179106567085,-7,-5,-4,-1,-2,-2,-2,-4
1570179106567085,7,7,0,-2,-1,4,4,2
1570179106569077,30,13,0,-2,-3,-27,0,0
1570179106569077,13,1,7,2,2,3,0,7
1570179106590237,-76,-28,-10,-6,-3,1,-7,-31
1570179106590237,-22,-22,-5,-3,-7,-3,-2,5
1570179106592017,42,22,0,0,1,8,-1,-5
1570179106592017,17,2,-3,-3,-4,-12,-4,-20
1570179106604321,-19,3,6,4,1,-4,1,0
1570179106604321,16,10,2,1,0,5,1,1
1570179106612959,-14,-11,0,0,0,1,-3,-4
1570179106612959,-17,-5,-3,-3,-3,3,1,-2
1570179106628014,20,5,0,-1,-2,-2,0,8
1570179106628014,3,6,-1,0,1,-1,-2,-11
1570179106629023,-8,-10,1,0,2,11,3,4
1570179106629023,-7,3,0,-2,-5,-24,-10,13
1570179106649907,7,4,0,0,4,13,3,13
1570179106649907,-1,-3,-3,-3,-1,-16,-5,11
1570179106651932,4,-5,0,0,-2,-11,-3,8
1570179106651932,-13,-1,-1,-1,0,18,3,-11
1570179106664453,13,3,-1,-2,-1,-13,-2,-9
1570179106664453,3,0,0,1,0,4,-2,-8
1570179106670804,-8,-2,0,1,-1,2,2,2
1570179106670804,-3,0,-2,0,-3,4,-4,-10
1570179106687939,2,-4,-1,-1,-3,-1,2,-4
1570179106687939,7,3,0,-1,-1,5,1,5
1570179106688759,-13,-4,1,0,-1,-3,0,-4
1570179106688759,8,0,0,0,2,1,5,21
1570179106710702,-2,0,1,-1,-1,1,-3,-9
1570179106710702,1,2,-1,1,-1,-3,0,0
1570179106711696,-14,-5,0,0,1,-1,-2,-10
1570179106711696,10,2,0,-1,0,0,4,8
1570179106723717,0,0,0,0,1,-1,-2,-12
1570179106723717,-2,2,-1,-2,0,0,0,-5
1570179106732653,-2,-3,-1,1,0,1,0,1
1570179106732653,-1,0,0,-1,0,1,1,-4
1570179106747801,7,-1,-3,-1,0,-1,1,8
1570179106747801,-8,1,-2,0,-1,0,-4,-13
1570179106748969,-5,-1,1,0,0,2,0,-9
1570179106748969,-2,0,-1,1,-1,-4,-1,5
1570179106770589,-1,1,1,-1,-1,0,1,2
1570179106770589,3,1,1,1,1,1,1,-1
1570179106771539,3,-1,0,-2,0,1,3,10
1570179106771539,-4,0,0,0,-1,-1,0,-7
1570179106783506,3,-1,-1,1,0,-1,-4,-6
1570179106783506,-1,-1,0,1,0,0,1,-1
1570179106792484,-7,-1,-2,1,-1,0,-1,-5
1570179106792484,-5,-10,-1,0,-1,1,1,-4
1570179106807648,17,12,-1,0,-1,2,1,7
1570179106807648,-2,4,2,-2,1,0,0,3
1570179106809434,-10,-9,-3,-2,-2,1,-2,-9
1570179106809434,6,1,-1,-1,1,10,0,4
1570179106830380,-5,-4,-2,0,-2,-11,-1,-1
1570179106830380,1,-1,0,1,0,-1,0,0
1570179106831851,-4,-2,1,0,0,0,0,0
1570179106831851,-26,-17,0,2,2,3,-1,-13
1570179106843350,36,20,0,-1,-1,-1,-3,-2
1570179106843350,-11,-9,2,1,2,3,1,8
1570179106852317,34,22,-3,-5,-4,-4,-2,-4
1570179106852317,-25,-11,-1,-2,-4,-5,-5,3
1570179106867520,-8,-11,-1,2,2,-2,4,-4
1570179106867520,-18,-14,-8,-4,-2,-1,-6,-12
1570179106869293,7,4,-1,0,-1,-4,-2,4
1570179106869293,5,17,3,1,7,17,0,-1
1570179106890223,14,-5,-1,-3,-11,-18,3,13
1570179106890223,-19,-16,-1,3,2,0,-2,-10
1570179106891215,-27,-12,-1,2,2,1,1,6
1570179106891215,16,7,-1,-1,-3,1,0,-3
1570179106903187,-3,4,-2,-2,0,-5,-3,4
1570179106903187,13,2,1,-1,-2,-6,-1,3
1570179106912167,-3,-2,1,-1,1,9,2,1
1570179106912167,-7,-7,0,3,3,6,10,2
1570179106927272,-17,-5,3,2,8,-4,-9,-3
1570179106927272,2,20,7,2,1,-9,-1,3
1570179106929115,6,-14,-6,-3,-8,-8,-1,9
1570179106929115,-3,17,3,0,0,-3,1,-2
1570179106950110,1,-16,-11,-8,-4,21,0,4
1570179106950110,-39,-4,6,1,0,-11,0,1
1570179106951142,34,15,-6,-6,-3,4,-6,-4
1570179106951142,-12,-20,-7,-3,-3,-3,15,-19
1570179106964215,-18,-7,3,3,2,10,3,3
1570179106964215,14,5,2,-1,-1,2,0,8
1570179106972999,-7,13,7,7,6,20,6,-1
1570179106972999,11,-18,-10,-9,-15,-50,-24,-10
1570179106988043,12,11,1,2,-5,-32,-6,0
1570179106988043,6,3,-7,-4,11,68,21,0
1570179106988956,-11,-7,0,3,13,-5,2,-1
1570179106988956,-6,2,0,0,-3,23,0,-5
1570179107010045,-9,-11,2,2,6,-4,6,2
1570179107010045,21,18,-2,-3,-13,-29,-21,14
1570179107011893,-14,-4,1,1,-7,-18,-7,-4
1570179107011893,10,7,-1,2,7,-14,-9,-14
1570179107024213,-4,4,2,2,6,29,8,11
1570179107024213,9,-2,-3,0,2,16,9,-11
1570179107032846,-16,-8,-5,-5,-10,-40,-29,-11
1570179107032846,6,3,6,5,9,-36,-4,12
1570179107047855,2,6,3,2,-7,-18,6,-1
1570179107047855,0,-4,-4,-3,0,-2,-7,-30
1570179107049080,5,-5,0,1,1,-5,12,6
1570179107049080,1,8,4,7,-4,1,-1,22
1570179107068791,-2,-2,-2,-1,8,22,6,29
1570179107068791,10,-4,-1,1,-1,-10,-9,18
1570179107077717,-9,-5,2,0,4,17,6,4
1570179107077717,6,6,-2,-5,-6,5,1,0
1570179107083703,-4,-3,-2,-3,0,11,-3,-16
1570179107083703,-1,-1,-1,-1,-8,-4,5,1
1570179107092679,-3,0,-1,0,11,50,5,-11
1570179107092679,4,1,-1,-2,-1,-5,1,12
1570179107107052,-6,-1,1,2,-3,-1,-4,-11
1570179107107052,1,0,-2,-1,-4,-36,-8,-4
1570179107113713,-13,-4,-3,-6,-7,19,11,-63
1570179107113713,-2,-2,-2,-2,2,11,2,-33
1570179107129583,-4,-2,-3,-4,0,8,-1,-28
1570179107129583,10,4,0,0,-2,-6,0,11
1570179107131574,-2,-3,-3,-2,-1,-2,2,3
1570179107131574,-20,-9,-7,-5,-5,-1,-8,-63
1570179107152521,1,4,-1,-1,-6,-12,-3,19
1570179107152521,-5,-8,-3,-4,2,7,5,0
1570179107153515,14,9,1,-1,-6,-19,-9,17
1570179107153515,0,0,-2,-3,-3,7,2,9
1570179107166488,-2,-4,-2,-1,-1,2,-1,5
1570179107166488,-7,-4,0,1,0,1,-3,1
1570179107173696,-3,-2,1,1,-5,-9,4,10
1570179107173696,11,4,1,1,-1,2,-2,31
1570179107190467,-3,-1,-2,-2,0,1,-1,-8
1570179107190467,7,0,1,0,0,0,1,18
1570179107191855,-4,-1,2,0,8,6,22,4
1570179107191855,-3,-1,1,1,3,6,1,2
1570179107212562,-4,-5,-1,-3,-4,-6,11,-9
1570179107212562,7,8,-1,-2,3,16,3,-5
1570179107214357,0,-1,1,2,-2,-24,-9,15
1570179107214357,3,-1,-3,-3,-12,-12,-1,15
1570179107227413,-4,-2,0,1,12,21,3,3
1570179107227413,-8,-5,-3,-3,-8,-9,0,-6
1570179107235304,0,0,-1,-2,3,10,-3,-1
1570179107235304,4,0,-1,0,-2,-1,2,6
1570179107250304,2,0,0,0,-5,-16,-13,12
1570179107250304,-6,-4,-4,-4,0,11,-1,5
1570179107251318,1,-1,1,3,-3,-12,-17,14
1570179107251318,3,0,-1,-2,3,3,-2,4
1570179107272242,0,2,-1,0,-1,3,4,4
1570179107272242,0,2,1,1,-1,-5,4,-18
1570179107274220,0,-7,-5,-5,3,19,4,9
1570179107274220,3,5,5,6,2,-5,-3,1
1570179107286159,-2,0,-2,-2,-6,-7,-9,-22
1570179107286159,1,1,1,2,0,2,-3,-4
1570179107295146,-10,-4,-2,-1,-6,-7,-10,-52
1570179107295146,-5,-4,-3,-4,1,9,23,-26
1570179107310432,7,2,3,2,1,-2,-18,21
1570179107310432,1,-1,-2,2,-1,-7,-4,10
1570179107311298,-2,-2,0,0,-7,-15,-1,5
1570179107311298,1,0,0,-1,4,13,5,-3
1570179107332345,-5,-3,-3,-1,-5,-3,-1,-31
1570179107332345,-2,-2,-2,-4,-1,-6,0,-7
1570179107334127,-1,1,0,2,-1,3,-2,-4
1570179107334127,1,0,-1,-2,-1,1,-2,5
1570179107354976,10,2,3,2,-1,-4,1,61
1570179107354976,1,1,2,3,-1,-8,-7,5
1570179107356721,-2,-1,-4,-3,-2,6,3,3
1570179107356721,0,-1,-1,1,-1,-2,-3,8
1570179107369940,-5,-4,-5,-4,-6,2,3,-15
1570179107369940,-2,-2,-1,-3,-11,-12,-6,-22
1570179107371986,-5,-1,-2,-1,7,9,-2,0
1570179107371986,1,0,0,-1,-6,-16,-2,1
1570179107392878,-3,-2,-2,-3,1,8,2,-13
1570179107392878,1,-1,2,0,-1,-15,-19,12
1570179107393871,-2,-1,0,1,-1,0,0,-3
1570179107393871,3,0,-3,0,2,9,-3,0
1570179107405839,-5,-3,-4,-2,0,-3,5,-25
1570179107405839,2,0,0,2,2,4,21,13
1570179107414901,3,0,0,-2,-6,-18,-5,8
1570179107414901,0,1,0,3,3,6,-7,14
1570179107429822,-2,1,0,1,-3,-9,2,-14
1570179107429822,3,-1,0,-1,3,3,4,29
1570179107431770,-7,-2,-2,-4,-5,-8,-7,-39
1570179107431770,-5,-2,-1,-2,-2,1,3,-8
1570179107452917,-2,-3,-2,-4,-4,-24,-6,0
1570179107452917,-2,-1,-2,-4,-8,-9,-2,-15
1570179107458845,-3,-1,-1,1,4,12,14,-17
1570179107458845,3,1,1,0,-1,-16,-9,11
1570179107466690,-1,-1,-1,1,1,9,3,6
1570179107466690,-3,-1,-2,-3,2,7,4,-9
1570179107474036,0,4,4,2,-1,-4,11,2
1570179107474036,0,-2,-2,-4,-2,3,2,2
1570179107490029,2,1,0,0,0,4,-1,11
1570179107490029,-5,-4,-4,-1,4,0,-3,-12
1570179107491857,5,1,3,2,6,15,-1,16
1570179107491857,0,-1,0,0,0,5,-4,-4
1570179107512985,2,-3,1,-2,-2,-7,-4,22
1570179107512985,0,1,0,0,2,10,4,-2
1570179107514548,4,0,-3,-2,-1,-5,-4,14
1570179107514548,-6,-2,-3,-2,-4,-2,6,-13
1570179107526516,0,0,0,-1,-1,-2,-4,-4
1570179107526516,-3,0,0,0,-2,2,-2,-8
1570179107534861,0,-2,-2,-3,-3,-3,10,18
1570179107534861,0,-1,-2,1,-1,-4,0,-1
1570179107550453,-2,-1,-1,-2,2,5,2,-12
1570179107550453,1,-1,0,-1,-1,0,-3,2
1570179107551451,1,1,0,1,-1,-5,-3,0
1570179107551451,-1,-1,0,-2,0,6,-2,-1
1570179107572394,-2,0,0,1,1,6,0,-2
1570179107572394,-1,0,1,0,3,3,-1,-1
1570179107574389,1,-2,0,-4,-2,-5,-7,4
1570179107574389,-1,-1,-2,-2,1,0,0,3
1570179107586362,-2,-1,0,1,-1,0,-9,-13
1570179107586362,-6,-2,-3,-2,-3,-1,17,-12
1570179107595333,3,-2,-1,-1,-2,5,-2,3
1570179107595333,0,-3,-3,-3,-6,-12,1,6
1570179107610622,4,-1,-2,1,-1,-3,5,26
1570179107610622,-7,-3,-4,-4,4,14,5,-28
1570179107611422,4,2,0,2,0,5,1,12
1570179107611422,0,0,0,-1,3,5,-1,-4
1570179107633277,-1,0,-2,-1,-3,-6,-1,-7
1570179107633277,1,-2,-1,0,0,-5,-5,1
1570179107634229,4,2,0,0,0,-5,1,37
1570179107634229,0,1,1,0,-1,3,-5,0
1570179107646599,-4,-3,0,-2,0,-2,4,-8
1570179107646599,4,2,1,2,-1,-1,-4,16
1570179107655173,-4,-2,-2,-2,0,-3,-6,-19
1570179107655173,0,2,1,1,0,1,-1,16
1570179107670166,1,0,0,-2,3,9,0,25
1570179107670166,1,-1,1,0,-1,-4,-6,14
1570179107671130,-2,-1,-1,1,-1,-2,-3,-3
1570179107671130,2,-1,-2,-1,1,8,8,0
1570179107692250,-2,-2,-1,-2,0,-1,6,-20
1570179107692250,0,-1,0,0,0,-5,-22,-5
1570179107694070,10,6,7,4,1,-8,-12,28
1570179107694070,0,-2,-4,-1,-3,-6,-2,2
1570179107706036,-2,0,-2,-1,4,6,0,-18
1570179107706036,1,0,0,2,-4,-3,0,-6
1570179107715112,-3,-1,-2,-2,-2,2,-2,-17
1570179107715112,-2,-2,1,-1,1,-8,-8,-9
1570179107729972,3,3,2,3,5,17,3,10
1570179107729972,-2,-3,-3,-3,-4,-8,4,-6
1570179107730970,-4,-2,-1,-1,-2,-10,0,-11
1570179107730970,-1,0,2,-1,-1,-5,-3,-8
1570179107752946,-1,0,-2,-1,-2,-7,-1,-8
1570179107752946,4,1,1,2,1,4,1,9
1570179107753911,-3,-3,-2,-1,0,4,1,-10
1570179107753911,0,0,-1,-1,0,-2,-2,0
1570179107765927,-1,-2,0,-1,-1,2,-2,4
1570179107765927,0,1,1,-1,-2,3,0,2
1570179107774853,-2,-2,-1,-1,-2,-3,0,-2
1570179107774853,0,-1,-1,-1,-2,2,-1,-2
1570179107790010,0,-1,-1,-2,-3,-3,-2,0
1570179107790010,1,-2,1,0,1,0,3,9
1570179107791894,-4,-3,-2,-4,-1,-1,4,-6
1570179107791894,0,1,-1,-1,-2,1,1,2
1570179107812803,0,-1,-1,1,3,6,0,1
1570179107812803,-3,-1,-1,0,0,-1,-2,0
1570179107818948,0,-1,-2,0,-3,-2,-2,-3
1570179107818948,-2,-1,-2,0,1,-1,-4,-4
1570179107834695,-2,-1,0,-3,-5,-6,-2,-2
1570179107834695,1,-1,-1,0,2,14,4,0
1570179107836694,4,0,1,1,0,-9,-17,20
1570179107836694,-1,-1,-1,-1,0,2,1,-1
1570179107849657,-1,-2,0,0,-2,-4,-2,-1
1570179107849657,-1,-2,0,-1,-1,1,5,-25
1570179107851654,-2,0,-1,0,2,7,6,-30
1570179107851654,2,-1,-3,-1,-8,-4,-1,-10
1570179107872813,0,-1,0,2,-4,-6,-3,0
1570179107872813,0,0,-3,-3,-1,-1,3,8
1570179107873796,-2,-1,-1,-2,-2,2,5,8
1570179107873796,-1,0,1,-1,3,1,2,9
1570179107886609,-1,0,-1,0,-1,0,1,6
1570179107886609,0,1,2,1,-1,-6,-3,8
1570179107895621,-1,-2,-1,0,-1,-1,3,2
1570179107895621,1,-1,0,-1,0,3,-1,11
1570179107909500,-2,0,-2,-1,-1,-1,0,-9
1570179107909500,0,1,-2,1,1,1,1,18
1570179107911489,-4,-2,-3,-4,-7,-2,-9,-22
1570179107911489,1,0,-1,0,1,0,6,6
1570179107932431,2,-1,-2,1,1,4,0,-3
1570179107932431,0,0,0,-1,1,0,-4,-1
1570179107934430,0,0,-2,-2,2,5,4,4
1570179107934430,0,-1,-1,1,-1,-4,-4,-3
1570179107946542,-1,0,1,-3,0,-3,-2,-4
1570179107946542,1,-2,-1,-1,-1,-1,1,-1
1570179107955370,0,-1,-2,-1,1,0,7,3
1570179107955370,-2,-2,0,-1,2,3,3,-4
1570179107970454,0,-1,-1,1,-1,-1,-2,6
1570179107970454,-1,-2,-2,0,-2,-3,-4,-4
1570179107971558,-2,-1,-1,2,1,-2,-2,2
1570179107971558,-2,-2,-1,-1,0,-2,-3,0
1570179107992319,-9,-4,-1,-1,0,0,-4,-3
1570179107992319,4,-2,1,-2,-4,-4,-4,0
1570179107994265,-9,0,2,1,5,2,-1,5
1570179107994265,17,3,-5,1,18,6,-5,-5
1570179108006633,-5,-4,-1,-3,-5,-3,-2,-1
1570179108006633,0,-3,-1,-8,-19,-9,-5,-1
1570179108015211,8,16,4,4,-12,-7,0,1
1570179108015211,-36,-27,-2,-1,-10,-2,0,-2
1570179108030172,20,20,-1,-1,5,-1,0,-1
1570179108030172,0,-17,-4,-2,5,1,-1,-4
1570179108031311,0,5,3,-1,4,8,1,4
1570179108031311,-11,-7,1,7,3,1,0,-1
1570179108052332,-15,-7,5,7,1,0,2,-1
1570179108052332,37,27,5,5,6,2,0,11
1570179108054107,19,19,4,0,-1,-4,-7,-4
1570179108054107,-13,-10,-5,-7,-2,2,2,-5
1570179108066182,0,6,-1,-1,-1,-1,-1,-3
1570179108066182,-23,-13,-1,6,5,4,4,-6
1570179108075134,49,5,7,10,4,3,7,16
1570179108075134,-8,1,-1,-9,-4,-6,-7,-5
1570179108089176,-17,-24,-12,-5,-9,-9,-7,-11
1570179108089176,0,10,4,3,2,2,3,3
1570179108096154,-12,-13,-5,-2,0,-1,2,-3
1570179108096154,37,35,8,-2,-3,3,4,7
1570179108112998,46,8,8,13,9,1,3,12
1570179108112998,-45,-12,-4,-5,-2,-4,-4,-8
1570179108113950,-15,-11,-5,-4,1,-2,-2,-5
1570179108113950,6,0,-2,0,1,1,0,3
1570179108135121,3,5,-3,-5,0,0,-2,0
1570179108135121,-13,-10,-8,-14,-7,-4,-4,-7
1570179108136884,-18,-9,-4,-3,1,2,3,-1
1570179108136884,7,1,3,7,1,-1,-3,-1
1570179108149317,-7,-2,3,4,2,2,0,-2
1570179108149317,36,21,5,3,8,6,5,15
1570179108156028,-58,-24,-14,-10,-8,-8,-25,-22
1570179108156028,-19,-11,-4,-4,-5,-4,-9,-5
1570179108172789,-9,-16,-6,-6,-8,-2,-7,-3
1570179108172789,4,-4,0,0,-3,-3,-3,1
1570179108174154,0,1,1,4,6,1,-2,-15
1570179108174154,-15,2,0,4,-3,-2,-4,-15
1570179108194735,-13,-2,0,0,1,2,2,-12
1570179108194735,-8,-3,-1,6,7,1,3,-6
1570179108196725,9,2,-3,-9,0,2,9,8
1570179108196725,6,1,3,8,-10,-9,1,4
1570179108209695,10,6,0,-3,0,0,8,7
1570179108209695,-3,1,2,4,-8,-4,2,-1
1570179108216042,7,-5,-2,-2,0,0,4,5
1570179108216042,9,10,3,10,7,2,6,7
1570179108232635,6,1,-5,-7,-5,-3,1,8
1570179108232635,6,9,1,1,-1,-2,-1,-1
1570179108233625,-3,-20,-8,-5,-8,-5,-5,-8
1570179108233625,-8,-6,-5,-9,-5,1,3,-1
1570179108254957,0,4,2,1,0,-1,0,-2
1570179108254957,-10,-5,-1,-3,0,-1,-3,-5
1570179108256564,8,7,3,0,1,2,5,4
1570179108256564,1,-3,-4,-10,1,4,1,3
1570179108268956,2,5,4,6,-1,0,-2,1
1570179108268956,2,-2,0,2,0,-2,-1,1
1570179108277519,3,6,1,2,-1,-1,2,3
1570179108277519,1,-3,0,2,3,1,-1,-3
1570179108292765,-3,0,-4,-9,-7,5,0,0
1570179108292765,-7,-9,-5,-4,0,-1,0,-8
1570179108294464,10,13,4,1,-4,-10,-6,-3
1570179108294464,16,9,1,-2,4,27,7,5
1570179108315411,-17,-13,-3,-1,0,-10,-2,-9
1570179108315411,7,0,-2,2,9,22,1,13
1570179108317402,-16,-7,-1,-2,-13,-30,1,4
1570179108317402,-5,-10,0,-2,2,6,-3,-2
1570179108328606,9,11,2,-1,-3,1,1,12
1570179108328606,-12,-9,-1,1,-6,-5,-3,-4
1570179108337400,7,8,1,2,13,7,15,-21
1570179108337400,10,6,-4,-4,-11,-26,-6,17
1570179108352528,-14,-14,-1,2,5,1,9,6
1570179108352528,13,7,-5,-10,-14,0,-16,5
1570179108354433,3,-2,0,1,3,18,11,3
1570179108354433,-10,-5,-2,-1,0,-8,-4,0
1570179108382231,-7,-2,0,-2,1,-2,-4,-8
1570179108382231,-2,-3,-2,-1,3,-3,3,-9
1570179108384227,1,-2,3,4,0,5,-3,41
1570179108384227,9,10,-1,2,2,3,2,-1
1570179108388437,-7,-1,-3,-7,-4,-4,-13,-18
1570179108388437,3,2,-2,0,1,1,7,13
1570179108397188,2,-3,0,0,-1,2,-6,-2
1570179108397188,-2,-3,-2,-3,-2,-4,6,-8
1570179108412157,1,3,-1,-2,0,-3,-6,5
1570179108412157,-3,-1,0,0,-2,-7,1,-15
1570179108414143,3,-2,-2,-1,0,1,-4,-5
1570179108414143,-4,-4,-1,0,-1,1,1,-10
1570179108435091,6,3,0,1,0,1,2,-3
1570179108435091,-7,-4,0,-1,1,-2,-1,-1
1570179108436089,-1,1,-1,-1,1,2,-16,17
1570179108436089,9,4,5,1,2,1,-21,26
1570179108449103,0,-2,-2,-1,-1,1,2,-10
1570179108449103,6,6,2,2,0,1,4,16
1570179108464020,1,0,1,0,-4,-2,2,-23
1570179108464020,4,0,1,0,1,0,10,25
1570179108472209,8,3,2,2,2,4,-3,53
1570179108472209,-3,-1,0,0,0,-3,-5,-6
1570179108473985,-9,-4,-6,-4,-2,6,25,-38
1570179108473985,-5,-5,1,1,-1,-2,-3,24
1570179108495293,6,4,-1,0,0,-3,-4,-11
1570179108495293,6,1,-3,-4,-2,-1,3,5
1570179108496931,0,2,2,3,1,-1,-3,26
1570179108496931,-12,-8,-4,-3,-2,1,1,-24
1570179108508956,3,3,1,0,-1,0,2,-8
1570179108508956,-4,-3,-2,0,2,-2,1,-14
1570179108517864,2,0,-1,0,0,1,-8,-8
1570179108517864,-2,0,-3,-1,0,-4,-2,-21
1570179108532992,-5,-3,-2,0,0,-1,2,-9
1570179108532992,-1,-2,0,0,-2,-2,1,8
1570179108533951,2,3,-2,0,1,-5,-2,9
1570179108533951,8,3,0,1,-3,3,7,23
1570179108555176,3,1,2,1,3,10,3,15
1570179108555176,6,1,2,1,3,-3,-20,21
1570179108556889,0,0,1,1,0,-12,2,6
1570179108556889,-7,-1,-2,-2,-3,0,-6,-34
1570179108569184,2,1,-4,-2,0,5,4,-16
1570179108569184,0,2,-1,1,0,1,1,-4
1570179108577837,5,0,-2,0,-1,5,-1,-2
1570179108577837,-22,-8,-1,2,-1,-9,-9,-7
1570179108599776,0,1,0,-1,-5,-2,-3,-11
1570179108599776,2,-1,-1,-1,-1,4,16,-6
1570179108601771,-9,-4,0,-1,-1,2,-4,-4
1570179108601771,8,2,-2,-4,-2,2,4,-9
1570179108615062,-4,-4,0,1,-2,-9,-2,2
1570179108615062,-13,-5,-4,-5,-7,-13,-6,-56
1570179108616732,-1,1,0,-1,8,5,3,3
1570179108616732,-3,-3,0,-2,-9,-5,0,2
1570179108637892,-10,-10,0,-4,-2,-4,-1,9
1570179108637892,26,21,2,1,-3,-1,-2,-5
1570179108638708,-7,-4,-1,-1,-4,2,-4,4
1570179108638708,13,2,2,3,5,-2,-18,68
1570179108652860,5,0,-5,-2,-3,2,-1,-5
1570179108652860,-31,-11,4,6,9,14,2,-19
1570179108653773,37,8,-3,-8,-21,-30,-8,28
1570179108653773,-19,-6,-3,-3,5,4,13,-35
1570179108674581,-18,-12,-1,-1,-3,-4,-3,-11
1570179108674581,22,11,1,3,5,-1,3,22
1570179108676571,-20,-6,-2,-4,-12,-6,-2,-17
1570179108676571,11,-10,-6,-4,5,8,3,-16
1570179108688968,-12,-2,-1,-1,0,3,1,2
1570179108688968,7,5,-1,-1,0,2,-2,-11
1570179108697626,3,-8,1,4,5,10,2,1
1570179108697626,17,22,-2,-5,-11,-10,-4,-18
1570179108712473,-18,-6,1,2,8,1,-5,-7
1570179108712473,1,-9,-5,-5,-14,-32,-4,2
1570179108714469,3,2,1,2,10,-2,-1,4
1570179108714469,1,-5,0,0,-5,-1,-1,2
1570179108735463,1,12,4,2,3,15,4,3
1570179108735463,4,-7,-7,-7,-6,-5,-9,-15
1570179108741402,-38,-14,-2,1,5,-5,-8,-14
1570179108741402,35,13,-2,-1,15,23,13,44
1570179108748428,-51,-13,-3,-6,-29,-76,-24,-2
1570179108748428,43,9,-2,-6,-16,37,6,26
1570179108765378,-2,3,-2,4,21,-9,-6,-12
1570179108765378,-11,-1,3,3,-6,-3,6,-12
1570179108772313,28,9,1,6,21,10,4,1
1570179108772313,-14,-7,3,3,3,-4,0,5
1570179108774310,-11,0,-2,-5,-13,-4,-6,-24
1570179108774310,-18,0,4,2,1,2,8,-31
1570179108795252,97,23,-10,-8,-7,-4,-24,14
1570179108795252,-44,-8,1,2,4,-3,-2,-16
1570179108796251,5,-6,-1,-2,0,19,8,6
1570179108796251,-16,-8,0,3,1,-3,-1,-7
1570179108809217,-12,-6,-1,-4,-5,16,13,-6
1570179108809217,8,4,0,1,11,-4,-2,13
1570179108817231,-11,-4,-1,1,-1,3,-1,6
1570179108817231,30,8,1,1,2,-1,-1,-9
1570179108832564,-22,-5,0,1,3,21,4,-8
1570179108832564,-5,-3,1,-1,-4,-15,-5,3
1570179108834282,5,4,2,1,8,4,2,1
1570179108834282,-12,-5,-1,-1,-11,-13,-5,-3
1570179108855092,2,-3,0,0,13,15,11,-4
1570179108855092,-7,-2,1,-1,-14,-2,2,2
1570179108857089,1,3,0,2,-5,4,1,21
1570179108857089,-3,-4,-5,-1,11,3,4,-19
1570179108869056,4,2,0,0,0,-5,-7,-27
1570179108869056,-17,-7,-1,1,0,-1,3,-6
1570179108877338,13,4,0,0,-3,-5,-2,-9
1570179108877338,-4,-3,0,-3,-6,-1,-1,-3
1570179108891993,-9,-3,-1,-1,-1,6,10,-2
1570179108891993,1,-2,-3,0,4,0,0,1
1570179108898976,6,2,1,-1,-5,6,-2,4
1570179108898976,-7,-3,-1,-2,-2,-14,-11,18
1570179108914932,-5,-1,2,3,-1,-1,3,17
1570179108914932,3,1,-2,-2,2,4,-1,15
1570179108916991,5,1,-2,-5,1,11,1,-7
1570179108916991,-5,-1,1,-2,-7,-15,-22,5
1570179108928924,2,-1,-2,1,2,-3,-7,-14
1570179108928924,4,1,2,0,4,0,1,20
1570179108937917,-2,-2,-1,-2,-3,0,1,-10
1570179108937917,-7,-3,-1,-1,-3,3,3,-34
1570179108951837,11,3,1,1,0,1,-5,10
1570179108951837,-3,-2,-1,2,1,3,-2,8
1570179108958819,-3,-2,-3,0,-2,-3,-1,-3
1570179108958819,1,0,0,0,-1,3,0,1
1570179108974778,-4,-2,0,-2,-3,-3,3,-7
1570179108974778,-6,-2,-2,-3,2,1,2,-15
1570179108976767,3,0,0,0,0,-2,0,9
1570179108976767,-6,-2,-1,-1,-1,2,6,2
1570179108988868,-5,-3,-3,-3,-3,-3,11,-23
1570179108988868,7,-1,1,2,2,-1,9,35
1570179108997713,1,2,-1,-1,0,4,0,-4
1570179108997713,-1,1,0,0,1,3,-2,2
1570179109011724,-4,-2,1,0,-2,-3,0,4
1570179109011724,-2,-1,-3,-1,-1,-2,-5,-14
1570179109018656,-2,-1,-2,-1,-2,-4,-1,-9
1570179109018656,0,-1,-1,-1,1,0,4,7
1570179109034613,3,1,-2,0,-1,0,-1,19
1570179109034613,-2,-1,-1,-1,0,1,-2,-15
1570179109036608,-1,0,1,0,-2,-2,-1,4
1570179109036608,1,0,-1,-1,1,1,-3,0
1570179109048615,-1,-1,1,2,-1,-1,0,-2
1570179109048615,-2,-1,-2,-3,3,13,0,-1
1570179109057564,-1,-1,1,1,-4,-13,-2,-10
1570179109057564,5,-1,0,-1,-2,1,4,-19
1570179109071515,-2,-1,0,0,-2,-11,-3,-15
1570179109071515,0,-2,-2,0,8,26,5,-7
1570179109078851,3,1,0,0,-4,-2,-3,7
1570179109078851,0,-1,1,-1,-2,-1,1,15
1570179109094754,0,-2,2,1,3,8,0,15
1570179109094754,0,1,2,1,-2,-11,1,3
1570179109096449,0,-1,-1,1,3,1,-1,4
1570179109096449,-1,-1,-3,0,1,-2,0,12
1570179109117413,1,-1,-3,-2,-1,0,0,7
1570179109117413,-7,-2,-1,-1,-3,-10,-7,-17
1570179109119391,4,0,-1,-2,0,3,4,9
1570179109119391,-2,1,-1,-2,1,3,2,3
1570179109131545,-7,-5,-4,-3,-2,4,22,-16
1570179109131545,-2,-1,0,0,-3,-7,-14,-5
1570179109138580,-3,-2,-2,1,0,-1,0,-2
1570179109138580,-3,-2,-1,-1,0,2,-3,-3
1570179109155352,0,-1,-1,-1,0,0,0,6
1570179109155352,-1,1,-2,-1,-2,-4,1,-4
1570179109156288,-4,-1,-1,-1,0,1,-3,-8
1570179109156288,3,-1,1,-1,-2,-2,-1,-3
1570179109177231,1,0,0,1,-2,-1,-7,11
1570179109177231,1,-1,0,0,-2,-3,0,2
1570179109179226,1,-1,-1,0,-2,-2,-8,1
1570179109179226,0,0,-1,0,1,1,0,1
1570179109191280,-2,-1,2,1,-3,-13,-5,6
1570179109191280,0,-2,-1,-1,2,-4,-2,-1
1570179109215134,0,-1,-3,-1,0,3,8,0
1570179109215134,-3,0,1,4,-1,-4,0,0
1570179109216330,-1,2,3,2,1,0,-8,-11
1570179109216330,2,0,0,0,-3,2,1,12
1570179109218218,0,-1,0,-2,0,-3,-2,-7
1570179109218218,0,-2,-1,-3,0,2,-1,-4
1570179109237151,1,-1,0,-4,-1,4,-5,7
1570179109237151,-2,-1,-1,-3,-1,-4,2,-4
1570179109239066,0,0,-2,-2,0,1,1,0
1570179109239066,2,1,-2,1,0,-1,-10,5
1570179109252031,-1,1,0,3,-1,-1,0,-3
1570179109252031,-1,-1,-1,-1,2,4,-1,-4
1570179109258016,-5,-2,-2,-3,-14,-22,-8,-9
1570179109258016,-1,-2,-2,0,-1,-4,3,2
1570179109274970,1,0,0,1,1,7,0,2
1570179109274970,0,0,0,-2,-3,-1,-2,0
1570179109276966,-2,0,2,0,3,6,0,3
1570179109276966,-1,-2,-2,-2,-1,0,0,-2
1570179109296910,-3,-2,-5,-4,0,0,2,-3
1570179109296910,6,4,4,4,-2,-9,-22,12
1570179109298904,1,1,-1,1,3,6,10,12
1570179109298904,-2,-2,-1,0,-2,-5,-2,-2
1570179109311869,5,0,-2,-1,4,8,-2,11
1570179109311869,-3,-4,-1,0,-1,1,7,-5
1570179109318850,-1,-1,2,0,1,-3,-6,-7
1570179109318850,1,-2,0,-1,-1,-1,1,5
1570179109334807,9,3,0,1,-2,-6,-23,25
1570179109334807,-4,-2,-2,-1,-1,-1,2,-7
1570179109336803,11,1,0,2,1,1,2,51
1570179109336803,7,3,1,1,4,4,-15,27
1570179109357746,2,2,2,1,0,-2,5,8
1570179109357746,-8,-2,-1,-2,-1,1,4,-26
1570179109358744,3,-3,-3,1,1,1,-2,4
1570179109358744,-5,0,0,-2,-2,0,2,-23
1570179109371709,0,-1,-3,-2,-1,-2,3,9
1570179109371709,-1,0,-2,-2,-3,-4,-3,-3
1570179109378930,-7,-2,0,-2,-1,3,6,-23
1570179109378930,-4,-1,-1,-1,-1,-2,6,-15
1570179109394969,-5,-3,0,-1,-2,-1,13,-5
1570179109394969,9,2,1,2,2,2,5,19
1570179109395966,-5,-1,-1,-3,-2,0,-1,-12
1570179109395966,-4,0,-1,-1,-1,8,-1,-16
1570179109416909,-4,-1,-3,-1,-5,-15,-3,-15
1570179109416909,-3,-2,-3,-1,-2,-1,2,-16
1570179109418904,5,-1,-2,1,1,-1,-12,15
1570179109418904,-9,-3,-2,-2,-1,-1,3,-13
1570179109431392,-3,-3,-2,0,-1,2,-4,1
1570179109431392,-1,0,-3,-1,-1,0,1,4
1570179109438373,1,-1,-1,0,-1,-2,3,-1
1570179109438373,-4,-2,0,-2,-3,-2,3,-2
1570179109454417,-4,0,0,-1,-1,2,-3,-7
1570179109454417,1,-1,0,0,0,-1,0,7
1570179109456451,-6,-1,-3,-3,1,2,0,-19
1570179109456451,2,0,0,0,-2,-3,-1,6
1570179109477442,2,0,-1,1,0,2,3,2
1570179109477442,0,-1,1,-2,-1,-2,-3,-1
1570179109479437,-3,2,1,0,-2,0,3,-5
1570179109479437,2,0,-2,-1,1,-1,-1,6
1570179109491611,1,0,-3,-4,0,-1,2,3
1570179109491611,-2,-1,-3,-1,0,-1,-1,-9
1570179109498537,0,-1,0,0,0,0,-3,-7
1570179109498537,5,0,-1,-1,-1,-2,-1,8
1570179109515372,-2,0,2,0,1,2,-1,-13
1570179109515372,-3,1,-1,-1,0,0,1,2
1570179109516869,0,0,0,0,-2,2,1,3
1570179109516869,-4,-2,-3,-2,-1,-1,2,-10
1570179109537119,2,-1,2,1,-2,0,-3,-2
1570179109537119,0,-1,-1,-1,0,-3,-6,9
1570179109539242,-1,-2,-1,1,-1,-2,-1,-6
1570179109539242,-2,-1,-1,-1,0,-1,-2,-3
1570179109552423,-1,0,-1,-1,-1,-4,-4,-1
1570179109552423,0,0,-2,-1,-3,0,2,4
1570179109558063,-3,-1,-1,-1,0,0,1,-21
1570179109558063,2,0,-2,0,0,-1,-1,6
1570179109575018,2,1,-1,-2,1,0,5,6
1570179109575018,-2,-2,-1,-1,-2,2,-2,-2
1570179109576014,-1,-1,-1,-1,-2,-1,2,-4
1570179109576014,-2,0,1,2,0,-1,-3,-3
1570179109596961,3,-1,-2,0,-2,-1,0,2
1570179109596961,-2,-1,0,1,1,1,2,-2
1570179109599013,-1,0,0,-2,1,-2,-3,0
1570179109599013,2,1,0,-2,-1,1,-1,5
1570179109610983,-5,-1,0,-1,-1,-2,-7,-20
1570179109610983,-1,-2,0,-1,0,-1,-1,0
1570179109620076,0,-2,-1,0,-1,1,0,-8
1570179109620076,-1,0,1,0,-1,-2,-1,0
1570179109635031,-2,-1,0,-1,-1,1,1,-3
1570179109635031,0,0,-1,-2,0,0,2,0
1570179109637026,-1,-1,-2,0,0,-1,-1,2
1570179109637026,-1,-2,-1,-1,-2,0,0,0
1570179109658101,0,0,-1,-2,-1,0,-1,1
1570179109658101,0,0,1,0,-1,0,1,-2
1570179109659098,-2,-2,-2,-2,-2,0,1,3
1570179109659098,2,-2,0,-1,-1,0,-1,1
1570179109671067,-6,0,1,0,0,-1,0,-8
1570179109671067,1,1,-1,-1,-1,0,1,5
1570179109680044,-2,-1,0,-1,0,0,-1,-3
1570179109680044,-1,0,-3,0,0,-2,0,1
1570179109695003,-1,-3,0,0,-1,0,-2,-2
1570179109695003,-2,0,0,1,-1,-1,0,-4
1570179109696997,-1,0,0,1,0,0,-2,0
1570179109696997,1,1,-1,0,0,-2,-2,1
1570179109717765,2,-1,-2,-2,0,1,-4,12
1570179109717765,0,-1,0,1,-2,-3,-4,-3
1570179109718762,1,1,0,1,0,-2,1,4
1570179109718762,-1,1,1,-3,-1,-2,-4,-1
1570179109731350,-1,-3,-2,1,-1,-2,-1,-12
1570179109731350,-2,0,1,-2,-1,-1,3,2
1570179109741763,4,-1,0,0,-1,0,1,11
1570179109741763,0,-2,0,0,0,0,0,-6
1570179109755663,-1,1,-1,-2,1,-1,0,-2
1570179109755663,-1,0,-1,-1,-1,-1,-2,-1
1570179109762801,-1,0,1,0,-1,0,0,-3
1570179109762801,-2,-2,0,-1,0,0,1,-4
1570179109777683,0,-1,1,-2,-1,1,0,2
1570179109777683,1,-2,1,-1,-2,-1,-2,1
1570179109779598,-2,-1,-2,0,-1,-1,-2,-1
1570179109779598,1,0,-1,0,0,-1,0,1
1570179109790574,-1,0,0,1,-1,-2,-1,0
1570179109790574,-2,-1,0,-2,0,0,1,-3
1570179109799571,0,0,-3,-1,0,0,-2,-2
1570179109799571,-1,-1,-1,0,-2,-1,-2,0
1570179109814503,-3,-1,-2,0,-1,-1,0,-1
1570179109814503,1,-2,-1,0,-2,1,1,1
1570179109816533,0,-2,-1,0,-2,-1,1,2
1570179109816533,0,-1,0,1,0,0,-2,-10
1570179109837442,0,0,-1,-1,-1,0,1,0
1570179109837442,0,-2,-1,-1,0,-1,-3,-1
1570179109838440,-1,-1,-1,-2,1,-1,0,1
1570179109838440,-3,-1,-1,2,-1,-1,1,1
1570179109851407,0,1,0,-1,-1,-1,-1,0
1570179109851407,-1,-2,-1,-1,-2,-1,-1,-1
1570179109860381,-1,0,-2,0,-2,-2,1,-2
1570179109860381,-1,-1,-1,1,-1,0,1,3
1570179109875342,0,-1,0,0,-1,0,1,3
1570179109875342,-2,1,0,0,0,1,0,1
1570179109876341,2,-1,-1,0,-1,-2,-2,-4
1570179109876341,2,-1,-1,-2,0,0,1,5
1570179109897284,1,-1,-1,-1,1,0,0,-2
1570179109897284,-1,1,-1,0,0,0,-2,-6
1570179109899277,-2,0,1,-1,-1,0,-1,0
1570179109899277,0,-2,1,-1,0,-1,0,0
1570179109911246,-2,-1,0,1,-1,-1,-2,3
1570179109911246,0,-1,-1,-2,2,1,-1,3
1570179109920222,0,0,-2,0,0,1,-1,-2
1570179109920222,-6,-2,-1,1,-2,-3,-3,-17
1570179109935264,2,2,1,1,-1,-2,2,3
1570179109935264,-1,-1,-1,-1,-2,-2,-3,-7
1570179109936726,-1,-1,1,0,0,-1,-1,-17
1570179109936726,-1,0,-3,0,0,0,1,-16
1570179109957127,-2,-1,-1,-1,-1,-1,1,-8
1570179109957127,-1,-1,-2,0,-3,0,0,-10
1570179109959247,1,0,2,1,0,-1,0,4
1570179109959247,3,0,0,-1,-1,0,-1,5
1570179109971100,0,0,-2,1,0,0,0,7
1570179109971100,-2,0,-1,-2,0,-1,-1,0
1570179109980067,-3,-1,-1,0,-1,1,-1,-1
1570179109980067,1,0,0,0,-1,-1,2,10
1570179109995028,-1,-1,0,0,0,0,0,5
1570179109995028,0,-2,-2,-1,-1,0,-1,5
1570179109997018,-1,0,-1,-2,1,-1,-1,7
1570179109997018,2,-1,-2,-1,0,-1,0,6
1570179110017077,-1,-1,-1,0,-2,-1,0,1
1570179110017077,7,1,-2,2,0,-1,0,2
1570179110019376,-1,0,-2,0,-2,-2,-1,3
1570179110019376,-2,0,-2,0,-1,0,2,7
1570179110040083,-1,0,-1,0,0,-1,-1,0
1570179110040083,-3,0,1,-1,1,0,1,2
1570179110041898,-1,-1,-2,-2,0,1,2,4
1570179110041898,1,0,0,-1,1,-2,-1,0
1570179110054864,-3,-1,0,-1,-2,-2,-4,-16
1570179110054864,-1,-2,-1,-1,-1,-1,1,4
1570179110056867,-2,-1,0,0,1,-2,-2,-2
1570179110056867,-2,0,0,0,-1,2,-1,0
1570179110077802,-1,1,-1,-2,-2,0,-1,-2
1570179110077802,-1,0,-2,1,-1,-1,0,0
1570179110079799,2,0,0,0,-1,1,0,-1
1570179110079799,0,-2,-3,-1,-1,-1,0,0
1570179110099814,0,-1,-2,-1,-2,0,-1,0
1570179110099814,-2,-3,-1,-1,-1,0,0,-4
1570179110102735,-2,-2,-1,1,-1,-2,-1,-3
1570179110102735,-1,1,-1,-2,0,0,-1,1
1570179110114704,1,-1,1,-1,0,0,-1,4
1570179110114704,-2,0,0,0,1,-2,0,-2
1570179110116699,-1,-1,-1,0,-1,0,-2,-2
1570179110116699,-2,-1,0,0,-1,1,0,0
1570179110137640,-1,-1,-3,0,-2,-1,0,1
1570179110137640,0,-1,0,-1,-1,0,-2,-1
1570179110138690,-1,-1,0,-1,0,0,1,-1
1570179110138690,1,-1,0,-1,0,-2,0,1
1570179110159654,-1,-3,0,0,0,0,1,1
1570179110159654,0,-1,0,-2,-1,-1,1,-6
1570179110161576,4,0,-1,-1,-1,0,0,15
1570179110161576,-1,-1,0,-1,-1,-1,0,1
1570179110174541,-5,-1,-2,0,-2,0,-4,-11
1570179110174541,-2,-2,0,-1,-1,-3,-4,-10
1570179110181522,-1,0,0,-1,0,0,-1,-2
1570179110181522,-2,-1,0,0,-2,1,0,0
1570179110197480,-1,0,-1,0,0,-2,1,0
1570179110197480,1,0,-3,-1,0,-1,0,6
1570179110198477,-1,0,-1,1,0,0,0,-5
1570179110198477,-1,-1,-1,0,0,-2,0,-2
1570179110219499,0,-2,0,-1,-1,0,1,-3
1570179110219499,0,0,-1,0,-2,0,1,2
1570179110221422,-1,-3,-1,-2,0,-2,0,-2
1570179110221422,0,-1,0,-1,0,-1,-1,1
1570179110234381,1,0,-4,1,0,-1,-1,4
1570179110234381,-1,0,2,0,-1,0,0,-8
1570179110241362,0,-1,0,-1,-2,-1,-3,8
1570179110241362,-1,2,0,-2,0,0,0,-5
1570179110257319,2,-2,1,-2,1,1,0,-1
1570179110257319,-1,-1,1,-1,-1,-1,0,0
1570179110259348,1,2,-3,-1,-1,-1,1,-4
1570179110259348,0,-1,0,0,-1,-1,-1,-1
1570179110280258,0,-1,0,0,-1,-2,1,7
1570179110280258,-1,1,-1,0,-1,0,-1,-1
1570179110281255,-4,-2,1,0,-1,-2,-2,-8
1570179110281255,1,1,-2,1,0,0,-2,7
1570179110294260,-1,-1,1,1,-1,-2,-2,-4
1570179110294260,-1,-2,-1,-1,0,-1,-1,-7
1570179110301202,-1,-1,0,-1,-2,-1,0,-2
1570179110301202,-1,-3,1,-1,0,0,-1,-6
1570179110325139,1,1,1,1,0,0,3,13
1570179110325139,3,0,-1,1,0,1,-1,4
1570179110327133,-2,0,-1,0,-1,0,0,0
1570179110327133,-3,-3,-1,-1,-2,1,12,-11
1570179110339103,-3,0,-2,-6,-1,-3,3,-15
1570179110339103,2,-1,-2,-1,1,0,-1,19
1570179110340123,8,4,1,1,0,-1,-3,28
1570179110340123,-1,-2,-1,-2,0,-2,-2,0
1570179110353063,-1,-1,-1,0,1,1,1,-6
1570179110353063,2,2,2,2,0,-1,-1,3
1570179110362039,3,2,2,-2,-2,0,-6,5
1570179110362039,3,0,-1,-1,1,1,-3,17
1570179110377000,2,-1,0,0,-3,-1,-4,9
1570179110377000,-2,-2,-1,-1,0,0,-2,5
1570179110378008,-4,-2,-2,-1,-1,-1,1,-15
1570179110378008,-4,0,0,-1,0,-2,-3,-7
1570179110406920,-4,-1,-2,1,0,-1,-3,-4
1570179110406920,9,1,-1,0,1,2,3,40
1570179110407917,-3,-1,-1,0,0,-1,2,-5
1570179110407917,3,0,-2,0,-3,-2,-5,3
1570179110413902,2,0,0,-2,1,0,2,1
1570179110413902,-6,-3,-1,-1,-3,0,1,-17
1570179110421881,-1,-1,-2,0,2,-1,0,-5
1570179110421881,1,1,0,0,-1,0,-2,5
1570179110436839,-3,-2,-2,1,-2,0,-4,-9
1570179110436839,-1,-1,0,-1,-2,-2,0,-12
1570179110437838,0,-1,-1,0,-1,1,0,-3
1570179110437838,-4,-1,0,0,-1,-2,-3,-16
1570179110458781,-5,-1,1,-1,0,1,0,-2
1570179110458781,-2,1,-2,-2,0,-1,0,-7
1570179110459779,-2,-1,-1,-1,-2,-1,2,-3
1570179110459779,2,0,0,-1,0,-1,0,1
1570179110473742,1,0,-2,-3,-1,0,-1,1
1570179110473742,-2,-3,-1,0,-2,-1,-2,-2
1570179110481781,-2,-2,0,0,-1,-1,-2,-4
1570179110481781,-2,0,-1,0,0,0,-1,-3
1570179110496679,2,-1,1,-1,1,0,-1,5
1570179110496679,-4,-1,-1,-1,0,1,0,-13
1570179110497676,3,-2,0,-2,-1,-1,1,3
1570179110497676,-1,-1,0,-1,-1,-2,-3,-1
1570179110518622,1,0,-1,-1,0,-1,2,2
1570179110518622,-2,-2,-2,-2,0,0,-1,0
1570179110519891,-1,-1,-1,-1,-1,0,-2,-3
1570179110519891,2,-1,0,-1,-1,1,-1,3
1570179110533581,-1,0,-1,0,-3,-1,-2,-4
1570179110533581,0,1,-2,0,0,0,3,6
1570179110541561,-1,1,-2,-1,1,-1,0,3
1570179110541561,-1,-1,-2,-2,-1,-1,1,-2
1570179110564498,-1,-2,0,-1,-1,-2,-1,-4
1570179110564498,2,-1,0,0,-1,-2,3,3
1570179110565496,-2,0,-2,0,-1,-1,-2,-6
1570179110565496,0,-1,-2,-1,-1,0,1,2
1570179110579458,0,0,-2,0,-1,-1,0,2
1570179110579458,-3,-1,0,-1,-1,0,-2,-6
1570179110579954,-1,0,1,1,0,-1,0,-2
1570179110579954,-1,-1,-1,-1,-1,0,0,-2
1570179110593594,-3,-2,-1,0,0,-1,-1,-3
1570179110593594,-2,0,0,-1,1,-1,-2,-10
1570179110601400,-1,-1,-1,-1,1,0,0,-2
1570179110601400,-3,0,-1,0,-1,-2,-1,-3
1570179110616359,1,0,-2,0,1,1,-2,-3
1570179110616359,0,0,-1,-1,-1,-1,-1,-2
1570179110617357,-1,-1,0,-2,-1,-2,-1,2
1570179110617357,1,1,0,1,-2,-1,1,3
1570179110639300,-4,-2,-1,-1,0,-1,-4,-8
1570179110639300,0,1,0,0,-1,-1,-2,-1
1570179110640296,-2,-1,0,-1,0,0,0,-6
1570179110640296,2,0,0,-1,0,-1,-1,4
1570179110662238,1,0,-1,-1,-1,0,2,0
1570179110662238,-2,-2,0,0,0,-1,-2,-2
1570179110663235,-1,0,-1,1,-1,-1,0,-2
1570179110663235,-1,0,-1,0,1,0,0,-3
1570179110685176,1,1,1,-1,-1,0,2,4
1570179110685176,-5,-2,-1,-1,-1,0,-2,-5
1570179110685176,4,0,0,0,0,1,2,6
1570179110685176,-3,0,-1,-1,-1,-1,-3,0
1570179110699138,-1,-2,-1,-2,-2,-2,-5,-19
1570179110699138,-2,-1,0,0,1,1,1,-1
1570179110700136,-2,-1,-1,-3,-2,1,-1,-1
1570179110700136,1,1,0,1,-1,-1,1,1
1570179110713308,0,0,-2,2,-1,1,1,4
1570179110713308,-1,0,-2,0,-1,0,-3,-1
1570179110722079,-2,-1,-2,0,-1,0,-1,-6
1570179110722079,0,-2,-1,0,2,0,0,-4
1570179110737213,-5,-2,-1,-2,-1,1,11,-3
1570179110737213,-1,0,-1,-1,0,-2,0,0
1570179110737213,-2,1,-2,0,-2,1,2,3
1570179110737213,-1,-1,0,-2,0,1,-2,0
1570179110758979,0,0,-2,-1,0,0,1,15
1570179110758979,1,-3,0,0,-3,-1,-1,-4
1570179110760122,1,-1,-1,-2,1,0,1,1
1570179110760122,-2,-2,-1,0,-1,0,2,-4
1570179110773939,-1,-1,-1,0,0,-2,-4,-4
1570179110773939,2,-1,0,0,-1,0,2,12
1570179110781917,-2,-1,-1,-1,-1,0,-1,0
1570179110781917,0,0,0,1,-2,0,-1,0
1570179110796950,2,1,1,1,1,-1,-1,1
1570179110796950,1,-1,-2,-2,2,1,-2,0
1570179110797875,0,-2,0,2,-1,-2,-1,-4
1570179110797875,-1,0,-3,-1,0,-1,-2,2
1570179110818863,-3,0,0,-2,-1,0,-4,0
1570179110818863,-2,-2,1,1,0,-2,3,-3
1570179110819862,0,0,-1,-2,-2,-1,-2,2
1570179110819862,-1,0,0,-1,-1,-2,-1,-2
1570179110833779,1,0,2,0,0,-1,-3,-2
1570179110833779,1,0,0,0,-1,1,0,-2
1570179110841756,0,0,-1,-1,-1,-1,-1,-2
1570179110841756,1,-1,0,0,0,0,-1,-1
1570179110856721,-1,-1,0,0,0,-1,-2,-6
