timestamp,emg1,emg2,emg3,emg4,emg5,emg6,emg7,emg8
1570179095597412.0,35.424215045673996,24.17795842409201,9.433346371323955,6.333977998357025,8.872556969532056,4.773321796123969,5.450767353721872,6.90669079435575
1570179095597412.0,28.915493111061558,20.411599526107686,7.520039155347974,4.834204931353332,7.22625047271578,4.361563086787377,5.645610436271672,8.04603788011043
1570179095598409.0,28.84651928095437,20.43231729768687,7.484937551288729,4.69017043956946,7.173558727282516,4.3063696146556,5.701970157144427,8.06740379789751
1570179095598409.0,26.78174275077347,19.257891840431153,6.866710156539477,4.181252015160468,6.6276198844734155,4.153411543735078,5.80870102383417,8.50253358543567
1570179095598409.0,26.863178886437122,19.351991387590935,6.868758530052375,4.077149616018314,6.609052900902157,4.124042972045195,5.871921466268808,8.567269493306675
1570179095598409.0,25.75973265863473,18.73497392886005,6.525730115907259,3.7657311419431947,6.292852858128486,4.039012472724155,5.963474446274199,8.885416938036647
1570179095601436.0,25.956551275124273,18.88631279100701,6.557901110856274,3.6844436976432493,6.293141114607576,4.027675536429181,6.028002429414705,8.976899687295925
1570179095601436.0,25.30043284168029,18.52903381213499,6.342969671819603,3.4576491976027817,6.0771167269239825,3.9758098052055115,6.111701823706512,9.251454619435304
1570179095612372.0,25.57482190378841,18.72450478348334,6.395819072279061,3.3977413902934215,6.086795326218565,3.97770879725367,6.175834713550951,9.367425417988873
1570179095612372.0,25.18332228410144,18.5233021955247,6.253422172481865,3.228192508628294,5.928693799583693,3.947108663514138,6.255994036459854,9.629415915476041
1570179095616361.0,25.52417977294393,18.75022076621625,6.322303664672126,3.189461208881418,5.949896532787584,3.9571955465451936,6.322022482876094,9.76547834487139
1570179095616361.0,25.315740887545324,18.64718612999211,6.231619272042959,3.0591453866465255,5.834604236176036,3.9384110028912063,6.402412453075899,10.021066865095781
1570179095627886.0,25.7006668300797,18.890620729018092,6.313870070891721,3.040957792741958,5.865636964071346,3.951680086163228,6.4731121518893096,10.176106067193972
1570179095627886.0,25.615825641170954,18.850652156002255,6.25822291841115,2.9440032042625193,5.777972765358373,3.940065575173101,6.556816235415247,10.431678631446362
1570179095640297.0,26.039484503704692,19.103819147060353,6.348557487869504,2.942289286673524,5.813502938715205,3.9545060694621093,6.632209535665129,10.598107460353484
1570179095640297.0,26.054441895674103,19.112757114719003,6.31940573338001,2.86619711742482,5.746047932683854,3.9463565217745624,6.71931143019423,10.848181818243441
1570179095647303.0,26.508899805946356,19.37747800581987,6.418683374041192,2.872892322307614,5.7890660815357755,3.963695951239913,6.798768995517534,11.016805205062735
1570179095647303.0,26.60744074150468,19.429514476829358,6.4118458993731124,2.8113731892373988,5.741462722633014,3.9659015602862833,6.885989682592368,11.257394809041784
1570179095670218.0,27.09834235341119,19.70666113511942,6.515396653837212,2.8226816737991163,5.788357806679902,3.9918850909415546,6.9625586801340225,11.430545993242267
1570179095670218.0,27.267364202578612,19.78966616601855,6.522569532839351,2.7700459002713536,5.753116546011344,4.001185561340096,7.044539832589288,11.675945862888469
1570179095674206.0,27.7859083276153,20.078775205435573,6.632134151062539,2.7892323217544974,5.805073783680287,4.0296521077825656,7.119694452323744,11.863713719798632
1570179095674206.0,28.013075672673875,20.201032237354312,6.656139731504298,2.7535126218436794,5.781715474349212,4.0451674522171475,7.200126124062737,12.114072555470733
1570179095685210.0,28.554217290177924,20.509850436717457,6.770199831432986,2.7830294177541473,5.8358791262397185,4.0821107346562036,7.27379830593455,12.308540726289914
1570179095685210.0,28.826356588298285,20.660800618452065,6.804066183462073,2.758525381960051,5.82149301160783,4.107079916217772,7.357396407706442,12.556885836655958
1570179095725070.0,29.384980073176163,20.98008870695263,6.919893830963474,2.7952459727565633,5.879685646834763,4.149564536264319,7.438670198819918,12.754801839393046
1570179095725070.0,29.700616879773598,21.155677259539925,6.961718589817133,2.782640510319307,5.874892466874338,4.18131725656126,7.526263144520601,13.006678601673036
1570179095726415.0,30.277969839798256,21.484263599643985,7.077547380856753,2.8286968288077055,5.933263171960431,4.228903566583635,7.608531354923359,13.215967248065986
1570179095726415.0,30.622500557317295,21.677730602104877,7.125746181292221,2.8278119044632213,5.929676665896757,4.26386484847503,7.6953776921620936,13.476086544719378
1570179095730058.0,31.19675578965522,22.009704937237277,7.243968394579305,2.8824425022903677,5.98607162809875,4.311889816850728,7.775575255242547,13.696816089466873
1570179095730058.0,31.548112330115917,22.213201252968165,7.2961093751209605,2.892486171009882,5.986758193194354,4.348317514303051,7.858882733336702,13.96376371104933
1570179095731055.0,32.113357724467896,22.54115054940576,7.405269819416892,2.952540508073714,6.043269708468553,4.397331861843039,7.935983215487479,14.191739561630085
1570179095731055.0,32.46598582165182,22.737055850539583,7.444446366712735,2.965750815878656,6.0471961625725905,4.436095887647849,8.01492071680105,14.459054332258694
1570179095736041.0,32.98668943784005,23.03761084717705,7.529779437389458,3.0222505381928237,6.1031449639897755,4.485708389045051,8.08483378296884,14.680101478120756
1570179095736041.0,33.279341122552516,23.21619233294942,7.55512548226654,3.035723694454509,6.109283502812875,4.52202150801842,8.154856312238904,14.927835142702955
1570179095745017.0,33.72848733956263,23.496472702856593,7.63632234520841,3.090706493466707,6.163587706488938,4.56434020917678,8.218274806229616,15.13601793689284
1570179095745017.0,33.98073899119808,23.670250993979785,7.666386112083166,3.100822840991586,6.1692346413426336,4.590678976028838,8.280030199907616,15.375213542973812
1570179095751003.0,34.40195627104633,23.94622719059823,7.742430347802267,3.1466264306014815,6.2194316490490165,4.621780347043833,8.33432087677478,15.580534106268612
1570179095751003.0,34.64626028358098,24.117069181391788,7.768473992113649,3.1517598130047197,6.225883011282523,4.642968140170817,8.393890307115665,15.826612623413142
1570179095767955.0,35.01883482449037,24.375323847431805,7.849360984147565,3.1963314900249715,6.277505488398602,4.675207417870686,8.452127007946086,16.047214155302377
1570179095767955.0,35.23363309844518,24.535532697374343,7.888561598788243,3.2051490797461044,6.289957947544286,4.700321946639227,8.518408478738566,16.308455177396084
1570179095773939.0,35.63257369977443,24.7861239186831,7.970101279012558,3.248945990951219,6.34683120177422,4.736965250136399,8.587029806830325,16.551714992147595
1570179095773939.0,35.908322015398724,24.940705745102324,8.006992883900422,3.2584760616948425,6.363495214549308,4.76816235744452,8.659880507286882,16.823633523020735
1570179095796878.0,36.348130689233585,25.155433522876585,8.080594607290672,3.303496136215265,6.418630682861363,4.80920710715269,8.727560644999745,17.060489797296267
1570179095796878.0,36.676443712584366,25.25827334382449,8.108037457578574,3.3181502757414894,6.434724276471444,4.841879683169144,8.79746226790669,17.323963751893594
1570179095797876.0,37.13791091187843,25.40880735951366,8.16983207426514,3.3663406524222967,6.4866391265105,4.882168716882236,8.864696843322854,17.561895323504874
1570179095797876.0,37.425672973995965,25.44024955109708,8.186160114629256,3.378871489108566,6.500306243378638,4.914568980805491,8.935728100482773,17.82891653373762
1570179095810876.0,37.77541708461561,25.526741335645024,8.228376169023017,3.414489614824621,6.548019363822099,4.9512430582544775,9.002570352318497,18.08059378717976
1570179095810876.0,37.95604820218208,25.535824648088447,8.230089501538012,3.417349737786098,6.562522122352553,4.976310975114309,9.0715858857524,18.369073261151858
1570179095818835.0,38.23966378390534,25.60189077392403,8.27232303405122,3.4525361875140854,6.616754916403654,5.00959243573369,9.143199667056063,18.644349181546854
1570179095818835.0,38.41699734257421,25.595290758332155,8.280599438297914,3.4608242922557086,6.6420790723154015,5.039110215353589,9.22419416648118,18.955015840047015
1570179095833881.0,38.7363337471772,25.665026761319528,8.320850157035895,3.4948940754566884,6.702308194617314,5.076450518712954,9.305921504305129,19.25088342858962
1570179095833881.0,38.978543633366044,25.666085231126086,8.335363641895178,3.5005653624065034,6.730370876805601,5.107314010861918,9.391873018371788,19.57444688740873
1570179095835060.0,39.31851616966727,25.719705551369255,8.38462090352512,3.5347825796829926,6.787877918731165,5.143571437797802,9.476738462121231,19.88211717296026
1570179095835060.0,39.53579267563941,25.72054759022253,8.39974240990013,3.5423793369361367,6.8079200634120145,5.167748398336391,9.563355665688697,20.212847988025533
1570179095856718.0,39.872977875516206,25.812768294905712,8.431355590271627,3.567674697482817,6.846250833751488,5.18677408242984,9.638436911903836,20.511369183257134
1570179095856718.0,40.14466262970455,25.87003071680615,8.4301903907087,3.565752324624537,6.848273779351483,5.193313765426494,9.708569893265588,20.82420420098346
1570179095857747.0,40.510700050824795,25.99672867275296,8.466689470244452,3.594914353119117,6.882300165018371,5.208624231081139,9.781466698701305,21.130337976096012
1570179095857747.0,40.761963460151534,26.071316335967975,8.486383078001394,3.6061173100718156,6.890085176487092,5.218025037519723,9.863255798218,21.468243636845866
1570179095870681.0,41.103854118256805,26.202371837196477,8.538818665114563,3.6432775962442547,6.925955530972023,5.23217761744427,9.943756443389672,21.792807407839693
1570179095870681.0,41.36107583970058,26.263730140549566,8.558400577378949,3.6594258467701684,6.935932142784776,5.242954061535768,10.023276158143624,22.135882877705054
1570179095878661.0,41.64072225880945,26.32139611020771,8.576734744285087,3.69730967389073,6.973051101745453,5.256807963488835,10.093388173826385,22.455768474453926
1570179095878661.0,41.77672362497427,26.28896786415143,8.542287798211298,3.7077438315722175,6.978445591583579,5.256997502605722,10.154867206842338,22.78952858954566
1570179095894617.0,41.97540510509236,26.309004526524237,8.51169610205258,3.7312237766405687,7.002766533300326,5.254248484986911,10.202108540444247,23.09995279776913
1570179095894617.0,42.07666611024381,26.277802241505825,8.44809727030709,3.727823337196144,6.998093178008842,5.23983591669842,10.235519582450339,23.41036690717618
1570179095894617.0,42.175944710791086,26.29881436288591,8.411934928825683,3.7419799786797268,7.020056734324275,5.227170521204993,10.247730601011895,23.69498299236906
1570179095894617.0,42.1234047150508,26.29107430644741,8.365953579255853,3.7368001910982276,7.018294624591183,5.211378192135579,10.251265557010186,23.9978735720529
1570179095916558.0,42.12060782193774,26.351185319764888,8.345100971518306,3.7485811128045845,7.038422189967951,5.201392062511424,10.260792931397477,24.28395141996152
1570179095916558.0,42.033234525032476,26.37046971665738,8.31185367253958,3.7370439646044176,7.031394027301734,5.184523009536819,10.284268777899403,24.547538972586505
1570179095917721.0,41.91775974231364,26.39313325381355,8.309744678541735,3.7419022398171204,7.046310379091799,5.173045912259694,10.311209521803812,24.699357180944368
1570179095917721.0,41.67516517401084,26.349727116193506,8.296660695427912,3.728675666201534,7.038181939870005,5.154907977664281,10.340706673899819,24.78735709363293
1570179095930521.0,41.503373167341486,26.37639465151225,8.31372308927895,3.7375156242635397,7.055898525600425,5.137671117301263,10.363057896329774,24.882553424878296
1570179095930521.0,41.26395027861035,26.382598970288225,8.319104989625732,3.7335052861767255,7.054728837857831,5.120149335778663,10.380704515060767,25.031419330483768
1570179095938502.0,40.99319414456129,26.39351829111026,8.333028391707128,3.7449943243535397,7.076468703468729,5.113850376378593,10.392893996668917,25.174356481685777
1570179095938502.0,40.622855159392564,26.338859581709286,8.309070617252038,3.7351366642887593,7.072524126548944,5.105207648029891,10.410361980978657,25.32530133219351
1570179095962438.0,40.393765256239156,26.362349669039244,8.290295831106665,3.733467714968517,7.080915575238193,5.0924885499642025,10.433809783074372,25.463130349686708
1570179095962438.0,40.228411466799294,26.40890127760595,8.252171224878149,3.7048192107392572,7.057808260163754,5.0636956922100085,10.453370585826688,25.59980193923928
1570179095963435.0,40.19762847373054,26.543922163750675,8.23794664533571,3.689067558541426,7.05408538637669,5.039123742216022,10.464258969478731,25.710163188308258
1570179095963435.0,40.21803071488588,26.684497089510597,8.219749419482513,3.6663660365718207,7.037039380314946,5.01619036825705,10.471979696981865,25.816265082423065
1570179095976745.0,40.38699127433973,26.869389172826903,8.224461196550582,3.6721755105130183,7.046720846328912,4.99678323650293,10.467154426397816,25.893761047296167
1570179095976745.0,40.55082484810618,27.004703270526075,8.215094100591406,3.6712654943173515,7.038961428428634,4.9740436598144635,10.45180125319407,25.906371198137652
1570179095977396.0,40.757995318561804,27.164793125941806,8.230528478204945,3.691310123847625,7.0528750538686005,4.959302806592266,10.412519507325344,25.796286305752144
1570179095977396.0,40.898469552730575,27.26704334451448,8.249203798793898,3.7042961265866854,7.046390969856079,4.939974443234696,10.350631088630246,25.627239313632302
1570179095991358.0,41.060254798813354,27.357883742784267,8.291830678448997,3.739639950884421,7.056188513732732,4.917468093877821,10.27920168885332,25.408217336230344
1570179095991358.0,41.160897258129374,27.398705261818726,8.322518298345441,3.7661989668379974,7.047090787118436,4.889330698905633,10.209616512747463,25.166331812568227
1570179095998340.0,41.25158105670454,27.483586981914033,8.370983818891558,3.8117242902509285,7.058152936375931,4.873226407370887,10.131862272595649,24.898388020670037
1570179095998340.0,41.28302182110676,27.577756825394744,8.40702073774419,3.8448991278970595,7.050053455889678,4.862314830823302,10.037990921035128,24.59339203352148
1570179096014298.0,41.41980094621328,27.72173749688285,8.45618347835814,3.8912390917442763,7.061671367746212,4.861383029980458,9.94010739311697,24.280658862368874
1570179096014298.0,41.54848715567983,27.78246196776487,8.471505174466682,3.923580572330915,7.05640633283922,4.8616368386267,9.85551803398076,24.013133285394407
1570179096015295.0,41.655965843272206,27.755019792488344,8.459804169538963,3.9706910586737325,7.0664564611212155,4.8670067384473885,9.777457302401709,23.771804906011656
1570179096015295.0,41.680414570590074,27.628322463106073,8.416880332404379,4.001073435006427,7.0547432221851105,4.865352994408454,9.698886498326626,23.568091194086
1570179096036239.0,41.707588446563044,27.525251642747104,8.390313599378203,4.0340758925184605,7.059089750425143,4.863762249497053,9.614092833015134,23.39419312320032
1570179096036239.0,41.61517124165963,27.388894575404024,8.349814580266727,4.035106078158071,7.042296018831057,4.85959939304818,9.524085301872555,23.198365643310865
1570179096037690.0,41.47265226211701,27.257670378158945,8.300542096335196,4.020859046534811,7.0353803294350215,4.856390502554472,9.437350317154698,22.910073113245698
1570179096037690.0,41.297982019672084,27.13278275948864,8.232458253117574,3.9833539747643565,7.014409597888728,4.846687519741023,9.369603784448342,22.586699149341694
1570179096051199.0,41.23625925495587,27.08945057472577,8.190532115771573,3.968402181056426,7.0232729292783205,4.842635333780195,9.312842274960738,22.276214303117662
1570179096051199.0,41.2709004788033,27.07350575519078,8.156532897044682,3.951912171546756,7.024630377888797,4.840114647444464,9.272667375580513,21.981943652466388
1570179096058487.0,41.43876889507096,27.095791835756863,8.13943840841456,3.948219434940187,7.046197283707271,4.847085805818818,9.256414977353067,21.706340780785617
1570179096058487.0,41.63826368067374,27.062898900466077,8.10296904642693,3.9337513802088653,7.0524076489067395,4.853504557822519,9.260387436523423,21.487380281895565
1570179096074137.0,41.92192103810833,26.996741339789285,8.05218178765729,3.92745655043207,7.070037409549903,4.855148492797603,9.271240415811404,21.310105780834206
1570179096074137.0,42.171627442324265,26.866444031821356,7.9729546713282575,3.906112178025064,7.067937147188739,4.844557674956154,9.286770522394454,21.139876041415008
1570179096075135.0,42.405774289992316,26.71625603801591,7.895404584917521,3.8935931674271678,7.082839475526672,4.834948792805314,9.309640044954872,20.943511717046917
1570179096075135.0,42.6771276784599,26.5416690287044,7.820468429761274,3.876304781457402,7.083945903364956,4.8231467305465,9.336227736300454,20.732659633948753
1570179096097076.0,43.06090056680493,26.37150021765303,7.750043924152172,3.8721061544636286,7.100632382006114,4.816692197281098,9.34772939237392,20.528836072223847
1570179096097076.0,43.38046205776551,26.10275713928308,7.641809075509405,3.8533969395707333,7.0965474685987555,4.8093486582311,9.345101578313574,20.317336840274937
1570179096097076.0,43.59954704803754,25.770144097720248,7.529424882717256,3.841369934464645,7.10226112787096,4.810861298966764,9.33263004368619,20.067416578681524
1570179096097076.0,43.712564710164884,25.400045720942227,7.432670714637437,3.82423342336138,7.094700219173634,4.81934229524512,9.317924469206579,19.812248988629964
1570179096111038.0,43.828103400348084,25.039307857202097,7.372747281051298,3.8237631664469776,7.1075182902364435,4.837753729323003,9.307881700121403,19.578757678697222
1570179096111038.0,43.891967191596265,24.678854182056778,7.331272451344813,3.8230774914748604,7.1096499569115,4.8554553940117735,9.294616326025542,19.362728743991298
1570179096118020.0,43.88062674545564,24.336041222591554,7.315780398475666,3.8379221247265956,7.1236224371653565,4.870777919238319,9.256840379524046,19.134526188118468
1570179096118020.0,43.758456267744926,23.97423959978839,7.293034900902464,3.8403901914520415,7.114091792828563,4.870396087696273,9.188124134640077,18.887011536576477
1570179096135972.0,43.624071919921604,23.65042401057057,7.261100797231478,3.8407962062402383,7.1134824232951175,4.864526964052295,9.09589813419987,18.610270916484552
1570179096135972.0,43.51027778838271,23.371977940951123,7.220597351593702,3.830227291667155,7.102471957889935,4.856080817257795,9.005574648251777,18.324655983883577
1570179096135972.0,43.432671297194275,23.1295984750271,7.191432037625211,3.8335901621918205,7.110941684934262,4.8549260502107625,8.931306253470705,18.06064020537804
1570179096135972.0,43.32577644434146,22.847128494391324,7.15241029370355,3.8328676762431755,7.105710891486072,4.857930670296055,8.874776589130867,17.827851295161473
1570179096156945.0,43.26201476286301,22.583700432747136,7.11882739348307,3.841867104439368,7.11126498204383,4.866347893421019,8.826045379806326,17.632000507452542
1570179096156945.0,43.2554538217604,22.373579295527403,7.0760609933007155,3.8364092378525827,7.098957048863805,4.868145953331623,8.773829583186647,17.467444614921842
1570179096156945.0,43.31540837819099,22.248857609285846,7.020775628283925,3.8245280366668912,7.098373217894578,4.868501048056128,8.71311309657334,17.313124647419762
1570179096156945.0,43.4076760025329,22.157879400404703,6.944744281730012,3.7936722992281617,7.085697713524525,4.863000291178701,8.647855132213397,17.19354749066871
1570179096172873.0,43.508184369294355,22.090080962179794,6.864986369812811,3.760692622710986,7.083466755706016,4.855818997232117,8.579027516169457,17.12462646378027
1570179096172873.0,43.499829896036374,21.999373304066225,6.77714933627573,3.7195520972245135,7.062684938686399,4.8435540893547016,8.51930689153199,17.10218867645275
1570179096178857.0,43.364520876657,21.90815186822787,6.699143852615067,3.694553820836416,7.052180111609944,4.835913148176334,8.469940357881478,17.10587854327003
1570179096178857.0,43.18024821069663,21.83052145852329,6.618203675759377,3.6638282617282028,7.025795343846603,4.827197141589101,8.428375998457785,17.0944615128464
1570179096193817.0,43.05771285329813,21.81344850397073,6.539631009599822,3.6255766654294517,7.010644923367621,4.820300008197924,8.396156995802249,17.0305720636065
1570179096193817.0,42.96074314323454,21.83418413905701,6.455231247980697,3.5720788900997,6.987496964726334,4.814183731215945,8.372663286266588,16.94255281299694
1570179096194814.0,42.855028936923425,21.909238001556677,6.3799842434795915,3.526715616438803,6.982275592693515,4.814738780666324,8.350566071848696,16.860126062519313
1570179096194814.0,42.738532700662375,21.98451938119348,6.309372289320237,3.4779292696491764,6.966569090953414,4.814931773556458,8.332115956700926,16.7758916660351
1570179096216755.0,42.629831281658504,22.04881966490327,6.249591575603151,3.4389475153897684,6.963714520324474,4.821008616792315,8.315044570904032,16.671657431175536
1570179096216755.0,42.55164978923233,22.08200508008513,6.192393236260106,3.3958234677137327,6.945332587443878,4.826483126850831,8.30086057798267,16.559724498739733
1570179096217753.0,42.52008873115979,22.113373422630275,6.143742886120318,3.356770924342473,6.940079444013479,4.834504469455187,8.287936479993318,16.443496132527113
1570179096217753.0,42.500815590298224,22.141562533036996,6.0923670878457505,3.3104518578002224,6.926671204918365,4.840538560761333,8.274103790210486,16.34560942691967
1570179096238698.0,42.448135088724634,22.14924529747386,6.036599225333285,3.2721098533454063,6.928440716546223,4.850996492986943,8.264640020635472,16.290393625139092
1570179096238698.0,42.30271731180924,21.996749777782803,5.94970869293057,3.2366109957480043,6.926512573273068,4.863189408245759,8.269859931626536,16.26212418367702
1570179096239694.0,41.9884296631371,21.65232213405632,5.840034870117018,3.216444411258439,6.947640506401361,4.879052980496241,8.281400178181121,16.205439245146437
1570179096239694.0,41.519506599724224,21.224149301359414,5.7287464294156125,3.1958668855990666,6.962112407000671,4.8917575385100145,8.300771412429258,16.11014671109651
1570179096255651.0,41.04420756691162,20.859189706775222,5.6413778313822585,3.1835951742675612,6.99076582824686,4.909510137548669,8.332055136753954,16.01692611706035
1570179096255651.0,40.620077383338305,20.54040559120086,5.560957184690735,3.1615344253455504,7.0099343000176795,4.927381983294151,8.366665288492875,15.969170277226231
1570179096256652.0,40.21871082806748,20.232256885690173,5.482658796654632,3.1403570088504016,7.04359360734288,4.949933831467242,8.400505807224146,15.974389191506528
1570179096256652.0,39.87626565731575,19.942942152866237,5.404239757280222,3.115645596147669,7.068361777536576,4.975321285560663,8.444297317815927,16.02805906575398
1570179096276678.0,39.56710260200813,19.71658835048081,5.342444801613188,3.1040741918059966,7.105893644214236,5.006118105948242,8.495407425738353,16.11672067709417
1570179096276678.0,39.30552792584053,19.541181778449115,5.289212177694822,3.0941463958182194,7.132332993883006,5.029969547833236,8.54782337835411,16.24570139024296
1570179096277593.0,39.149001276330004,19.422247192161667,5.248872822145194,3.0986427294241117,7.172663505593904,5.049540105195413,8.59285295100229,16.40874737150117
1570179096277593.0,39.07507425388165,19.321080308502825,5.2146001386083505,3.1032941016114344,7.20508144684626,5.066659038460903,8.633677066524996,16.58105279716565
1570179096299535.0,38.93390705946805,19.194163866568214,5.189759592680052,3.1178333786381893,7.2513399305571,5.089482860083741,8.674452164313948,16.745465619851515
1570179096299535.0,38.66535229569523,19.001058964028818,5.159565578161265,3.1287765012276063,7.285842098998596,5.109435639986775,8.709928698498272,16.91550439164418
1570179096299835.0,38.32527611711317,18.797361729812792,5.143226799862526,3.1482664132123155,7.33123565909439,5.128179287059416,8.73917110789177,17.024330397371873
1570179096299835.0,38.05353420391296,18.604627625678553,5.133850422379911,3.1630145342743945,7.365686300279314,5.145423002690884,8.77440278779568,17.028355218725615
1570179096314495.0,37.89111018992557,18.422843143678826,5.131668716241037,3.1828366736339655,7.409926604317781,5.167150943585412,8.812602616068821,17.010656458057927
1570179096314495.0,37.81028380417752,18.244519921862896,5.122074287514092,3.1882991154067315,7.443095936046443,5.187073555577645,8.851134210427032,17.03093613777125
1570179096314950.0,37.696710410053356,18.060499702247217,5.105957267790271,3.190608777270956,7.488199457614391,5.209567145261561,8.887063862800632,17.07582169411287
1570179096314950.0,37.5186828203386,17.843525600466357,5.073396552007166,3.1860420815800827,7.521195457941216,5.226002247777134,8.903728078005333,17.143840855746177
1570179096336562.0,37.30121197973833,17.599758023191303,5.037608679071073,3.1875911559302756,7.560841049294574,5.2351769748748875,8.876457270067977,17.207561361125798
1570179096336562.0,37.07475850983572,17.317182633911067,4.989827421235653,3.1794391544055496,7.587696821563761,5.23823345865745,8.807475828329057,17.21718802102837
1570179096344507.0,36.86385423360208,17.063024024827158,4.947877221426187,3.174877732751013,7.6261694318423725,5.246351641799719,8.73010341465975,17.178588517719657
1570179096344507.0,36.67529791286166,16.84001892491493,4.907346743025344,3.1632931070137804,7.652208707988149,5.2522187857006335,8.679839997834158,17.135909642942718
1570179096359376.0,36.40085597579511,16.61340406517352,4.874983863433051,3.157862397182515,7.686439090829634,5.256770988411973,8.654141392137205,17.07487469658796
1570179096359376.0,36.08533071221603,16.380747215245066,4.845923928881771,3.149924713074805,7.710314818395724,5.258344736311045,8.638603131435435,16.996140125807493
1570179096360372.0,35.73908962280696,16.172124622980437,4.832647501854177,3.1470372615546243,7.740262260753531,5.260084168485472,8.623866186596906,16.934111537469843
1570179096360372.0,35.35240694625854,15.986560095836767,4.815649725938429,3.132284642910551,7.752540190489341,5.253693324866745,8.602870272370124,16.890113426346822
1570179096374334.0,34.93881245605273,15.839089766339692,4.800378836581978,3.120292237833146,7.775830744145347,5.24764507619369,8.5749766441112,16.82571665543878
1570179096374334.0,34.59560336220504,15.708389484095116,4.780875935706731,3.1043530341107126,7.793982059902013,5.244397038210334,8.5459717086536,16.731944801081625
1570179096381316.0,34.33258458445829,15.605263137748313,4.76821391461108,3.0946920736045325,7.824763857926837,5.244554657614236,8.500108916552419,16.622714078599234
1570179096381316.0,34.13692122599113,15.521269641365572,4.754647263568077,3.0824655746763345,7.847597674995266,5.2406674801247055,8.441111023630487,16.498648077078464
1570179096396277.0,33.92732477048556,15.45467989290621,4.74753631995044,3.078270058934792,7.88136881482882,5.238373953681162,8.391548058069683,16.37249818118845
1570179096396277.0,33.704652757944295,15.392136958802633,4.731738806388747,3.066093135833792,7.904304238148466,5.235039244415827,8.358422022771428,16.258285547122558
1570179096397273.0,33.47516223525949,15.362647492736501,4.7222004165711144,3.0537991238138233,7.938167796961463,5.235722821041885,8.331185938418647,16.161106743175555
1570179096397273.0,33.313054873366774,15.362674868079553,4.711767607326103,3.033609415460437,7.964447861299329,5.236761855699637,8.301784724758443,16.087423918482518
1570179096419215.0,33.207001603627994,15.380976178129675,4.713437872935801,3.0220780981344815,8.002583457556561,5.239926516735021,8.266119908179334,16.032919570903804
1570179096419215.0,33.09953878220261,15.350049865075023,4.714234430898126,3.011736266614089,8.03252445129816,5.242387270536083,8.224570879026338,15.993448972955816
1570179096420212.0,32.907902153917014,15.284359465388913,4.724087142727292,3.0131439411906222,8.07039028830934,5.250364412867445,8.183403878488333,15.97387994847086
1570179096420212.0,32.718120512088475,15.222361140677448,4.734370182114778,3.013627695321888,8.094086439243846,5.257650286131419,8.15866974837937,15.97929861101039
1570179096441193.0,32.54769864693116,15.199899254938348,4.749178710684021,3.014810584354812,8.119614626307834,5.2600908632922065,8.14869473359238,15.968338590869957
1570179096441193.0,32.374857101483634,15.190475540303202,4.749252874465687,3.0025160911584585,8.132186317250897,5.256132902865515,8.147351179258774,15.881500487642999
1570179096449340.0,32.167154466968135,15.193270069586747,4.758894044788821,2.9986298518187735,8.158828962475726,5.260184682830203,8.153886215304558,15.755898221284069
1570179096449340.0,31.984639550593062,15.20392279193126,4.776188118371234,2.993523021262142,8.179360746227058,5.267407707022219,8.164691838044703,15.663194051276294
1570179096457114.0,31.818509688196045,15.256698787728014,4.807003461301056,2.991149070755383,8.211587384789354,5.277369279288268,8.175572657090768,15.620910968571904
1570179096457114.0,31.720780967536193,15.338010344185088,4.834557644824621,2.9819185957132115,8.235252820339698,5.285690353622761,8.189440394427264,15.61040487026291
1570179096457114.0,31.715179587332162,15.462035143946196,4.872277607062622,2.9769530329838325,8.262369485426461,5.289821474153347,8.206936322759839,15.57755693438797
1570179096457114.0,31.837311902582588,15.596703373503162,4.904900998980722,2.9641040905312344,8.276269868035884,5.283688092721677,8.231207364661145,15.469073998613128
1570179096480084.0,31.99412355952989,15.716679564732978,4.940583190029293,2.954783486992975,8.301634640465648,5.27618966841938,8.256799737315555,15.2910294707559
1570179096480084.0,32.118438630948965,15.79493410114991,4.967317825648382,2.943176673082533,8.323449970493828,5.270462479828017,8.284528367456426,15.089666383715281
1570179096481050.0,32.23243142289872,15.888811377071924,5.005533426187716,2.945028594322484,8.360135341053379,5.27348049907067,8.31744368533486,14.913733653433253
1570179096481050.0,32.41467247957731,15.995422752586245,5.044045268642654,2.9465151474759703,8.391601007704152,5.278116475480008,8.353099177115343,14.783760891451887
1570179096494015.0,32.65563187030937,16.114801908402605,5.08894886607249,2.9541976015949634,8.433234898811865,5.283103168068946,8.381955754718337,14.700084318786462
1570179096494015.0,32.98341409050436,16.2282791492209,5.124018280742536,2.9574366555514016,8.461891461445731,5.283775863310665,8.404344321226423,14.664618732797226
1570179096495012.0,33.31681711451874,16.34226214393142,5.157687666074237,2.9592051819016754,8.49354178964511,5.284543129257778,8.416498053130727,14.665638716338437
1570179096495012.0,33.622576526284625,16.428973665693093,5.176546031885443,2.9465888758788523,8.518821301734375,5.28305374596968,8.397996761176817,14.675219949686568
1570179096516990.0,33.91249008291869,16.50923631132025,5.203372143197709,2.938806358244391,8.560275011760252,5.281426715321449,8.344864794714875,14.694201808087303
1570179096516990.0,34.20644782436788,16.55799968853929,5.230203624542348,2.92912818529053,8.59617577962199,5.275207764331351,8.294399590368633,14.731784058598953
1570179096517951.0,34.437886662764235,16.603428931031303,5.266678516428793,2.930070554022085,8.642312451386275,5.2678643739757,8.2682770315247,14.799666376034608
1570179096517951.0,34.681482659930936,16.661493592842326,5.295627534962919,2.929983367012618,8.682079450702615,5.255577260855436,8.260081414088342,14.87256635524543
1570179096538894.0,34.917469113600625,16.73142739896808,5.329227992223047,2.938927947988474,8.730963809176966,5.247198053636524,8.26295170612667,14.913755704671363
1570179096538894.0,35.13256951658575,16.775956817020546,5.361626333089601,2.9483422689634664,8.769773694985666,5.24710761623999,8.277448452445679,14.956103217939816
1570179096539893.0,35.362326454739694,16.797881521794263,5.411004539055148,2.9670252277620843,8.813788478448352,5.256015114640093,8.291947279191037,14.991862641063479
1570179096539893.0,35.59629020119659,16.729862255742344,5.4607696455832295,2.97865166985742,8.842753733048035,5.262303017338193,8.306558287819103,14.96037069610681
1570179096554296.0,35.62909989420935,16.55496709438054,5.513430455808825,2.990607249786605,8.87608831198875,5.271112639093571,8.329851599832299,14.886652411892076
1570179096554296.0,35.466202692432994,16.326912877270924,5.555754839076774,2.996138465061988,8.906792261498778,5.283916823084003,8.358304037678028,14.805830809196934
1570179096554852.0,35.21160761120502,16.122463148653882,5.613489213589402,3.0116207190008777,8.954367669994552,5.303083514542351,8.384537543498128,14.716761359585767
1570179096554852.0,34.957231544668645,15.944535429652129,5.677258167147909,3.025106348362149,8.997167952187574,5.325268725579175,8.411858385107044,14.63902242019716
1570179096576794.0,34.69144360462272,15.815293796363484,5.756094426065719,3.0445758027314014,9.050804691408072,5.354624337089163,8.43964198411529,14.588573023877608
1570179096576794.0,34.48089521113386,15.722817668805577,5.832989851575549,3.057659206926946,9.099308982764857,5.386210108256158,8.46834192990837,14.558951034468244
1570179096577791.0,34.29047080832273,15.671125514798762,5.91714040446208,3.0755946314842917,9.155731487759475,5.4190676818936785,8.494271581999708,14.561181461044473
1570179096577791.0,34.156840506202066,15.617424568287177,5.9959977914408995,3.0901545333485982,9.202752662680947,5.449338582453426,8.522599521765004,14.547951043169947
1570179096598734.0,33.98003577988913,15.549241989429586,6.082122060947055,3.112827418428793,9.257926447698539,5.483782946735828,8.559259599139118,14.461347286126276
1570179096598734.0,33.73430952513592,15.477211643634583,6.157515049663712,3.1274989186468747,9.303703811732625,5.5193656035241565,8.599356422501316,14.33789441621477
1570179096599838.0,33.443229513780594,15.442030293053373,6.231835643714081,3.142094941292127,9.355604092181533,5.556486418714739,8.6379408475067,14.22613306626372
1570179096599838.0,33.177160835747245,15.436502519342126,6.298720417767024,3.15093124119573,9.40086735472757,5.592245964429114,8.675200066073605,14.121318720488912
1570179096622802.0,32.836037356292984,15.482985400292542,6.373598516433107,3.166948450411882,9.457935066442749,5.6317366720296445,8.704723079767705,14.033035720864897
1570179096622802.0,32.45133709068817,15.563444159349014,6.442014744508601,3.1778434505830897,9.509015356110877,5.669835204620229,8.733596715742097,13.985775396945995
1570179096622802.0,32.01667021013368,15.677090299094603,6.515909097288981,3.191525062637075,9.56794026963582,5.707812504083213,8.77007020236384,13.944914771067426
1570179096622802.0,31.584691417210156,15.806390479898395,6.580622875700715,3.1959556704899117,9.623297412522025,5.743036030399187,8.816254663769653,13.835880574055444
1570179096636633.0,31.12919275644863,15.96621486623358,6.641413717842123,3.202649789368251,9.692640453497292,5.778899398877045,8.86900745353328,13.694277595593757
1570179096636633.0,30.712135282877878,16.128037190068117,6.679708693248217,3.1999282772847404,9.754309708715683,5.809884246570084,8.92637638199174,13.570470795192161
1570179096637631.0,30.289087249382924,16.30216551410518,6.715091480868848,3.200813964519381,9.82367633407468,5.838084089264285,8.987487140246092,13.46926691378463
1570179096637631.0,29.90570558739132,16.48450866960557,6.754997308055349,3.201752431424867,9.891050635900395,5.861510261512791,9.055887101389837,13.364058256085395
1570179096659572.0,29.531357254626858,16.698169707832758,6.817825393693947,3.2147725864738486,9.97350328212813,5.886509765513204,9.127327971127261,13.225751227610067
1570179096659572.0,29.206606845665977,16.924115924371826,6.890122669450546,3.2264953435841117,10.052943730427687,5.913127679615149,9.189640807719652,13.077386773624115
1570179096659813.0,28.856894340504898,17.17352553107791,6.97890932785901,3.243286171623955,10.140275269166231,5.941600969873836,9.228187276984908,12.959283153862145
1570179096659813.0,28.479556511266363,17.426079531386577,7.063531507281857,3.256591140724248,10.221211059396976,5.962920082711547,9.252741109646125,12.8698751256472
1570179096674580.0,28.04556571155374,17.672326873606323,7.138088773385165,3.279915844809268,10.314727924637356,5.982117209843916,9.27932770845864,12.78537732220415
1570179096674580.0,27.64776570036965,17.875848065898538,7.18933515471779,3.3010200496943085,10.404623393846693,6.002363663275291,9.302998943954847,12.673332903693948
1570179096674580.0,27.253920344465634,18.0674363970171,7.238651154744854,3.329856291424544,10.504076182640917,6.029216955143035,9.32390688788252,12.544415180300799
1570179096674580.0,26.91136811985731,18.228456699218906,7.272222402158316,3.3576997654084355,10.598850417304401,6.0621163445302075,9.366604709489172,12.391832450914094
1570179096695478.0,26.58429643755038,18.31971735984348,7.291311780389207,3.3941808295220595,10.703308065255301,6.1042017652670575,9.435683614605326,12.207785515669531
1570179096695478.0,26.316059656180702,18.323562531352525,7.299944020545211,3.423041881190415,10.801777107595242,6.150135577318803,9.522120925651846,12.015478193065737
1570179096704474.0,26.007985480538018,18.301810724424115,7.32445568360565,3.44857346922456,10.908078976115823,6.2012156640454865,9.61877002817558,11.845435296264153
1570179096704474.0,25.659228690903685,18.286588621616605,7.345198935221251,3.4657900308390546,11.006474702329863,6.252410421544062,9.724620492198627,11.689528665843925
1570179096719412.0,25.240508542424298,18.28052307128892,7.363669507175644,3.490311828244375,11.11202608679267,6.306144916048326,9.838725455198038,11.544838501703582
1570179096719412.0,24.820834167747172,18.22164667482949,7.384584141558674,3.511611172024874,11.211080875476142,6.361211992371304,9.95890640692006,11.417155596652782
1570179096720409.0,24.378181696046386,18.14303437705017,7.41917354963846,3.5408733752954156,11.317127119737806,6.421238401588185,10.079646910351206,11.312314192756544
1570179096720409.0,23.985334619878923,18.085270377861242,7.45201574371316,3.5692065676539357,11.414521700315518,6.4819672431957915,10.202180614415253,11.209631437284997
1570179096742666.0,23.59696480823884,18.068667015027273,7.495039853288854,3.6028384629490295,11.516216925352627,6.546872438564516,10.326830069928103,11.098530192467893
1570179096742666.0,23.245657906511617,18.093492450629377,7.5453648722670215,3.6283468631200884,11.605715639824831,6.6131574919669704,10.458843603388749,10.971980434359201
1570179096743513.0,22.870652607648076,18.167359235488252,7.610109590758604,3.654195884218551,11.692754116057472,6.68106183358652,10.59761770061394,10.819611602668365
1570179096743513.0,22.5182272535214,18.271599332292887,7.67337986648968,3.671852776349684,11.75856014209869,6.743235177411018,10.73484384240011,10.636548118177508
1570179096765290.0,22.158203637166768,18.41119735571064,7.741152423486478,3.6931658393554545,11.816045511116863,6.801926515630168,10.865685606984583,10.447039588798424
1570179096765290.0,21.83976419800427,18.519631598112582,7.801336030337364,3.7120029632149016,11.860603375980082,6.857245443904618,10.99111252065554,10.258010758937546
1570179096765624.0,21.50050699610213,18.51713396869633,7.853974799164138,3.734591769049099,11.917438709483607,6.914478097740396,11.10936310614622,10.074693747488205
1570179096765624.0,21.17168873460088,18.378436091755784,7.887451597876695,3.7493059196409515,11.971525806863278,6.972644707543422,11.234595861838915,9.901212921068087
1570179096779252.0,20.815612808275958,18.17993769974634,7.905973919263237,3.767238443036538,12.031550644076878,7.0321942961407045,11.374072305486614,9.735376620578142
1570179096779252.0,20.494986651352114,17.977365414350967,7.908188486036065,3.775600928035801,12.083285674658995,7.086994714667936,11.52021250591255,9.555977766667182
1570179096780249.0,20.151249395274544,17.812601993413413,7.910501382440424,3.779529468717996,12.134707619345098,7.136949410877304,11.668318507378471,9.363273087673756
1570179096780249.0,19.82523710429708,17.698928324813604,7.910415984396868,3.773061985659387,12.171372145586624,7.1781191184707165,11.819102835667982,9.151690311330466
1570179096810170.0,19.48734183022738,17.617191457226713,7.913141291289596,3.764806927292416,12.218412908983693,7.221597318708276,11.971117261785981,8.930872459886789
1570179096810170.0,19.181757956559764,17.522522259792396,7.914999435141545,3.747566155878262,12.269062918583279,7.269701461678546,12.128908693994786,8.705468428298445
1570179096811167.0,18.850271375619506,17.4300299863961,7.919186705649594,3.734251188600951,12.332100519852132,7.322278881872146,12.294627454384148,8.484715026105908
1570179096811167.0,18.529325764497926,17.358010607129266,7.908847368611771,3.7181738512686904,12.387233401563625,7.376227757168558,12.46917932773115,8.274200830647152
1570179096824133.0,18.17312225127197,17.317559088603907,7.871427354018723,3.702342080922029,12.436919533571773,7.433026181553041,12.64399487862818,8.08090171641018
1570179096824133.0,17.83959133054151,17.2960142730098,7.804994062133641,3.6811294467560987,12.458266978806865,7.488101441860344,12.821622841664404,7.897495766512773
1570179096825296.0,17.49705438821265,17.315058607381815,7.7365903861505325,3.6623349783452275,12.459948345313368,7.542530194396184,13.010964953826553,7.718036426692926
1570179096825296.0,17.197194732833676,17.360793541114607,7.662252847447428,3.635187224815693,12.447681566180586,7.595565424920997,13.212141826870846,7.537016632816104
1570179096839092.0,16.89206733829878,17.393811456917184,7.585547023224279,3.6089454770401814,12.452805492703638,7.652761448087034,13.419561334142347,7.364173263312341
1570179096839092.0,16.613100929837405,17.351960089367502,7.518982439335893,3.5789546791562423,12.453272667933232,7.704753921614561,13.626603735779238,7.191076538326466
1570179096840089.0,16.30024645081437,17.240805465522477,7.471587990197455,3.555377352886919,12.453245409120992,7.750271226195942,13.816381955568136,7.009731727779484
1570179096840089.0,16.00022438562983,17.107868955989776,7.425304943878401,3.5328196235347074,12.443270788518065,7.790254170701251,13.999184314855002,6.813264063847599
1570179096862030.0,15.675921214315476,16.986711595034237,7.377877789611365,3.518307340657067,12.44624842128788,7.834170092172585,14.200154551529563,6.6135481934915
1570179096862030.0,15.382219395083514,16.876118667738375,7.334750239428624,3.505656335443458,12.457957325531423,7.882841638163344,14.418134105357515,6.423336324927254
1570179096863128.0,15.080843450710397,16.745566169325343,7.295233609956037,3.500048295034076,12.477813651043407,7.932192358908312,14.642731913152426,6.253891974847531
1570179096863128.0,14.805506262941039,16.575745147584435,7.248796068723611,3.4866683381906625,12.477893405109675,7.976304757249335,14.88009948029104,6.108836248982199
1570179096885037.0,14.505803595550358,16.392635523056775,7.198175059694455,3.4669557916574347,12.466252310795475,8.018934897617044,15.130293853376894,5.992143068632509
1570179096885037.0,14.221328436216487,16.201920924350215,7.139329620716008,3.4386405568386165,12.431542924795613,8.055118867564254,15.386759937136029,5.9016965773146435
1570179096885967.0,13.914150202478947,16.041271401610743,7.084850172911176,3.4151466232109993,12.400199547406414,8.092413499105305,15.649769546633328,5.8390810290421316
1570179096885967.0,13.636513720143624,15.916957982564071,7.039246609581318,3.3965020184099273,12.38220182592483,8.139053909453109,15.928401684663214,5.804949615624301
1570179096899236.0,13.349852340841878,15.809805875571762,7.003515871616175,3.39329334775589,12.391344143781275,8.198851482046113,16.22275881330924,5.7929391738248786
1570179096899236.0,13.098029061249362,15.705492989249324,6.982580551591345,3.3969149524721085,12.410133593330313,8.265131754503209,16.532278669544517,5.795245641520759
1570179096900345.0,12.839411330165374,15.617378041880503,6.983080364398886,3.4106736714824266,12.447793627124657,8.339193560878092,16.856799508696493,5.809816731102601
1570179096900345.0,12.621046665038856,15.552915103958204,6.983923584190594,3.418389670143823,12.486340345366322,8.419286081553869,17.195621538119145,5.837164286637007
1570179096921871.0,12.4045443044331,15.51726505377044,6.958026788780185,3.417398922164178,12.530773877459936,8.50754887384405,17.54321483529306,5.875691496617004
1570179096921871.0,12.216860557860116,15.469193434580243,6.904351685151333,3.4023620947243436,12.562949131471646,8.599615689058536,17.901007927058416,5.923819069985333
1570179096922879.0,11.998416072900318,15.36538345781878,6.854750555207506,3.3845477991885935,12.59036185586731,8.698138732402226,18.271369823525927,5.981039355789118
1570179096922879.0,11.783250739334678,15.22419682107653,6.807818339256143,3.3573746763964807,12.602846601942272,8.801092017748841,18.650864354158955,6.0582875643723675
1570179096944811.0,11.54669350567423,15.106777944605811,6.742774316024881,3.3273674608102386,12.607894710248077,8.90712571630665,19.03152500981246,6.157446146190995
1570179096944811.0,11.332406261690132,15.006594621951278,6.6568436799396045,3.2931199023997078,12.590113756166053,9.006937618803356,19.41467537700865,6.277875900821485
1570179096945806.0,11.09805347676394,14.910212337734645,6.561339619848418,3.2705771476697594,12.563606254162416,9.097165437005218,19.79968442797764,6.410968854151966
1570179096945806.0,10.884108588075769,14.826650730450629,6.462186010342279,3.2568009246466545,12.508004784850364,9.173279917606784,20.184660181899144,6.55520096612316
1570179096959769.0,10.665619891118995,14.777310902553271,6.365676273150791,3.253375671516622,12.43060323763454,9.240901244102998,20.576675553532976,6.7101360647972585
1570179096959769.0,10.487579126623082,14.734085797143239,6.272013557082305,3.2489924970958417,12.341191538236487,9.303063673410144,20.98286448157793,6.887542530649494
1570179096966750.0,10.30974686224173,14.680362873204698,6.186857380533299,3.247674647456615,12.254081817238095,9.364463469343294,21.396526031826244,7.083380227888462
1570179096966750.0,10.158673104833133,14.627088138373068,6.114212785725655,3.2418296133399997,12.160679368002038,9.42378877572441,21.806264690425873,7.291754227060878
1570179096982714.0,10.008081716400454,14.602520774576881,6.050350829964127,3.243200420060419,12.086643884238704,9.483502228300111,22.199342381228387,7.497048086646654
1570179096982714.0,9.900740792829016,14.609148769139876,5.9881332506663805,3.2483313032636514,12.02341665643128,9.54263483927843,22.57314153107781,7.693952396607717
1570179096982714.0,9.809219618924548,14.636843059920489,5.931708440000705,3.2635290912493162,11.982773394105402,9.604479983318539,22.9113355556618,7.873038885439003
1570179096982714.0,9.765828422069216,14.662576407322327,5.882302738704053,3.278416742805703,11.948999889101101,9.668554272099124,23.22811041307327,8.04818877881099
1570179097004649.0,9.741842866869264,14.705356976989716,5.837492938393794,3.295351784382169,11.9314348097047,9.742304615971726,23.566423486340295,8.232886117686295
1570179097004649.0,9.761829748671566,14.76977914576124,5.787106154519022,3.3046650406901814,11.924265034299346,9.819485380585697,23.920566991703062,8.436565849291682
1570179097005654.0,9.806225998463676,14.857938198719904,5.735151846572373,3.3135592469665855,11.935651726405109,9.8913069427633,24.2586139596343,8.648186292751406
1570179097005654.0,9.901462502667428,14.94568845309902,5.687715619220737,3.317676640045363,11.955560323066178,9.959463675008166,24.587138859482824,8.870520551105962
1570179097019609.0,10.017801340454412,15.026668007175083,5.640755336016147,3.327273295388187,11.996183622402446,10.036016819140697,24.934734975285583,9.098993039574157
1570179097019609.0,10.17857989716817,15.108770225044935,5.593423569917192,3.33699213348163,12.041746735817435,10.113944189147375,25.288106621012073,9.3364090391176
1570179097019609.0,10.365110695572476,15.226173144192739,5.555058876643364,3.3480502984994334,12.099771395138813,10.183490801981868,25.586604687302962,9.573442635616574
1570179097019609.0,10.593681878695923,15.378645011318604,5.5273662907480166,3.350283677283846,12.157346644188637,10.236073053330204,25.822651788032083,9.809793555397107
1570179097041902.0,10.858466640821199,15.558956721701838,5.512118499498989,3.354833524887771,12.220297404946008,10.272343488599294,26.02056999392708,10.037282751121317
1570179097041902.0,11.175432423858613,15.71523453239736,5.502332906210752,3.356439818718694,12.267545604801889,10.294698477922045,26.203001882785674,10.256372286722664
1570179097043546.0,11.48638727062863,15.80698797394293,5.484700132070786,3.3600282034204723,12.298826431646823,10.299139529304208,26.39535250913226,10.450505393069973
1570179097043546.0,11.77979188248476,15.853557551854182,5.452463943325695,3.357905820467068,12.306895152055631,10.269266499723843,26.53869807190809,10.601612106963364
1570179097063538.0,12.070540516079925,15.93330116507399,5.418390393443739,3.3552140668685757,12.327031255240506,10.218077063971375,26.591548356741946,10.714815422387414
1570179097063538.0,12.408014325934612,16.045047234197042,5.386244616496426,3.3469754999298638,12.36684532285178,10.164352767406792,26.619737714021735,10.821480330856778
1570179097071471.0,12.767796710842088,16.13888973788274,5.361813457313019,3.3413139079153593,12.428678851404092,10.116450846092471,26.64963486941849,10.933745383587956
1570179097071471.0,13.107970861839629,16.15730539645723,5.344616874695889,3.326783438030665,12.493185204003922,10.068450287663179,26.65989045647182,11.063103879675996
1570179097079284.0,13.37749715936678,16.122877852530106,5.338855773891216,3.3100138604793923,12.570970667172926,10.015658738451458,26.638844856301688,11.18532043953086
1570179097079284.0,13.604539109204595,16.075076603156965,5.346546086308706,3.2874794191721404,12.650164753138215,9.9557461525797,26.563223817652265,11.279365171721732
1570179097086431.0,13.803287477540575,16.0431134664612,5.368909276520008,3.267979591082819,12.737740337925839,9.891873729215545,26.4367059095784,11.359006092806515
1570179097086431.0,14.01433199493489,16.037420241973354,5.4005242993312415,3.250916287982385,12.821429636555528,9.828352415065698,26.321539952776472,11.458857607859096
1570179097109370.0,14.241812765117603,16.071885618838518,5.438418761520018,3.238023832642565,12.910460020905845,9.766649786268534,26.242116155023044,11.566591317172279
1570179097109370.0,14.504420312355899,16.13356331400655,5.477477046937491,3.2178625117649404,12.99496019063641,9.697778359715716,26.177105066001758,11.6620864324405
1570179097110367.0,14.72157502968049,16.207178324356306,5.521981317981587,3.2009668840314833,13.086896098754368,9.6192297762915,26.10119949026672,11.72137296312148
1570179097110367.0,14.846067951639485,16.262018014420658,5.5633898837397835,3.1814890229573396,13.177029273706012,9.521854035176094,25.976625042238947,11.735629078937016
1570179097124391.0,14.911351081472347,16.30101494343354,5.596153026344301,3.163727096600122,13.274437667363186,9.400323875685888,25.773177407472268,11.720958797460504
1570179097124391.0,14.991456342987904,16.338789540451653,5.6134809713674105,3.141481275861329,13.366663777394454,9.258122946581224,25.505798187985455,11.708487071372582
1570179097125328.0,15.064056081898336,16.40967693827854,5.621703959783059,3.1270498582029034,13.469327305029134,9.110156687560146,25.184074827651155,11.695735142210088
1570179097125328.0,15.157171359853411,16.515288381423787,5.624304804421779,3.1164231510432545,13.577981223729337,8.965836987405227,24.81169457145446,11.671974651736077
1570179097139289.0,15.254083446682753,16.655859823941785,5.6227012596584744,3.114857244545795,13.702291078188155,8.834421772131956,24.454276806968696,11.648740983056364
1570179097139289.0,15.365363174286857,16.810995837542947,5.620188443249369,3.1166330508496665,13.82765181965729,8.714921539181082,24.143542419123637,11.643522339899123
1570179097140286.0,15.445056473750006,16.92940024537061,5.625588916157543,3.126345784341835,13.95979021052067,8.600128323208539,23.826903984359024,11.64408977024569
1570179097140286.0,15.441745785959881,16.95849588100458,5.62905205502857,3.131253083793936,14.086319677181542,8.491354138190822,23.493418467452653,11.653885659763798
1570179097162228.0,15.325425412767496,16.936515970946157,5.617709203129661,3.133331581258371,14.212823356845055,8.40013670100237,23.204464658673217,11.68575671814815
1570179097162228.0,15.180995271603798,16.911070564983422,5.5904651506297105,3.1282816869041272,14.330120144326962,8.315074847414321,22.974816280940157,11.742042402605694
1570179097163225.0,15.027947671507865,16.901130482764984,5.5682641037495095,3.131562618160932,14.46190242407848,8.231844186579323,22.75134085186799,11.810339604619031
1570179097163225.0,14.890891513976571,16.871923107467605,5.55265371933627,3.140074096406627,14.602800819499713,8.162442811134703,22.530283952778916,11.896589355596463
1570179097185166.0,14.71693217826864,16.79192658192125,5.53295907036728,3.1584695192884693,14.755715073636015,8.116423183686575,22.33916947373749,12.00395912218701
1570179097185166.0,14.528654463839972,16.6758754568488,5.5043471950883305,3.173287535131079,14.904099767202478,8.086532628586554,22.177434430771633,12.138352708030014
1570179097186164.0,14.319956773566185,16.5727443192393,5.46742850144314,3.18893291352521,15.05762118387052,8.067341207595248,22.04615246178374,12.296717612319584
1570179097186164.0,14.127920836345846,16.496662737350302,5.415121483977321,3.2029359382397984,15.211735625092832,8.057367795248027,21.930184550400032,12.459433447272549
1570179097199129.0,13.942886330368212,16.42610945443327,5.34976003940488,3.227167503722351,15.376958662002366,8.055022172796434,21.772532772862522,12.608336393127471
1570179097199129.0,13.776630996693656,16.31318669747727,5.281109011357359,3.2551550784582575,15.538337844654198,8.051183799012271,21.542886673376152,12.769330515857034
1570179097200126.0,13.585516870097953,16.166776264818587,5.221505528783275,3.2908166107303964,15.699174930175799,8.044441447268019,21.27290252567585,12.95848737475852
1570179097200126.0,13.402463327808263,16.00997769680378,5.173143222899085,3.3231692355652966,15.854016084301891,8.037215553115313,21.00434197156386,13.170412004068009
1570179097223065.0,13.207149823985135,15.821130541251225,5.1251963009317665,3.358363055350213,16.02400465672184,8.035093402917324,20.746298941231743,13.387312528194121
1570179097223065.0,13.022323236995156,15.601866964403639,5.064557469883939,3.389013100272144,16.200909475024034,8.039360862741654,20.491968704620856,13.612104764554784
1570179097223065.0,12.834393903646642,15.402253406588638,5.0035893819119135,3.4236329881588157,16.393144188659576,8.059927498150392,20.249908146690508,13.843505712006698
1570179097223065.0,12.68401618526398,15.243318027111618,4.953271322666771,3.454275255137387,16.588633860339378,8.096172964613741,20.030967338506688,14.082517515830299
1570179097245007.0,12.55550088384549,15.10622299380298,4.918829118150754,3.48475052151143,16.788785652632022,8.139469730404166,19.844530297250138,14.32734296107115
1570179097245007.0,12.455804616640938,14.950024887056863,4.894459531578304,3.5006076621486066,16.97743464357483,8.171429407652523,19.670350082013204,14.545625476404043
1570179097246003.0,12.33336904216787,14.776218336162913,4.872465819573746,3.511480933656692,17.16907993133073,8.183382435854627,19.448955516293417,14.690862044442719
1570179097246003.0,12.2213077899886,14.595680205825037,4.850715156412475,3.5199447049529855,17.365876962814284,8.190578557241588,19.158955178628062,14.788806872926479
1570179097259967.0,12.109839782287295,14.399377795142493,4.834181752669247,3.533927920092899,17.582547149821398,8.2176664608698,18.847579350081244,14.88199389738944
1570179097259967.0,12.021242882636985,14.196846225429558,4.812835698383684,3.5389349727926445,17.80645925266872,8.26557172588272,18.558207851299688,14.91560494196332
1570179097260384.0,11.93977657304451,14.019616114379216,4.771418473671974,3.5414153990610426,18.04437555134021,8.330353422436318,18.29365288019755,14.834240115511408
1570179097260384.0,11.893676302866668,13.848279649930785,4.709898580321462,3.5435734644642776,18.286259895627907,8.40363226749568,18.04965447667369,14.69807556988564
1570179097282578.0,11.829785971711559,13.670272276968406,4.643480639139605,3.5588600604252347,18.540050240179948,8.474886770252969,17.802660032582303,14.561533545090933
1570179097282578.0,11.736147820662165,13.50910428402054,4.577090666711813,3.5785091684368977,18.795203405313867,8.535030873085969,17.540880437616014,14.42291946563565
1570179097282904.0,11.59756353449555,13.387627883247708,4.517428123406877,3.607651786937084,19.058168487266077,8.58315352461132,17.26234446852665,14.240771343643855
1570179097282904.0,11.465543875731798,13.301490548599777,4.467364843559347,3.6365217091796542,19.31553920271289,8.61981687009074,16.943721013376674,14.016187879605566
1570179097303848.0,11.333270795890204,13.249306035953843,4.432357900848289,3.670924351623782,19.574743542195296,8.664107367920133,16.60301014167443,13.800807743847363
1570179097303848.0,11.221272378988308,13.22873995852627,4.410057508665113,3.7045406373833787,19.826498568862906,8.725906465806693,16.271144314859303,13.596381886141378
1570179097311900.0,11.09967392322977,13.253567436090648,4.398094966428216,3.7456392701151806,20.076266763626368,8.801412709609007,15.952986057027537,13.375666058025866
1570179097311900.0,10.994456258708986,13.323636348017029,4.392218480201247,3.7850325279888914,20.30989200281104,8.884446785389265,15.65744769483128,13.15000550927689
1570179097318808.0,10.89639634525839,13.443923470040001,4.396808417525984,3.828082612121764,20.527934408552838,8.974976012182577,15.387924475871543,12.94587565458801
1570179097318808.0,10.832525185021735,13.606589822470212,4.406177958545518,3.863359754113344,20.714303901921074,9.069285032996115,15.148771756348625,12.755796503650473
1570179097327786.0,10.776032746290708,13.81533430323491,4.4219750275898795,3.8989705722976504,20.889575754329925,9.165103131099707,14.93162015932223,12.558137802830922
1570179097327786.0,10.749020432457685,14.057956699662657,4.443861748796066,3.935964895794976,21.05382278775509,9.255133983901567,14.711754776370828,12.3584892863677
1570179097342744.0,10.739228299991119,14.333288023284327,4.4740222015719935,3.9839820390824463,21.21128339211377,9.342119928144996,14.502342433578782,12.178796109179672
1570179097342744.0,10.763060188715025,14.60719061487109,4.505754327866651,4.032120364002674,21.362468414446234,9.432026485755701,14.323928539523942,12.030306408530958
1570179097343743.0,10.795573847992982,14.843213458540653,4.541969167087313,4.085661748614957,21.5101411613032,9.52634750164244,14.175113226963793,11.905319619555451
1570179097343743.0,10.844200669406085,15.018464657455954,4.578298804451406,4.13567192584078,21.61565735426691,9.611970448815045,14.06025357600786,11.804961955874246
1570179097367679.0,10.860263861605215,15.155286644303493,4.621072441056633,4.188309131843276,21.68084330827049,9.683536576907674,13.970295983343437,11.740444807088712
1570179097367679.0,10.853860574474531,15.272524243108773,4.6671299923433285,4.232535839055758,21.704165458952804,9.737493791441343,13.893918692468484,11.713858871114242
1570179097367679.0,10.833092726868456,15.399665340729866,4.7174505237282265,4.271448293439662,21.674505603227836,9.775696754937663,13.838338389053245,11.705608849545293
1570179097367679.0,10.835996787765698,15.534878690269364,4.761951026223983,4.291404452271642,21.553866055708955,9.788457657821544,13.793292343080221,11.6968259646096
1570179097378649.0,10.85242645394483,15.686797989727586,4.804598163359775,4.299979443600854,21.396134510192933,9.78641399630653,13.746611308793748,11.700669426220331
1570179097378649.0,10.894663947956783,15.824244451953419,4.852913073449074,4.304475934110368,21.272598690408948,9.801677784180333,13.693027342116114,11.722346773303281
1570179097387625.0,10.932708844548134,15.931372234814141,4.907893739309335,4.312932332249642,21.177873469867972,9.832288063179059,13.62211430525011,11.749538532052698
1570179097387625.0,10.995382652675534,16.031309628295613,4.957784727978622,4.3138541220186335,21.07415626517896,9.865040086149431,13.540842794854091,11.793887046069921
1570179097402586.0,11.077066731842583,16.16578142019948,5.018938551025565,4.322387035906126,20.987616215130572,9.906081842965696,13.45962905965633,11.855489076246258
1570179097402586.0,11.173058201041226,16.334121587210934,5.091676153687967,4.335150921422801,20.924389024488036,9.948184659017244,13.403898990048766,11.925139246016762
1570179097403619.0,11.241642486000144,16.532680369717976,5.167987150628454,4.348467109109233,20.872761276375787,9.991692704935584,13.372316293153643,11.973532020352618
1570179097403619.0,11.26411903502453,16.720370917075776,5.238618778799363,4.350795353239379,20.827641783337647,10.038695538495913,13.326333895588965,11.971334611473042
1570179097424527.0,11.192728840798067,16.87048087396241,5.312521786842964,4.354726841033818,20.81019179105846,10.078734151819251,13.259823102204138,11.904534780061692
1570179097424527.0,11.073468908893055,16.989520876977366,5.3720640232215695,4.3531543560148425,20.778009751526366,10.092221009633388,13.163057067950339,11.760486235446892
1570179097426597.0,10.927633147660154,17.13482397302554,5.415935580995319,4.354088107418071,20.722884170957336,10.074725122117112,13.027157420705016,11.591877911620875
1570179097426597.0,10.790437891522336,17.327079822934994,5.459318825294953,4.356995508840041,20.645692181415505,10.038948328447765,12.892913176132096,11.442797901059196
1570179097438488.0,10.661023195126798,17.560688490017995,5.518450050471563,4.367565107077443,20.573534228368306,10.01575544330981,12.796640469162,11.304763705157505
1570179097438488.0,10.562208223675645,17.81118311225088,5.584844183205888,4.3764643947258675,20.53615569844663,10.017821503128138,12.748883870879679,11.172418100272576
1570179097453491.0,10.47682665759338,18.08469619968668,5.658635925852621,4.387261120666082,20.52501432286565,10.042416556725968,12.749820524271785,11.0443115363543
1570179097453491.0,10.418850817390904,18.379230207993313,5.736988428897593,4.3938453114482865,20.498285210717196,10.076812146272982,12.781998056842513,10.933178267377002
1570179097462490.0,10.362286362844003,18.66448833832532,5.825934218529939,4.404920214261962,20.477432356550086,10.117659714619723,12.829361210599833,10.836096864242796
1570179097462490.0,10.307551938514223,18.855730205834035,5.9114437175861045,4.416204413559144,20.48128523515815,10.166121113043715,12.895183166165609,10.749333286739404
1570179097463423.0,10.225767625243492,18.954811971304245,5.989222689120437,4.43478528949431,20.503732036482,10.217550814994091,12.985035856597953,10.679007457603323
1570179097463423.0,10.147709699544578,19.04588480149432,6.060777811371622,4.45410238518293,20.505838455211137,10.268077778896764,13.076078291329408,10.612974166208362
1570179097492386.0,10.071740219682313,19.17877081026395,6.135754983257459,4.483586008691184,20.502204419524944,10.326301792364129,13.150635258371969,10.545870296340986
1570179097492386.0,10.005954507143736,19.321475064480744,6.211572083838523,4.512860346768709,20.5111905855227,10.393939691758726,13.224284911899503,10.499700706162688
1570179097494340.0,9.93295491543347,19.470448147646305,6.27743985702232,4.535611066719994,20.515079743916253,10.465535871487775,13.291016848436058,10.4863670244571
1570179097494340.0,9.872987567666648,19.639498217770498,6.3065708960671385,4.5449610795018405,20.511215474530566,10.535880370228796,13.329247142141135,10.494661528770596
1570179097498328.0,9.819325515884053,19.845521960331503,6.311725229669465,4.5596696371962,20.555428327977634,10.604848386100485,13.337727298548426,10.507968543555789
1570179097498328.0,9.793945792668463,20.056465594748577,6.320449429895582,4.578847114557697,20.648236456264314,10.666714230984915,13.33662513092825,10.52720287083228
1570179097507304.0,9.774909284208347,20.221433935283088,6.345956645915524,4.6068193938452815,20.78980150195855,10.725890783318743,13.355363263190432,10.562833445418269
1570179097507304.0,9.76736065467276,20.319388919099882,6.374841728445735,4.634532834462858,20.966858736478308,10.783164734417241,13.407248665935573,10.624501962559563
1570179097522309.0,9.765933039486706,20.394014067480413,6.395016666357748,4.669692926784285,21.17398305299202,10.840072711769851,13.488309167498153,10.692539408848123
1570179097522309.0,9.785771536026981,20.48534642412272,6.395404547356238,4.7074798276104595,21.38732661446208,10.893488441460146,13.585420316096599,10.748645326155618
1570179097524259.0,9.802065496366852,20.570824434458117,6.386850017044686,4.753124911870954,21.597959312545306,10.94317746480121,13.683829875770988,10.793373466874112
1570179097524259.0,9.809883780338843,20.578623697395884,6.368640531820161,4.7981434590206655,21.801645176313116,10.997791416687695,13.793448265923626,10.823998474451633
1570179097545204.0,9.81012695350047,20.52352981194963,6.322109028554774,4.840228220921755,21.999592478883926,11.065811329727536,13.93256655924558,10.850420031468603
1570179097545204.0,9.836506987419202,20.46580482721969,6.231264632772721,4.869795987791767,22.16778631784688,11.135835653866382,14.108089272136755,10.88421508614564
1570179097546201.0,9.873431604376108,20.408673900546688,6.112286538397661,4.904591327886803,22.332641627723646,11.208208846517582,14.320885100202279,10.917457506035687
1570179097546201.0,9.919440612910678,20.3504612015982,5.992086456930283,4.944036147498662,22.508412973122745,11.290477931725292,14.555146942663159,10.948799114997893
1570179097567146.0,9.974063373187235,20.318690656302337,5.886624576610487,4.990538598658789,22.687884871210496,11.373432218864828,14.764536334011831,10.978241838279482
1570179097567146.0,10.056123508519482,20.311904124385595,5.796390664805096,5.0373972703049255,22.868117460183047,11.453615204365992,14.932763372335382,11.004254451196967
1570179097569139.0,10.16074109625304,20.34815229976962,5.725336267921203,5.091830761922356,23.070602960019347,11.547706967476945,15.093481935969645,11.0122929647904
1570179097569139.0,10.28744681985385,20.404027218855237,5.669484874169239,5.146663907564047,23.276223671953648,11.654880643572191,15.26590207507282,11.001571799811577
1570179097582625.0,10.403956758535578,20.38496514399521,5.624591484712794,5.207497041965042,23.490661171333418,11.77041076796987,15.450367222771526,10.999050983998735
1570179097582625.0,10.506265927430917,20.276004626090803,5.58679148044297,5.265190393516684,23.703914214869226,11.882522386653745,15.628247149943016,11.025851964078873
1570179097584101.0,10.61438364783147,20.159758417387216,5.552923059572022,5.314434998429628,23.870314686153318,11.972804133614249,15.778874794967024,11.077844722550152
1570179097584101.0,10.746102561251426,20.061306402424346,5.513830494620822,5.343023837541267,23.952243531906618,12.03498364008876,15.908672501494747,11.138629385183629
1570179097605044.0,10.887753537428862,19.972832820919475,5.471126718418194,5.349333097893349,23.966069383188376,12.068975432971612,16.015827856870335,11.200810695209055
1570179097605044.0,11.055023969536004,19.902314060729857,5.428598685796202,5.323355578638558,23.961625429416024,12.08214763900528,16.114093314442737,11.25266923629057
1570179097606041.0,11.256640075800638,19.81530446673488,5.3926029155543285,5.289732595232527,24.021448102785335,12.10616690973795,16.23563381842969,11.275193170810697
1570179097606041.0,11.49909333232246,19.70139087667368,5.364670763144709,5.259450130061824,24.128279520461763,12.133618857873275,16.354593368460783,11.300892011179075
1570179097626985.0,11.771706891589544,19.58110153202067,5.3418486942096095,5.2406807957286725,24.262747438801707,12.156284363458953,16.435598399029285,11.357924126633758
1570179097626985.0,12.05968431741598,19.42722244489697,5.323216260522342,5.222070589935703,24.42342515991983,12.192197440723099,16.513155290332577,11.447779671532514
1570179097628980.0,12.356382433722551,19.21578766713014,5.315954271683441,5.19541189393205,24.591455469622314,12.236564068175898,16.60210953140545,11.554793069424976
1570179097628980.0,12.676232171480516,18.984620176197183,5.317523649547559,5.158213357228429,24.741753426657006,12.278642249623063,16.682863612501087,11.647582386990942
1570179097642652.0,13.010002448111956,18.770351744154322,5.330986139097077,5.130851589378778,24.856895904085114,12.323393284334815,16.769529932925728,11.71775619539428
1570179097642652.0,13.353553187736477,18.591576056705573,5.348888865122299,5.110443212146571,24.903194115664878,12.37213896202911,16.87813306978943,11.781676810919128
1570179097643975.0,13.705280236565537,18.462829623624028,5.3627479449683335,5.100984529112826,24.93264037285213,12.439279056485221,16.99828762373271,11.84730420444128
1570179097643975.0,14.014432113383771,18.37194849838049,5.372535902049679,5.099161309384757,24.9799260742044,12.530745654964582,17.124355182006006,11.918060099153552
1570179097665176.0,14.220956316425134,18.28344073645178,5.388727295498377,5.10584638414963,24.99697842074882,12.645142182616636,17.257404518162897,11.982795728292308
1570179097665176.0,14.373178840997893,18.212304432718263,5.405205319578694,5.114079777713188,24.952353661910017,12.777715270374353,17.37951131274243,11.99219245377635
1570179097666977.0,14.517870394625108,18.18071614450074,5.408618598841084,5.134875838756593,24.909504801263864,12.925434929983671,17.483263848697067,11.915509902445077
1570179097666977.0,14.66273931388647,18.167640272010004,5.399160459018108,5.1617777683031365,24.904346131264933,13.07343971712602,17.57063354107716,11.826129412930053
1570179097687834.0,14.809258752025494,18.12318492927626,5.38898239280735,5.193881613778465,24.93871397822625,13.208879224423553,17.627051824809122,11.768784554482348
1570179097687834.0,14.986167875191011,18.0399663334806,5.3683481592536655,5.223523107249015,24.997689302176724,13.33951055927916,17.66350966224358,11.701041237736872
1570179097688823.0,15.192201763471619,17.955182103513604,5.33561623429641,5.257247910291251,25.078275751196035,13.47150359935571,17.70842092881999,11.603901528861151
1570179097688823.0,15.412994772730032,17.88011826586983,5.29252688880722,5.289371881276316,25.16039203863433,13.599176995884777,17.746011902638656,11.512938505161333
1570179097702795.0,15.63458525462211,17.79468399980455,5.241812717288337,5.325682544258871,25.262292962032152,13.726961779573195,17.743455239424325,11.451839655970439
1570179097702795.0,15.882388969551798,17.69921508972949,5.198326151401536,5.360173006045502,25.390749290866925,13.858977256377564,17.71204469527802,11.412213788704232
1570179097703782.0,16.147730253705323,17.58377764730769,5.1717570198690925,5.393949438924365,25.50266818003695,14.000415076861307,17.671746766707784,11.37989097165534
1570179097703782.0,16.358376459288884,17.439702331076052,5.149523807679653,5.422711515711517,25.57421415541453,14.15085937975364,17.633017401332545,11.353025397431852
1570179097724729.0,16.441866372809056,17.2815857312839,5.122934062901591,5.458117410952397,25.661822997003586,14.318296102912383,17.608239697153348,11.330521382337347
1570179097724729.0,16.458262991244055,17.150256208524514,5.091043462900325,5.490711244381115,25.77632177766301,14.497784104719061,17.60696879471574,11.311054712644328
1570179097726721.0,16.44059666369731,17.051561363209316,5.064819966191572,5.511840948075534,25.8605979963881,14.654692976919081,17.627630973566905,11.293576237955142
1570179097726721.0,16.364923889551815,16.97570510083926,5.044284687828558,5.51884535075394,25.869141846575292,14.764383999555843,17.629624992869623,11.276174703936642
1570179097747697.0,16.21322309688306,16.909801578011727,5.0292200755831065,5.536630780403911,25.876034594291927,14.858597347920352,17.601601773953874,11.24479600022072
1570179097747697.0,16.041192023201933,16.841531757709838,5.021550696965431,5.566386267631818,25.940844877636934,14.976025315381447,17.582986964575518,11.191404704943855
1570179097748765.0,15.866227450170193,16.772516783242732,5.022931316946305,5.605715707902433,26.05012584589108,15.124014663817137,17.57362570015021,11.13771708293303
1570179097748765.0,15.708272489083502,16.69788836793892,5.028204359248194,5.645598980371696,26.16898829097328,15.281909611327727,17.5625566155033,11.105374636341836
1570179097768615.0,15.55461342576723,16.558883950187358,5.028405505544939,5.69029840013281,26.293308671425578,15.431223250696847,17.558402009839266,11.090409373527944
1570179097768615.0,15.423981474954092,16.357588309818425,5.0124338016094665,5.72860957077999,26.40685383957326,15.574872139172484,17.55089066230165,11.077452317968683
1570179097777655.0,15.315147667561583,16.15124487340597,4.993917506455684,5.76369885837329,26.512861172236114,15.716435453079752,17.520547904561163,11.054390007849895
1570179097777655.0,15.258958264621734,15.981013987922507,4.978631693957715,5.800000234470204,26.634853437609323,15.86250288143856,17.480978301724516,11.040773515063957
1570179097785720.0,15.243825640792403,15.843798366209814,4.967757381097943,5.853876249424821,26.791562009428294,16.038464980175107,17.453763450639922,11.048612569169444
1570179097785720.0,15.229088038998636,15.710790977550424,4.956238019152304,5.916373120129496,26.96871370810799,16.234253809721515,17.43763077144256,11.08248664229539
1570179097786563.0,15.147985309303316,15.562694873786656,4.949501206036659,5.989419020006339,27.18429667590957,16.436483505084535,17.44137494935594,11.145014152521563
1570179097786563.0,15.034791110324399,15.428927360770146,4.949399633327671,6.070920915235953,27.440763581803928,16.643400207069526,17.460675339476413,11.21077039236421
1570179097807658.0,14.914914111693637,15.308396353726952,4.956333380540883,6.162074994443499,27.712654755835757,16.854755355610017,17.47447845068649,11.237040384162224
1570179097807658.0,14.825920078868213,15.185226768785196,4.972967098689672,6.255205751752037,27.960328287766675,17.066494798325753,17.496750784908123,11.215071740018393
1570179097809503.0,14.770928636738358,15.065868790724423,4.999897180088345,6.358629411586339,28.198157990079395,17.282384881517128,17.547488485426037,11.176300957629945
1570179097809503.0,14.758935901002408,14.97127801688722,5.030592691055524,6.4642069929742725,28.461375775065548,17.524507581031095,17.64339061762141,11.159615816399112
1570179097821611.0,14.73967256641454,14.890378310574771,5.075477589155862,6.571882449419359,28.763243901663493,17.802369116757163,17.79996655017086,11.177909754748569
1570179097821611.0,14.695362297908055,14.809980271509724,5.133627128343541,6.671340510277556,29.080937662911673,18.110286885912807,17.99618251268487,11.235426524063868
1570179097836464.0,14.616193661863171,14.726102649288196,5.199529888325577,6.769337671832613,29.42723274523524,18.448166528490454,18.204717635868928,11.32933677991498
1570179097836464.0,14.544505613448932,14.646086507261947,5.2631003117245285,6.868221765724981,29.815275907847912,18.803028583733106,18.42339164430734,11.455035560518546
1570179097845405.0,14.487313728371335,14.553613036920083,5.32716356333005,6.9771788283644725,30.246674049535837,19.159631101721935,18.65870213676794,11.603773763202692
1570179097845405.0,14.466058036174505,14.443260407660393,5.381981082888098,7.0890248488981955,30.716168697558437,19.502963481582313,18.89379219182387,11.760996546679918
1570179097846620.0,14.446055970439716,14.309760469710218,5.43099271481581,7.207176509869105,31.23244632999846,19.8262023927314,19.115538433110096,11.904570230112009
1570179097846620.0,14.42285922581519,14.171986335057051,5.489282900435424,7.331206750360248,31.766649574536196,20.120035903631525,19.349256262028014,12.030164736546363
1570179097875429.0,14.403689874239646,14.058155251070755,5.567208595258012,7.467747285692883,32.28813650138843,20.381449284860967,19.602341878681205,12.148214567323418
1570179097875429.0,14.438644273140179,13.9892783164721,5.654774284615901,7.609085890616732,32.79028863811422,20.634836286875792,19.879116946682405,12.26580860300277
1570179097876368.0,14.511972879438522,13.964686581399208,5.747247565572781,7.758514878380199,33.2808738486494,20.896177887462596,20.1695608885564,12.371564449488085
1570179097876368.0,14.573037969103634,13.95941896722453,5.835639556756942,7.906679502138917,33.7435694670529,21.1495604235449,20.451456961847708,12.476588480543612
1570179097882343.0,14.543135830225019,13.921279775467363,5.9145720919336915,8.047098469897245,34.1810481121643,21.39286067763832,20.73281913876576,12.596992976141088
1570179097882343.0,14.462454453612814,13.851743377017954,5.980245805486633,8.174638017623506,34.609208652682526,21.64754421284492,21.03235591030127,12.734572324882826
1570179097888338.0,14.357310649359713,13.788821499033274,6.048540890384673,8.304502451426924,35.052043128379864,21.933866107673808,21.362096991177282,12.890082922647764
1570179097888338.0,14.246301162335833,13.751908301901205,6.125918614125123,8.425652466029161,35.440644621966996,22.21944165069711,21.703781701497796,13.059539872454023
1570179097905242.0,14.119575420559306,13.741325158973256,6.2183430704814135,8.54024513732097,35.72849581945382,22.48275008874017,22.041530249861427,13.22923483792092
1570179097905242.0,14.004889304245383,13.759129181305337,6.318104252552338,8.648616787543068,35.97364872637658,22.732743324004367,22.353863370941625,13.387475157365015
1570179097906666.0,13.892477863098945,13.791969636296566,6.4215697175269435,8.741167532049126,36.189143900623264,22.949741279422344,22.627557244203643,13.522259088159766
1570179097906666.0,13.803429689076731,13.813288676055018,6.521098974748853,8.798642030812266,36.30641202543745,23.10581194404742,22.89757466355248,13.626900836855663
1570179097927648.0,13.72104367749536,13.798225512443386,6.61372224801467,8.823967439134066,36.35758133088722,23.18007086645323,23.169207315700714,13.697517370630079
1570179097927648.0,13.655151406791603,13.784006024130345,6.684551251109249,8.804957290416509,36.37656112274093,23.134619298783875,23.425839086989082,13.769992512600346
1570179097929212.0,13.58052139900216,13.790886433001926,6.70334403422334,8.744965422867486,36.34178815925547,22.961377224375514,23.690247652987125,13.871103045698064
1570179097929212.0,13.520819365514983,13.792614582008866,6.654192912639874,8.66979129655122,36.28551499715344,22.732542343472264,24.002399939239737,14.006900045769491
1570179097942146.0,13.465108132104998,13.777091172221583,6.569818636132836,8.577204794681071,36.15511651276225,22.48218941644804,24.361248322161735,14.178284911880434
1570179097942146.0,13.424644603474531,13.782408651171583,6.485269765334111,8.444162887327266,35.87917879623009,22.16507809826025,24.694568643905768,14.375740292390331
1570179097948132.0,13.389467444195203,13.81763474155703,6.419760209246786,8.287778117218302,35.558945345821954,21.801316642058786,24.893961355665095,14.549420009143242
1570179097948132.0,13.38921678702065,13.85945162794811,6.371781510102827,8.121740274310016,35.26645569494873,21.447414452023516,24.958031872191853,14.673861128397345
1570179097965299.0,13.40945038059227,13.895590948975654,6.332207809549139,7.951048134445407,35.02666106441391,21.110260363491022,24.985839390560386,14.77337808566451
1570179097965299.0,13.4289297342615,13.924564389012332,6.297025240495322,7.778737752919271,34.86191236082211,20.796738522470186,25.02174834059136,14.859206731428344
1570179097966086.0,13.402266989429588,13.923390455609946,6.269925386224823,7.6202890505687835,34.76123717705687,20.53153726940288,25.07094167908937,14.931217461993361
1570179097966086.0,13.364310814661808,13.880565680622306,6.248019753363689,7.485561366791998,34.6863732039318,20.32092237472266,25.14501648515334,14.981746103840294
1570179097987541.0,13.321158317472724,13.810136218330804,6.2281001656933315,7.366978405033684,34.61857800577898,20.13618353409979,25.265681632658488,15.009416730125663
1570179097987541.0,13.289152024563942,13.72968626990946,6.20359419247547,7.251589208602454,34.574220640645464,19.943072891951193,25.44730204657861,15.041292232939925
1570179097989020.0,13.247660166216697,13.641248433617593,6.1802595762867005,7.139164218394941,34.55166329209352,19.730657272627585,25.646637190568608,15.075878558467474
1570179097989020.0,13.228574774068289,13.56580542035011,6.164273630922622,7.0230617703297575,34.499335506125234,19.498669514566895,25.827732774909087,15.11096733887497
1570179098001996.0,13.23043378974329,13.502779775707017,6.152727546125634,6.915448660026307,34.430023973536926,19.284683178699247,25.999062869269963,15.157632443812862
1570179098001996.0,13.25360083877868,13.433081804634018,6.137916668405458,6.828773961704402,34.396620396413226,19.129307171192686,26.162509098039298,15.213736342524678
1570179098009970.0,13.258776909226178,13.363460602521506,6.11942193440392,6.767461714172412,34.43052508110106,19.035063873386697,26.322708392030165,15.23215075898323
1570179098009970.0,13.262945797044884,13.30878418970727,6.104678873716329,6.725817662184249,34.50720642336163,18.984378683570288,26.48209143367335,15.168091438566075
1570179098025207.0,13.263007399037381,13.238813316537453,6.104210726345009,6.699577384564267,34.59597057189663,18.961130248601712,26.661637010920124,15.064176208966373
1570179098025207.0,13.276541164706645,13.123015991526275,6.103113049052606,6.6773160890971575,34.683057982514875,18.968860735997115,26.885227540048934,14.981284079305846
1570179098026985.0,13.284090835289339,12.93362847678965,6.08181543979269,6.651827741525922,34.7417340759894,18.994845483793704,27.123185407833063,14.934931121778634
1570179098026985.0,13.291842659911135,12.698156352510217,6.051971353794519,6.6188804927169285,34.713040924272306,18.957143398928405,27.29826394831619,14.903450013867715
1570179098047879.0,13.264888434775989,12.449971971749543,6.030986380740684,6.580614717444123,34.59773164512461,18.828585722124924,27.3992911946329,14.866988814017029
1570179098047879.0,13.221147517756302,12.201310005899352,6.010537981919407,6.535237580869581,34.46706372353294,18.702105653152895,27.5013727331885,14.838672031015985
1570179098049295.0,13.172193779921932,11.966667888678428,5.9707387087779304,6.4898997756683,34.32980170200044,18.611476134759435,27.593566409204904,14.816392919126981
1570179098049295.0,13.151447545268041,11.76999337180355,5.909042083766086,6.454897160744517,34.18574732917646,18.53265028070704,27.646087577778825,14.81048576582071
1570179098061859.0,13.139374889336612,11.606985817968376,5.844010076069531,6.4296642162252216,34.063273669391876,18.474238129494495,27.71027745519541,14.833514395398007
1570179098061859.0,13.141774770905542,11.469068860364843,5.784620762586652,6.405652205833526,33.93153258065953,18.428019478901295,27.81074881263646,14.8729777200908
1570179098076010.0,13.118076536554508,11.353358493224013,5.735471359337473,6.38738440498927,33.70560453382064,18.36163502994868,27.929299856102883,14.925456716789819
1570179098076010.0,13.076466231699696,11.269022304323508,5.693208888825814,6.370658874976751,33.39343810211931,18.270236142069287,28.050589792675183,15.000639738501052
1570179098084946.0,13.018174446506354,11.191721199913717,5.644961008893392,6.36147619300443,33.1408551228485,18.19123833550179,28.196175499135563,15.105395295239067
1570179098084946.0,12.97778050993143,11.094128346807151,5.592541032522309,6.366358812600974,33.005852360657556,18.142185402002553,28.39470873698565,15.244890310902477
1570179098086842.0,12.94102040603389,10.981007661130105,5.53967529810043,6.38444914182636,32.94186625812012,18.12063869086892,28.60301065019904,15.412293516670292
1570179098086842.0,12.923063887397847,10.880177417397148,5.477429444482917,6.401546762727986,32.90971903458816,18.132104832951516,28.77269339326433,15.597151156302488
1570179098115044.0,12.909132025107182,10.808998140682766,5.4022360242512875,6.4182095745479755,32.914893571565266,18.17227650337964,28.95145847810107,15.75885720147218
1570179098115044.0,12.893504533933495,10.775596817494668,5.32160042717001,6.438137891950862,32.99073923463528,18.228092759485673,29.165421180982445,15.865194880816023
1570179098116749.0,12.841789507982778,10.774668160926042,5.240846474067992,6.45732875133183,33.11335424632325,18.264542738502133,29.35442548351614,15.93063532677954
1570179098116749.0,12.793550897664044,10.809466425162324,5.160926838417853,6.471996370937679,33.238795480552334,18.271998815874106,29.488488859392326,15.978352646515397
1570179098121797.0,12.748831128568684,10.877502575784643,5.0812474630211435,6.499872552758237,33.411335123487945,18.29513948481534,29.58758414888226,16.04516378153134
1570179098121797.0,12.717531952997101,10.959695245642978,5.004705025299428,6.54492327307064,33.64909610892828,18.365056742973053,29.703169835916974,16.085639283795334
1570179098128695.0,12.670303655524144,11.045174727386947,4.935857166033416,6.608455245392504,33.91949536152447,18.47765289655744,29.868589916939555,16.02565697377023
1570179098128695.0,12.630618652691243,11.137756197634669,4.873925292879687,6.682662505126493,34.21937305875593,18.61565299526907,30.020271787442,15.904998659830285
1570179098144649.0,12.58190391844287,11.237790091624095,4.806631468477652,6.76263651027989,34.51334516788605,18.760544505877544,30.05062939472718,15.752556954336715
1570179098144649.0,12.539455942706882,11.349168523893926,4.727653984321259,6.836303978851211,34.687809834975916,18.861158617821147,29.951347449089212,15.587412355743597
1570179098146683.0,12.485369037969843,11.482560185039318,4.651387739025563,6.898817719879231,34.6924761901521,18.875094451089335,29.821072020790176,15.457354643534371
1570179098146683.0,12.425882874069849,11.638257264811225,4.587910575940465,6.957018573568767,34.63682147243081,18.84681103804712,29.707317038069704,15.376002274373928
1570179098167726.0,12.34138926419443,11.794812437608833,4.525114726727682,7.022065699449382,34.62381418881328,18.827902733397206,29.589801860933694,15.33964554755329
1570179098167726.0,12.26383268779102,11.942935113534155,4.454890302435181,7.087939310204913,34.64586754107869,18.805960297746292,29.47734037374255,15.33368586367296
1570179098168928.0,12.174060554877872,12.09745875057414,4.386431768540347,7.158054566376516,34.677986914878026,18.774374951437093,29.42853969442121,15.32667620974584
1570179098168928.0,12.073887928447355,12.255506851989962,4.32864132739686,7.2354640336934075,34.715838780800446,18.772523785473425,29.445455225677122,15.311976689350923
1570179098181575.0,11.947602298419726,12.429547218138126,4.284802562011453,7.327553517522198,34.79192812256249,18.83357272356201,29.484137319522937,15.314365935092354
1570179098181575.0,11.82551315588357,12.629174677303888,4.254261520902958,7.418849682575613,34.88801293764126,18.91341842830415,29.487827890590463,15.320545301080536
1570179098190482.0,11.694422997647495,12.850429450369797,4.236308720326349,7.500683410479465,34.93825253015208,18.93966327859635,29.342347033547536,15.312291880709811
1570179098190482.0,11.583194064680626,13.095812930201065,4.229809237342451,7.583546244485755,34.953821650824466,18.93002479447124,29.058339030963673,15.312627664623822
1570179098205492.0,11.481210707230257,13.371882386143794,4.235754604955752,7.6808760622625245,34.98567507390997,18.93557116608219,28.74627803969554,15.330158441208901
1570179098205492.0,11.412083540288341,13.637781886367732,4.246280937389374,7.788844924876159,35.043489162431534,18.95593775211238,28.439295795712233,15.360969248083777
1570179098206534.0,11.34604410706161,13.80492037036373,4.241215974721025,7.900189779947384,35.08512418700573,18.968683145135675,28.15394640245557,15.40752800177207
1570179098206534.0,11.277922201253,13.86216969946108,4.213244733095202,8.007747330986627,35.09906396822367,18.982913561842995,27.927631289986206,15.474990143535504
1570179098227495.0,11.193427614872332,13.892818639090143,4.185250802497872,8.12520526506399,35.14193519439063,19.03217086254763,27.76413424440913,15.573313999278662
1570179098227495.0,11.130360713637211,13.934070472850262,4.170872721225559,8.25528187446546,35.24017504029192,19.130048015651212,27.595572545214285,15.658063226366368
1570179098229382.0,11.064652027363833,13.982519177747081,4.172255390181125,8.400860843540595,35.39796055952776,19.27943248673522,27.381947075440213,15.672993194911463
1570179098229382.0,11.001881669345842,14.043307245436539,4.18696205212368,8.560526237904622,35.65197795365233,19.487455251003006,27.147139970070615,15.652103158081603
1570179098250587.0,10.929753327238883,14.124582834641092,4.214591921235789,8.719940100949064,35.96776500524621,19.739733592676746,26.917859444952708,15.639477417338219
1570179098250587.0,10.868371918500326,14.224707728353705,4.248550671382481,8.850102494067919,36.224877443417384,19.979151595605,26.719984547490895,15.620165164010018
1570179098251887.0,10.795745920596902,14.340324157766501,4.288309299806421,8.959837730037039,36.42274246750002,20.18036882018402,26.56255958266859,15.553150738207199
1570179098251887.0,10.731376058284138,14.444057867051015,4.333309898443955,9.072832559493207,36.65512931425551,20.382859471776133,26.436091645681177,15.421989814213692
1570179098265353.0,10.64930007737223,14.507185814824398,4.388516224176334,9.195351441148665,36.949917285178834,20.61433001275888,26.35549870215394,15.279680226247816
1570179098265353.0,10.569154245905459,14.55178945410261,4.452291016511437,9.312642309793992,37.28388324414202,20.8593651038215,26.30184237192135,15.158724916401287
1570179098266558.0,10.487790206128956,14.614175671417813,4.524452937192877,9.422157015852719,37.598186966674774,21.06994002177315,26.221526353631575,15.040406054086535
1570179098266558.0,10.430180516102196,14.699823436032402,4.597481046365688,9.533481471875136,37.917469504139135,21.249384088704435,26.119460543801857,14.921726125269888
1570179098287344.0,10.373928742745592,14.788419384809627,4.669071816414205,9.645398458856905,38.2629069459028,21.42207943412129,26.00647915880713,14.826933220790307
1570179098287344.0,10.3320451470437,14.826099844210002,4.732829096942015,9.747795215392564,38.579206532145484,21.583500844013695,25.916396181772093,14.774804365186224
1570179098289300.0,10.270990266720776,14.779374674585977,4.792634867709339,9.851784438277749,38.89448858004736,21.763304160800764,25.877944928648432,14.769196236035143
1570179098289300.0,10.201793820850312,14.697092872793322,4.849541228885604,9.941605868645915,39.17795006906519,21.950565457901945,25.850683623777265,14.807736153526253
1570179098301551.0,10.11377686681452,14.624178099239584,4.8994978942545195,9.987800539527635,39.306622664670456,22.06805771920619,25.809081294868676,14.846009939880643
1570179098301551.0,10.029495867556028,14.562295595207049,4.938392607318964,9.968722542627523,39.2418522519673,22.051044742257506,25.70193662215552,14.832674320827937
1570179098310161.0,9.936560998656129,14.507093355411744,4.98214684563166,9.900276009591767,39.01472849576515,21.891901586431963,25.51951459573427,14.815383283456391
1570179098310161.0,9.859699362912806,14.463492912339811,5.032337379308217,9.831535904315963,38.70779220885913,21.665577777227703,25.313901564135946,14.830513911048373
1570179098325516.0,9.778041583921382,14.431397113551538,5.090293590214291,9.77997751507375,38.402985002530876,21.44328038170516,25.107522584865713,14.83918405322928
1570179098325516.0,9.708128959359424,14.416004507036531,5.157668663114569,9.72543307645943,38.103015525459085,21.21971839045713,24.89238270307667,14.82964784365672
1570179098326223.0,9.631127446020216,14.422868580676635,5.23606102928421,9.662478918914008,37.77474836315616,20.96488668123733,24.646492790634866,14.831298654154539
1570179098326223.0,9.557042981370927,14.454161280274493,5.315974166981203,9.599073047753343,37.419428798855506,20.688831803172953,24.37331440856056,14.817792698093909
1570179098346070.0,9.468579255069123,14.496151431098298,5.393899037909407,9.54163023914959,37.03746088783221,20.40716794897179,24.078041487873463,14.729141504511018
1570179098346070.0,9.393132319441696,14.499702881607398,5.4592350198712305,9.491710693406063,36.639459211960904,20.11375731231675,23.745989261668097,14.571104872968279
1570179098355040.0,9.309277076093176,14.438258409016521,5.511917690716401,9.450212210971035,36.24611226130534,19.799971881420728,23.379144703104846,14.39334248780109
1570179098355040.0,9.234836197295811,14.352968644698658,5.557372706556369,9.418446504875881,35.895892749081966,19.484927103423097,22.999988200843173,14.22244016473216
1570179098361418.0,9.156379451527396,14.27328493857583,5.603647532555712,9.404569134547874,35.60913415814874,19.193524331579784,22.626657152522647,14.063138780331016
1570179098361418.0,9.086316899448425,14.180494467387787,5.641713589952293,9.416469682274549,35.360784633853164,18.929018211365662,22.256876924010452,13.927150077324608
1570179098370001.0,8.986445731828919,14.023514935728105,5.669390982845088,9.455873450190957,35.13406839020822,18.69895943669167,21.891500367217834,13.819681991723503
1570179098370001.0,8.868235426001345,13.816509075287174,5.693880905575647,9.520123627811884,34.96896075511049,18.516002511803,21.54128420387276,13.713149518461336
1570179098383962.0,8.726209747166063,13.61754444822512,5.729960275806869,9.612527319400094,34.89824870100717,18.37618531034667,21.206926255209844,13.58817008168777
1570179098383962.0,8.589287845967172,13.451594088432248,5.772807605322424,9.732918209577551,34.944077656041955,18.287645771764133,20.875579441196766,13.453500938322493
1570179098392940.0,8.44345772096929,13.316122936408172,5.8154128873301705,9.856053202741496,35.07303624033575,18.25162619485746,20.546087430099284,13.342181923437906
1570179098392940.0,8.309497352534681,13.212776309515966,5.853532463022197,9.959373855998479,35.223179971283834,18.244191450692952,20.226543410172525,13.264886491075366
1570179098407904.0,8.175344346362476,13.124819341836757,5.89206229855521,10.052866480515815,35.35752033273401,18.232716040887627,19.92228997144871,13.21083634886168
1570179098407904.0,8.064559170096649,13.029887029834882,5.9348197209918645,10.14768867382419,35.437914667408606,18.199213785003323,19.629783907869957,13.175342806071813
1570179098408896.0,7.95206663349023,12.907119477655627,5.992924730027488,10.253318312666284,35.4739691905001,18.155464763333196,19.349537736608298,13.142788691092203
1570179098408896.0,7.8503381908511845,12.765262356701404,6.056189347232638,10.37434598931774,35.538132033581086,18.113930065909827,19.0846110357046,13.06985892874313
1570179098420896.0,7.742564327700209,12.615405353326896,6.1137859371484256,10.499538483189305,35.65200505619091,18.080826453670905,18.831992291941976,12.950807207332009
1570179098420896.0,7.652140242227889,12.479853166395934,6.168881494201056,10.617451598536645,35.77979308026882,18.070575177318798,18.5884219522206,12.825024642139592
1570179098429905.0,7.560501651490176,12.363835652419949,6.218779754822465,10.70583032320709,35.873335460538826,18.069721435493026,18.349297115399313,12.720184476807535
1570179098429905.0,7.4753008994920105,12.253986215764886,6.25432544729495,10.746826708187914,35.922532045466745,18.049004674581933,18.1050466552797,12.626179193853165
1570179098444802.0,7.383773996804972,12.15674674209095,6.291541501402015,10.776728996659747,36.006599010755814,18.02121865648127,17.86133112560513,12.5379880386412
1570179098444802.0,7.310395001690025,12.08221132387319,6.326780498740738,10.823218952265194,36.1905314555336,18.00847325380228,17.624267920980383,12.463270384817811
1570179098446795.0,7.225271453716423,12.013328604610459,6.351738259130972,10.855054691346341,36.410186630716844,17.9968742633171,17.388306489487555,12.407569637675328
1570179098446795.0,7.139079082476844,11.956751517522973,6.371071902974505,10.83956573508419,36.57803054987388,17.97388201369803,17.153224962379664,12.383820896616546
1570179098467113.0,7.045956237611682,11.913829797412456,6.389960250271556,10.774420320168023,36.64787527439946,17.930720216617335,16.921888156375665,12.386994380957777
1570179098467113.0,6.971519819964272,11.877992271744676,6.397301859741471,10.680234327902374,36.632050876236406,17.86584185390542,16.69390338179451,12.383956673287775
1570179098474732.0,6.898800708455932,11.835088706535103,6.402698569366457,10.557983484044346,36.490013762731735,17.755328382089502,16.466361358568154,12.378254810658099
1570179098474732.0,6.835275001403598,11.777921338864592,6.4226172475849,10.417686940773908,36.20787565111134,17.593267268830214,16.23880522889966,12.385230023935094
1570179098481711.0,6.764440514312045,11.732050403488715,6.454989238831178,10.287313500021318,35.85752742789518,17.420013416720664,16.017953538763102,12.403580538993662
1570179098481711.0,6.712458438702335,11.714386319435254,6.482103034950176,10.173050441341454,35.526124870223335,17.26808693469481,15.803624610011592,12.434141317522466
1570179098495673.0,6.668924902698462,11.705114959941746,6.504772953237953,10.061344195260713,35.252552290020155,17.135498343193458,15.595355656427108,12.459933619147439
1570179098495673.0,6.639080099741645,11.685782937206056,6.53051844179222,9.961895520832272,35.04765207556316,17.01164288918514,15.396020325470673,12.437286830797559
1570179098504845.0,6.59201274827249,11.64879738992471,6.560504724488217,9.878773041207479,34.89459007013544,16.893693368395827,15.211659361352087,12.360291893951954
1570179098504845.0,6.541524288064932,11.614165167354495,6.589683934895504,9.805777482086475,34.76271137890109,16.781619525500133,15.041954945011353,12.265795976678133
1570179098506639.0,6.482043923095257,11.596608268846094,6.60962712123073,9.729423737689707,34.63817137108839,16.67395970859088,14.88009188836836,12.191775558980469
1570179098506639.0,6.436742106255682,11.610056334752484,6.613066151281843,9.638521743546093,34.462200591618256,16.548124385987528,14.715820442335247,12.15268800802143
1570179098527680.0,6.3981326916274694,11.66205849679722,6.614283836444283,9.533671580158861,34.17755784722475,16.38404014771922,14.544832683396358,12.144236435803203
1570179098527680.0,6.377856887133631,11.75191922983149,6.625609118101496,9.431580364422679,33.855779173063866,16.204052346806822,14.373993372556235,12.155928410628993
1570179098529159.0,6.351331278941191,11.877457793711951,6.649640115491017,9.343920328008062,33.56831057962792,16.031170031674304,14.212662310470625,12.193979400720815
1570179098529159.0,6.329893117195425,12.025989757487524,6.672405927504471,9.274016861873998,33.33069742283311,15.875215812454309,14.063512072304158,12.267060796750663
1570179098541541.0,6.310903659113892,12.194226637890903,6.6898597107782996,9.203677342319605,33.112701196821895,15.729348488997697,13.923571862967885,12.36541365863665
1570179098541541.0,6.316729611833106,12.390328636025446,6.70705750163779,9.12894310140654,32.905093921564664,15.58612729334749,13.777471316134523,12.477754324910018
1570179098549806.0,6.339083663365852,12.598818764500825,6.718599252720547,9.055322225989153,32.72470953666149,15.447468733486856,13.623941057978897,12.612043911006095
1570179098549806.0,6.388588632210423,12.792014453042977,6.718623175589978,8.991213494191957,32.591622490938825,15.321107548519564,13.477962836853642,12.76994291933998
1570179098564568.0,6.444573322130507,12.938864641480583,6.702412358580711,8.917874145031142,32.44712268892116,15.192694504107324,13.344281691453995,12.929823069849018
1570179098564568.0,6.5008511500809805,13.021532584471332,6.6597085483385055,8.82369649489403,32.21465811305945,15.039024164728406,13.219787535819998,13.042053245975447
1570179098566835.0,6.5461771284853905,13.074544405489172,6.597939682642307,8.724100741478468,31.907243513585186,14.864783717612754,13.100473432592564,13.100139834496028
1570179098566835.0,6.601433634257239,13.146821147761592,6.53466166692243,8.636205140296346,31.598832910159633,14.69655633877066,12.985620898492297,13.14631992116768
1570179098587423.0,6.658157315200456,13.232238000223017,6.479668337537173,8.552760200831617,31.304026213837012,14.543436624195282,12.885097966621888,13.202016344690993
1570179098587423.0,6.714115434830758,13.272472200862575,6.425955790834165,8.475221637611929,31.013867499576094,14.40005371312702,12.805174875757611,13.240169905230688
1570179098589413.0,6.737357377310852,13.246456724372063,6.371642180417735,8.406365095890699,30.751910079055612,14.26730792455867,12.747252077190966,13.214028786772765
1570179098589413.0,6.745012243659625,13.203243746253861,6.316174530620796,8.339493700637577,30.535409041214155,14.1452138392714,12.698778453209778,13.137359672074432
1570179098601625.0,6.751997329705342,13.180361975258112,6.253585933126566,8.249045781141216,30.288245262097245,14.008330342991037,12.641790694282482,13.061609089008567
1570179098601625.0,6.772949381534276,13.17198090945228,6.182554889878045,8.137728821690683,29.98113476646805,13.848794511347908,12.579157902478848,13.001786802469585
1570179098610362.0,6.784215317204173,13.152932987325608,6.102703278456741,8.017460297941632,29.647853396740285,13.679849847810146,12.513867660168202,12.931915613687686
1570179098610362.0,6.786029191408736,13.1396199619956,6.022379393724856,7.891676435512506,29.28308314700957,13.500511596235555,12.429868897300869,12.815039788842617
1570179098625326.0,6.77841938999758,13.140744847918983,5.9470406258380075,7.754516849618057,28.8705709209755,13.310901202221372,12.323404174050914,12.665837959852665
1570179098625326.0,6.780321997747861,13.140171691318882,5.877386009361042,7.6161752803647875,28.447602401384053,13.123893276858222,12.20647728858845,12.511902146515135
1570179098626444.0,6.78302718362899,13.132786305066356,5.819073372987434,7.481702601822507,28.031251602634892,12.94273317236755,12.090566769575075,12.366586542073247
1570179098626444.0,6.796459275976344,13.10807880962563,5.759272739069208,7.361286758535428,27.63320334007028,12.772936504134142,11.975695706890182,12.238711087447244
1570179098647759.0,6.815002595791179,13.052722687675494,5.685620078420673,7.246969468908487,27.24910794964078,12.612323609605344,11.859215554623185,12.132199067485699
1570179098647759.0,6.843761764123511,12.962919018196907,5.606623996759172,7.131343195850961,26.87100772534843,12.453588623471848,11.744483966737333,12.05307558340322
1570179098649262.0,6.876641692249355,12.864642592867733,5.5258108580311,7.01509293230028,26.48171023420312,12.287459691217709,11.635610332525369,12.011610146897056
1570179098649262.0,6.928859594663997,12.787462369654294,5.446938616602182,6.908594489219354,26.094378923507417,12.116605512784837,11.527512408226757,12.012763086006347
1570179098670365.0,6.989496674046783,12.732425486320643,5.3747140362027634,6.809802029881133,25.72618037206106,11.949072585184766,11.414755593257324,12.018508468609037
1570179098670365.0,7.0577810808296215,12.708153160859977,5.306098451510093,6.721983537135498,25.398615442678796,11.789964628587716,11.299443145800778,11.970405091152207
1570179098671270.0,7.121968468009811,12.706574064050628,5.242881374769698,6.641239340511102,25.115880996811217,11.641339249183371,11.189256907376155,11.898725417779307
1570179098671270.0,7.1762822938841495,12.709872885822767,5.188929661921762,6.571358721619707,24.879737184798763,11.505165566974117,11.088023431409129,11.843499452473853
1570179098685331.0,7.213575683083458,12.698514570175886,5.14413263256535,6.512857893709738,24.68157416552058,11.381880109965673,10.996730381463475,11.807260316035265
1570179098685331.0,7.254167379078916,12.656078401299379,5.103130871899577,6.473792077467951,24.538144944591203,11.282817619465101,10.9181450133486,11.797155305103022
1570179098686841.0,7.2952241593689475,12.584251267791311,5.0571769309517025,6.442222170126139,24.434773970172113,11.20618007309307,10.855745707784502,11.819956264895565
1570179098686841.0,7.349614710727506,12.51831684597994,5.0124984396260635,6.404832301002484,24.305223398981173,11.128879877206026,10.810165866118671,11.878886163179143
1570179098707104.0,7.413794229867722,12.480233501572512,4.983352587751037,6.364659316948813,24.13682354871714,11.046470646400453,10.774651915396738,11.965112047373621
1570179098707104.0,7.4836169560449655,12.466114706261138,4.97080182071504,6.342009889601454,23.994465925923382,10.976013397401124,10.724578059168833,12.05891685382572
1570179098709486.0,7.557677829415127,12.476007224556016,4.971690331959893,6.335708848323447,23.87092251111232,10.912742971006725,10.650716573439478,12.169467110227215
1570179098709486.0,7.649666503252282,12.511500693777103,4.977927511613889,6.337609034209941,23.738090173105196,10.849515596977458,10.5646732431756,12.277570501139941
1570179098730197.0,7.748270645174885,12.556175908705127,4.985405295743292,6.339910070536984,23.59658254745088,10.788274200874207,10.475287592333991,12.337466372152408
1570179098730197.0,7.854625097393299,12.603652037222632,4.993517357787971,6.347659209156214,23.46414558464481,10.731952317182833,10.388083037052022,12.359710610781214
1570179098731046.0,7.966030531916118,12.649978975642956,5.0014786129328614,6.363978001922349,23.35802070701965,10.686154029002855,10.307799717437117,12.376668073850158
1570179098731046.0,8.088177915586742,12.686827091075159,5.014031572257543,6.394027679997691,23.292343077430868,10.657158615280927,10.23992034548224,12.398459982726603
1570179098745005.0,8.22180134917453,12.71955882368557,5.037593823130971,6.427932858036274,23.23547863471522,10.637069924613249,10.187910322226145,12.425372303007384
1570179098745005.0,8.381630742557938,12.779209069013543,5.07185455079103,6.470282833699238,23.19286357577503,10.63311848245321,10.14832094175286,12.45979720036618
1570179098746199.0,8.56428917481815,12.875691934431549,5.105585542276634,6.506221512053479,23.147392796543755,10.63700334461302,10.11778862739081,12.49636243659106
1570179098746199.0,8.757930981862458,12.985667255653045,5.128271750592717,6.515206486971523,23.065055939227875,10.617939650510296,10.07881160073136,12.490296495815796
1570179098774921.0,8.9524327338866,13.072591826559457,5.156099842609522,6.500294693477421,22.95250505115784,10.57451682737022,10.024884212512632,12.442641221824303
1570179098774921.0,9.160247084608335,13.130895969009297,5.197334973777373,6.475775296424332,22.824752451171527,10.52217642925241,9.97072037878177,12.387727388548578
1570179098776913.0,9.38563025382319,13.195836980633219,5.252683342480216,6.440818329599912,22.66892891610861,10.460926636123713,9.921710342081537,12.330813636729642
1570179098776913.0,9.636939116694869,13.301265069720559,5.316041212549983,6.404670997555001,22.49969619118588,10.39312463023828,9.871043727205826,12.283917698484732
1570179098789886.0,9.906115400332977,13.415635672554922,5.376812830378167,6.369327320897025,22.33093528728121,10.321175732558178,9.816843745097447,12.267313382619534
1570179098789886.0,10.1740234183305,13.441329670816495,5.434781326185924,6.335914021260958,22.17316985935788,10.248972911153766,9.763200748729966,12.262817220315357
1570179098791873.0,10.427496965051626,13.35180489723744,5.49606505101452,6.302096598802597,22.027973402749566,10.178488065368914,9.71965396748836,12.24772254288037
1570179098791873.0,10.687948519206229,13.229487054187462,5.545731330706672,6.278177274964396,21.90961664111658,10.110004264858375,9.685263937167525,12.212036478129242
1570179098804848.0,10.928273760826517,13.118294866490942,5.5817625085116696,6.266847897356205,21.82532384369713,10.046855907014555,9.641985017687162,12.143893499277496
1570179098804848.0,11.108402186909954,13.007952359433782,5.616121824031018,6.26734900723194,21.77662298096663,9.994734004671033,9.58683363615819,12.056196751017197
1570179098810821.0,11.23930456947536,12.88322217964264,5.642053905444243,6.25998768641298,21.721809701866327,9.942023184289097,9.531878512991254,11.979436005715428
1570179098810821.0,11.373379974911975,12.758683944993377,5.647326218319214,6.24051161073155,21.647541558032625,9.885270337709734,9.475238780934353,11.916423837041311
1570179098827784.0,11.501394337444454,12.625835656217703,5.646714847991618,6.21881647655117,21.576826395824,9.83211682122693,9.41376693493998,11.872096439077938
1570179098827784.0,11.604874642273744,12.476359680684308,5.650719036466651,6.209710559420514,21.5377585404805,9.785135927723557,9.349944870932795,11.850086511687703
1570179098828932.0,11.669952947401537,12.333208895790069,5.660281753523978,6.207946814724429,21.518944013745813,9.736087060504376,9.292551135801546,11.836321120291345
1570179098828932.0,11.681609323988216,12.21163245276753,5.674008184063693,6.203196813848421,21.50004265568474,9.680820026841191,9.24596440109323,11.808870614132225
1570179098849717.0,11.64468396376134,12.106544416832746,5.694405035891706,6.17911748713899,21.437583748607256,9.61239654417909,9.199821143759985,11.765047887211729
1570179098849717.0,11.598881960817,12.024637935953763,5.714367658343766,6.145199472968582,21.32837564610714,9.532390061400285,9.15079239207078,11.710329716342263
1570179098851710.0,11.544131985629294,11.964174773208976,5.727627826937714,6.104606877738135,21.205918284837637,9.451638942330677,9.109658679465443,11.644486155481353
1570179098851710.0,11.510680119745238,11.91117242315467,5.741870699495534,6.063608280576508,21.098658422228553,9.377421230956797,9.068105858134283,11.534773101936414
1570179098863678.0,11.48283227812858,11.852896467848456,5.767070354720093,6.030550312374163,21.010453241722267,9.312563058444708,9.008883375187475,11.370433403468475
1570179098863678.0,11.435451245439735,11.803951136431156,5.798925387299483,6.003825850884413,20.939754146737965,9.25705306838528,8.930797171202476,11.181659549360605
1570179098878640.0,11.351402370813695,11.782520884770149,5.837172183929852,5.961358287336999,20.846206989098388,9.197743026797134,8.844792448812369,10.99388719185533
1570179098878640.0,11.24844258731946,11.782058624133416,5.887693872961263,5.907970191984681,20.717880356706857,9.128441414969547,8.757395919715703,10.808210837955027
1570179098888711.0,11.12633172688429,11.765403326890416,5.9549673976711714,5.85889283368113,20.57973438244049,9.054583239029274,8.671410346225246,10.628298814258283
1570179098888711.0,11.01915969576123,11.728509716352946,6.020842365559695,5.82396836191981,20.456950155391603,8.985534301995994,8.590562106331058,10.463694493807719
1570179098889609.0,10.92388922470319,11.703795908014111,6.0733467596008825,5.787480170073235,20.326633191711935,8.918448089419801,8.518236771780106,10.316422556892709
1570179098889609.0,10.834433845043609,11.690771673423846,6.1145076111902785,5.744045518043953,20.17834853286768,8.849823538618322,8.456643711511665,10.173993771634418
1570179098909642.0,10.726666775862492,11.661187480515851,6.146472721369643,5.689152057930815,20.009678408830766,8.777380930340922,8.406832923929871,10.040888106676405
1570179098909642.0,10.613879409957525,11.626748737842245,6.175003476558801,5.630767424602074,19.827248690309588,8.699809530820534,8.356635438188182,9.922981361410136
1570179098911554.0,10.495355874412578,11.59625485300713,6.204181004709858,5.5736877051737315,19.63721708337633,8.618746009036286,8.301005883699784,9.823110021614767
1570179098911554.0,10.393849548140937,11.575671295974884,6.229189869535908,5.52231690252867,19.45846608156419,8.541485542815076,8.251376005476196,9.73934624495763
1570179098924630.0,10.303320971356937,11.566160906184477,6.252417109222707,5.464585052420463,19.280880661931977,8.467799326023929,8.21081779254971,9.657150421183067
1570179098924630.0,10.231242713986619,11.571561998538339,6.275154394191762,5.398294614674436,19.090727287294488,8.392465595905726,8.168607143202118,9.553890756147023
1570179098931568.0,10.14674583855225,11.597965628160809,6.304581295936344,5.32578639606769,18.88298691667508,8.309463189347776,8.119138157066292,9.433687222846055
1570179098931568.0,10.049800685078221,11.634313754618685,6.331365774308161,5.2572461377692825,18.673256045703994,8.22141222432878,8.066344292213417,9.306309549315019
1570179098947661.0,9.930323745102012,11.636827061417106,6.333835338071645,5.182957025796703,18.46210348800639,8.128515601275645,8.014610325664455,9.169774965171932
1570179098947661.0,9.794820477762926,11.581904168860799,6.306107539813591,5.100693926373441,18.253267333069736,8.031839615356116,7.953005550349064,9.007698455782666
1570179098949452.0,9.634666465840185,11.50259535155736,6.257498722819383,5.0066580844866175,18.040719180775692,7.932511885908687,7.874956714724025,8.82271972045383
1570179098949452.0,9.47819884741203,11.442558767078504,6.196832801866197,4.906437847049232,17.833003254043394,7.83284431736322,7.788339387370226,8.624937660866081
1570179098970394.0,9.322290380307466,11.390457582601577,6.124778881997421,4.80078296942421,17.62903462428739,7.732567185404689,7.701572642938489,8.42759036867208
1570179098970394.0,9.186343674507745,11.327747664388873,6.0457230697219035,4.6985863621062025,17.430375629966576,7.632789795762191,7.616986670986735,8.241809378304428
1570179098971393.0,9.057119429036478,11.273431948563076,5.975048841386593,4.597261635434633,17.2259850555029,7.530727743535416,7.533609647937769,8.070829334830982
1570179098971393.0,8.944505502870575,11.249372518281548,5.914444373540461,4.50124198934212,17.019505789633097,7.42814986231067,7.452941751038553,7.905867523240849
1570179098984357.0,8.837459365178551,11.247463164843406,5.858940838125743,4.405725539666589,16.80753033332639,7.326997766683227,7.375266415676159,7.746551888007889
1570179098984357.0,8.742813044810314,11.259968572616527,5.812093285760985,4.314987459502727,16.596685379915314,7.227103014828157,7.295811374387744,7.5938189074247395
1570179098991345.0,8.640820901262398,11.290280974216358,5.776620955502419,4.226440936546908,16.38555890325626,7.127497748166349,7.2160095453953055,7.453913369975074
1570179098991345.0,8.547892088171604,11.350037379994797,5.744905858895501,4.146147732054488,16.17775872426999,7.031719165517474,7.135619588932205,7.335180921333235
1570179099007483.0,8.46066106939601,11.42435251445795,5.714419523176268,4.072064482744138,15.96765360334727,6.936169933218335,7.056895633375046,7.2395853672924195
1570179099007483.0,8.395296561314074,11.46718765044577,5.685672583133371,4.007893211705724,15.761682270873491,6.839751965534867,6.9828446467545655,7.1483763610759645
1570179099013493.0,8.325758579372424,11.458173686664436,5.6550796911532295,3.9503043929362955,15.55799219733528,6.742569163401958,6.908983026484481,7.046862510764905
1570179099013493.0,8.246303868719005,11.423321428021842,5.624718318371046,3.8994680899987446,15.364254669161179,6.646528151407242,6.834429886276546,6.942176479425325
1570179099030409.0,8.147679614790125,11.37911134422345,5.6049444744990895,3.8448482424503276,15.17233139785593,6.552214822673976,6.765363843033108,6.848065740296663
1570179099030409.0,8.056556082576815,11.336201283910992,5.598740109959503,3.788074905289604,14.982740367451417,6.462782860868623,6.704083415955632,6.766170573870111
1570179099031232.0,7.966906986440739,11.291763818963211,5.606147530236747,3.728355856841236,14.79245436311405,6.378623695076023,6.648517805344183,6.703330091894253
1570179099031232.0,7.893188620978513,11.252115764354176,5.623974161775297,3.672515778532566,14.606971823804466,6.299894962931238,6.59401548276997,6.664826406463205
1570179099044353.0,7.829696002842678,11.232068978919337,5.645693018704156,3.613163198370628,14.41977319844982,6.2256441629275985,6.541660303771812,6.6530595736997125
1570179099044353.0,7.783208036911491,11.22674159468787,5.6709337434546985,3.554209427468101,14.235667680658,6.1552214887592065,6.492983672447898,6.665314538618993
1570179099051185.0,7.730073874082518,11.206822244578573,5.696746268178104,3.4961846356327526,14.053065928012293,6.083811068047707,6.447259086114641,6.698001499873135
1570179099051185.0,7.682601075784146,11.153779480518617,5.711470857976328,3.44470799254205,13.87718413758647,6.0122476813024885,6.401670689140029,6.747341808934877
1570179099067472.0,7.639796983837237,11.0816883168542,5.724425441009313,3.39777654172494,13.70203956951054,5.941291063736834,6.35787497550592,6.810108233030839
1570179099067472.0,7.61355349647159,11.01919324362242,5.749216371980756,3.356765433791596,13.533171190683042,5.872554850580776,6.319836400406677,6.880637481514471
1570179099069180.0,7.5741304071249145,10.964337581848955,5.7853010743114375,3.3147742538059566,13.368719169170653,5.803794370168097,6.2891192737432045,6.956724773007736
1570179099069180.0,7.525856035432168,10.884940132307657,5.829587032560284,3.2763730343803363,13.214218177380694,5.735100088352945,6.26804967020767,7.0485975305816275
1570179099090304.0,7.47139671798674,10.768873842172498,5.877806607203326,3.2420029748951156,13.065417892829032,5.6662135503175275,6.263619508033691,7.1637794853565415
1570179099090304.0,7.429017649362889,10.642788890857513,5.910751971700898,3.214717820430964,12.928125462834199,5.5988494693940725,6.271209161417372,7.288406056238593
1570179099091365.0,7.388938093303881,10.520870947112709,5.921724588874105,3.1869048282309795,12.797054180069932,5.532217738121241,6.2759089407325845,7.410692164817837
1570179099091365.0,7.358731988433876,10.413249052386554,5.922219348760227,3.160965238746434,12.672872216850452,5.46549097740402,6.277033269278771,7.53861872508737
1570179099104205.0,7.329840687945253,10.31804851049516,5.922330967478826,3.1306383383265053,12.54418108596456,5.3965203162584245,6.284671044426052,7.672649839824099
1570179099104205.0,7.319053126107394,10.228236840842962,5.926667431403637,3.1011075506408385,12.41342670721102,5.328335780678578,6.29963625669586,7.8120428407052875
1570179099111020.0,7.321052011649934,10.148175699680115,5.927737574682386,3.0748551044875896,12.281439734947472,5.26133893801268,6.3206565505776675,7.963205100783763
1570179099111020.0,7.350390741162483,10.083460699771473,5.902053234769476,3.051057882530885,12.155449422854046,5.195847256279295,6.346601631610899,8.135664668517608
1570179099126978.0,7.402129603893062,10.030416949348496,5.847068768503157,3.0208936510741635,12.028614661141717,5.130465569570254,6.3768888677044595,8.334208377310711
1570179099126978.0,7.489637594146047,9.993767786898006,5.785309566756023,2.9900071367646905,11.90194033755805,5.065661646584921,6.413083292544417,8.554299489772516
1570179099128971.0,7.574931427069295,9.972403854134647,5.7289873030061145,2.957741615285072,11.77152479227601,5.000190482433426,6.463086518621175,8.788003739925623
1570179099128971.0,7.621630710986489,9.949717857682764,5.6813325759434745,2.929462498668464,11.644841644817253,4.936346234642826,6.528415974354834,9.026599082550547
1570179099149137.0,7.629596931744693,9.924511629873637,5.649126408655274,2.905519100438208,11.516079239372623,4.873775605375794,6.5985788719568355,9.248968100571892
1570179099149137.0,7.631612799459035,9.910094575217897,5.628354098925638,2.8875621597558334,11.388171694121507,4.8123249127761065,6.663171552984284,9.425881563001234
1570179099157893.0,7.612326171310589,9.890408970675898,5.6155347858564655,2.8688890352039293,11.258660577139286,4.752438697841953,6.7129307747612685,9.5500605445572
1570179099157893.0,7.58518442130852,9.856369206741533,5.61607104898645,2.854065961874075,11.13313432848327,4.697661893959831,6.744868861925237,9.661410684080213
1570179099164053.0,7.550195326381265,9.83005047364522,5.630440532664753,2.842837852691521,11.006401790728871,4.6461846901774715,6.7626850592614245,9.793071713640087
1570179099164053.0,7.515384066303977,9.813327482557598,5.649580661120661,2.837593255229484,10.883598035865719,4.596735600889836,6.771850482152239,9.946146413165838
1570179099172854.0,7.461805411622831,9.79856203335832,5.664826684798156,2.8339137661391716,10.760896745225377,4.5467996309093,6.780597365319616,10.114840124733353
1570179099172854.0,7.404243856247702,9.782545388745286,5.659450508337668,2.832027625652879,10.643193247078816,4.498606441594454,6.790604981900581,10.292738223817786
1570179099187823.0,7.345537366008733,9.763698981067266,5.631279654811527,2.8283998395613033,10.528983231358156,4.455362860452606,6.803133411708011,10.479745116063373
1570179099187823.0,7.294492391319442,9.757416019943523,5.602584003107893,2.827901607015184,10.425444300809426,4.417572217480183,6.818308025431877,10.667758875022562
1570179099188811.0,7.248448541958461,9.773416702989582,5.5897016251200995,2.827506019407586,10.326507942547567,4.3797920895842175,6.840157718802572,10.841257994553201
1570179099188811.0,7.224813046824924,9.808964360444039,5.594788716615571,2.8301469116546274,10.234165133231969,4.341609832281106,6.866255773732847,11.01640056396753
