timestamp,emg1,emg2,emg3,emg4,emg5,emg6,emg7,emg8
1570181512859707,-8,-3,-4,-11,-14,-3,-1,-1
1570181512859707,-22,1,5,30,42,7,5,-2
1570181512859707,-11,-1,1,-4,-9,-1,2,12
1570181512859707,-11,-3,1,8,7,1,7,28
1570181512860596,3,-2,-7,-20,-20,-6,-11,-12
1570181512860596,22,-6,-10,-36,-48,-7,-11,-15
1570181512862660,-19,-3,6,43,48,2,0,-1
1570181512862660,-58,-5,2,16,17,-5,-9,-20
1570181512870563,22,4,6,6,7,6,6,18
1570181512870563,-9,1,2,-1,-8,1,4,8
1570181512877567,23,-1,-10,-27,-27,-5,-2,16
1570181512877567,16,-5,-8,-14,-14,0,1,7
1570181512885587,-10,-5,-2,14,14,1,1,-10
1570181512885587,76,17,-2,-10,-8,-7,-4,2
1570181512902529,-12,0,5,-1,-5,8,11,8
1570181512902529,-32,-5,-2,5,-2,-5,-30,-22
1570181512906475,22,6,1,4,14,1,1,15
1570181512906475,-6,-6,0,1,2,7,8,1
1570181512931422,25,9,-10,-7,-7,-5,-6,0
1570181512931422,8,-10,-12,-5,-4,2,15,19
1570181512933394,15,8,15,2,-4,-5,-12,-34
1570181512933394,-25,22,-27,-5,-1,-4,-6,-7
1570181512959332,-21,-54,34,17,10,5,14,-13
1570181512959332,50,35,4,-2,-4,0,-19,-41
1570181512990247,6,8,2,-8,-4,-1,0,8
1570181512990247,-8,0,4,18,23,8,0,-5
1570181513006249,10,4,-7,-34,-48,-21,11,6
1570181513006249,33,6,-3,11,16,19,-14,2
1570181513007198,-36,-12,0,7,12,-19,-2,-19
1570181513007198,32,6,-5,-11,-15,-8,2,4
1570181513008201,13,13,7,4,5,0,1,-8
1570181513008201,-34,-10,3,-9,-12,1,0,-3
1570181513012391,34,21,4,-5,-3,6,2,15
1570181513012391,-3,-6,-4,-3,1,-4,-4,6
1570181513013183,-31,-24,-9,-21,-20,1,2,16
1570181513013183,10,10,4,8,-1,-7,-6,-36
1570181513020163,-9,-6,4,31,17,12,2,-1
1570181513020163,18,8,2,-2,13,2,3,-4
1570181513026190,10,5,-1,2,5,5,-6,-9
1570181513026190,-29,-5,3,-4,-4,0,6,0
1570181513043111,7,-10,-6,-6,-7,-4,2,-4
1570181513043111,10,0,-1,-4,-8,3,-7,27
1570181513058112,-25,-9,0,9,8,-1,-6,-5
1570181513058112,2,-16,-26,-14,-2,-2,13,44
1570181513059057,12,32,24,1,-1,2,-12,-29
1570181513059057,-2,-7,-2,-5,-11,-4,-8,-34
1570181513080048,17,14,16,20,23,3,-15,-45
1570181513080048,-25,-31,-9,-2,-5,-6,3,17
1570181513081998,2,2,-12,-13,-10,-2,-1,10
1570181513081998,9,20,8,3,-3,-1,5,-2
1570181513093969,-20,-25,-15,-4,1,7,8,26
1570181513093969,-6,-5,-6,-9,-6,-3,-5,-11
1570181513109921,-9,-11,-3,10,12,3,-2,-21
1570181513109921,-4,3,2,1,2,3,1,-27
1570181513117908,20,16,2,6,4,2,11,23
1570181513117908,17,13,9,-1,-3,-1,-1,-15
1570181513119129,0,-4,-6,-8,-10,-5,-10,-12
1570181513119129,-19,-10,-10,-10,-1,-3,3,22
1570181513140180,19,18,11,-2,-2,-5,-15,-55
1570181513140180,13,15,14,14,-7,-7,-6,-14
1570181513141835,-32,-30,-15,8,21,13,10,38
1570181513141835,-27,-25,-11,0,-3,0,1,17
1570181513154028,-9,-7,-15,-6,0,1,0,-8
1570181513154028,20,49,3,-1,3,-2,1,1
1570181513169811,44,-31,30,8,-6,6,11,-30
1570181513169811,-49,-17,-2,-7,-20,-11,-11,23
1570181513178035,-11,-33,-9,8,20,7,4,24
1570181513178035,16,7,-17,-8,-5,-3,24,13
1570181513179558,-7,2,-40,-12,-6,-3,-5,21
1570181513179558,47,38,12,3,4,4,0,-7
1570181513200680,-11,13,75,24,0,-7,7,-52
1570181513200680,-7,-17,-3,-4,4,0,-5,14
1570181513201835,9,14,0,-6,-4,-2,5,35
1570181513201835,2,-15,-12,2,6,-4,-8,-5
1570181513222732,0,2,-22,-8,-4,0,-1,20
1570181513222732,11,17,8,1,3,4,7,-3
1570181513224614,1,5,7,-2,-6,-3,0,-54
1570181513224614,-20,-36,-23,-2,-3,-3,-4,8
1570181513236826,-9,-9,-11,-3,0,-3,1,10
1570181513236826,-16,-13,2,5,3,-3,-25,-34
1570181513245561,15,4,-23,-15,-11,-5,-1,4
1570181513245561,-2,-7,28,8,5,3,10,-2
1570181513260634,53,32,14,4,2,5,-6,-23
1570181513260634,-33,-25,-5,-2,-1,-3,-2,21
1570181513261519,7,17,4,-3,-3,0,-1,18
1570181513261519,6,6,-7,-3,0,2,1,1
1570181513273522,25,-12,-23,-9,-6,-3,-2,21
1570181513273522,9,11,11,9,5,7,2,11
1570181513282587,-7,-5,-1,-1,0,-2,-4,15
1570181513282587,-8,1,3,0,-4,-1,3,13
1570181513297486,9,23,-24,-10,-3,-4,-7,13
1570181513297486,-8,-7,26,9,2,0,1,-5
1570181513299422,-12,-1,10,0,0,-2,-2,16
1570181513299422,-23,-14,-13,-2,1,1,1,-15
1570181513320410,-10,15,-15,-6,-4,0,2,27
1570181513320410,45,-25,21,-4,-4,1,-1,1
1570181513321356,-99,-9,17,12,7,-2,-6,-19
1570181513321356,19,21,0,-3,3,-1,1,16
1570181513333332,-14,-10,-7,4,3,0,4,22
1570181513333332,-7,8,-6,-6,-2,-3,-2,15
1570181513343299,18,-16,-24,-11,-7,1,1,24
1570181513343299,8,12,22,6,3,2,-1,5
1570181513357391,-31,-18,4,6,6,-2,-3,-2
1570181513357391,12,5,-11,-3,1,-1,-3,-4
1570181513364243,1,-1,-7,-3,-3,3,20,3
1570181513364243,-5,3,-15,-4,-3,-5,3,-4
1570181513379462,25,2,-4,-5,-7,-7,-8,-2
1570181513379462,-11,-9,2,1,-2,-8,-7,-8
1570181513388179,13,11,3,-4,-6,4,1,11
1570181513388179,5,9,2,3,4,8,4,-6
1570181513394166,-7,-27,9,3,2,2,3,-17
1570181513394166,-2,8,-4,0,3,2,7,14
1570181513403138,16,16,0,-1,1,0,-10,24
1570181513403138,1,-8,3,-5,-8,-3,-7,0
1570181513417493,-30,-17,11,2,-1,-1,-1,-6
1570181513417493,3,-1,-11,-1,0,1,0,3
1570181513424081,-1,-12,-7,-6,-1,1,5,8
1570181513424081,10,18,-10,0,4,5,-5,2
1570181513439091,14,6,-79,-23,-12,-4,-1,30
1570181513439091,-16,-29,65,32,15,9,1,-42
1570181513448149,-13,-4,-1,0,1,-6,-8,-21
1570181513448149,7,11,8,1,-2,-5,-2,-4
1570181513454278,-9,-12,-22,-7,-1,1,1,-6
1570181513454278,13,38,-20,-10,-4,-3,9,49
1570181513462986,-13,-19,32,10,2,0,-4,51
1570181513462986,26,-9,-81,-30,-9,-5,1,93
1570181513476949,-9,19,65,45,18,8,8,-75
1570181513476949,-9,-2,-50,-15,-12,-4,15,-59
1570181513484029,29,14,18,9,3,-3,-29,-128
1570181513484029,-7,-9,-23,-16,-16,-2,4,-82
1570181513500076,5,-3,2,-5,4,0,-4,-76
1570181513500076,8,10,-3,-2,2,0,-3,-80
1570181513502046,17,42,-31,-13,-6,-1,9,-13
1570181513502046,-18,-72,-64,-7,24,3,0,-37
1570181513514015,-12,13,95,43,5,8,3,-46
1570181513514015,-19,-32,-10,-7,-27,-11,-7,-35
1570181513522820,21,26,-27,-15,-16,-11,-2,-3
1570181513522820,-45,4,13,3,-7,-1,-3,-20
1570181513536822,-4,-19,7,0,15,2,5,16
1570181513536822,29,48,-13,-9,9,3,-2,29
1570181513543767,4,-40,21,15,5,2,4,-7
1570181513543767,-18,28,1,12,18,4,2,-19
1570181513559723,-1,-25,-7,-9,-11,-5,-8,3
1570181513559723,24,0,-53,-12,-18,-6,-2,42
1570181513561715,7,-58,-3,-9,-2,-1,-14,12
1570181513561715,-3,59,125,42,10,5,3,-56
1570181513582705,-8,-10,-23,-9,3,0,2,15
1570181513582705,-14,-7,2,7,3,4,-3,-10
1570181513584653,12,40,-43,-16,-5,-4,9,21
1570181513584653,14,-53,-6,-4,-5,-3,-4,-14
1570181513596671,-14,15,-4,-6,-7,-4,-4,15
1570181513596671,29,11,5,2,10,4,3,16
1570181513603696,-68,5,12,9,9,2,2,10
1570181513603696,17,4,22,8,4,2,3,13
1570181513619568,13,12,-40,-19,-23,-8,-3,20
1570181513619568,-3,-5,-5,-6,-2,-2,3,17
1570181513627536,0,-51,-30,-1,16,5,-2,13
1570181513627536,-4,34,42,12,-24,-2,6,6
1570181513642500,11,-14,-6,-8,-6,1,-23,23
1570181513642500,-13,-16,-1,1,2,-3,-10,-7
1570181513644492,-2,-16,-27,0,3,1,8,8
1570181513644492,86,3,12,-2,6,-1,-5,14
1570181513656468,-37,-70,-65,-18,-7,-7,2,18
1570181513656468,-3,62,79,27,15,10,5,-24
1570181513663908,-18,-33,26,5,3,-1,-3,-8
1570181513663908,19,15,-13,-4,-9,-3,2,10
1570181513689373,-10,21,0,-2,-7,-4,-3,-9
1570181513689373,-9,19,-9,0,10,4,3,19
1570181513690371,28,3,-15,-8,-14,-3,3,6
1570181513690371,6,63,-4,-7,-4,-6,-9,0
1570181513702580,-26,-14,30,10,2,2,5,-6
1570181513702580,3,-27,-29,-10,-2,-6,-10,-5
1570181513704335,0,54,9,3,3,7,14,25
1570181513704335,-11,-24,-14,-1,2,1,-13,20
1570181513717448,31,8,-9,4,23,6,6,115
1570181513717448,10,-26,-72,-13,-3,-3,0,54
1570181513723281,15,48,82,20,-24,-1,9,-34
1570181513723281,-59,-24,-9,-19,-35,-13,-9,-97
1570181513740239,5,16,-12,-9,-7,-4,2,-116
1570181513740239,-40,-31,-48,-11,0,1,0,-56
1570181513748217,-27,-70,29,14,24,5,-1,-54
1570181513748217,12,0,-6,6,13,5,7,27
1570181513762186,-12,1,25,-3,-6,1,35,-21
1570181513762186,68,17,-9,-8,-3,-12,-18,49
1570181513764176,-52,-13,-31,-7,-4,-7,-26,92
1570181513764176,0,-19,-24,-7,6,6,-6,65
1570181513776149,-7,-8,-5,0,3,7,2,15
1570181513776149,-3,-6,32,4,-8,5,3,-81
1570181513793094,19,36,0,-1,-4,-2,4,-107
1570181513793094,-3,-23,-16,-5,-1,-7,1,-70
1570181513800141,31,37,15,6,4,2,-15,-70
1570181513800141,8,8,29,12,6,4,-49,-83
1570181513802072,91,15,-25,-4,-3,-5,-11,-58
1570181513802072,-83,-38,10,9,29,7,3,-45
1570181513823014,29,7,-8,-8,-44,-13,-4,-42
1570181513823014,-62,-24,21,-3,-5,-2,20,-27
1570181513824018,23,-14,-16,-5,3,1,3,-17
1570181513824018,45,18,-10,1,6,1,1,-26
1570181513836068,-22,6,-2,-3,-11,-8,-6,-13
1570181513836068,-1,4,5,-3,-6,-2,8,-2
1570181513845010,-34,6,10,2,-3,-4,0,-17
1570181513845010,-17,-13,1,0,4,-1,8,-18
1570181513860142,29,14,2,3,15,1,-10,3
1570181513860142,-3,3,-5,0,-3,-3,4,-2
1570181513861921,-16,-16,7,3,9,3,5,-14
1570181513861921,8,22,6,-2,-7,-1,0,-4
1570181513883047,-61,-26,-14,-5,-2,-3,-7,7
1570181513883047,-8,-24,5,-1,-4,-3,-2,-5
1570181513884515,20,8,-4,2,0,2,4,-7
1570181513884515,-6,-1,26,-1,-9,-3,-2,1
1570181513896938,19,-1,1,3,4,2,4,-1
1570181513896938,-20,-2,-4,2,5,2,10,-5
1570181513905795,-33,-30,-25,-7,-8,-4,-2,-33
1570181513905795,81,21,-6,-6,-9,-6,-15,-15
1570181513920796,-32,-10,-5,-2,5,-2,-7,-78
1570181513920796,34,-10,2,2,-2,1,3,-65
1570181513921753,-23,-1,-11,-7,-7,-4,-1,-64
1570181513921753,11,21,-4,-2,-4,-2,5,-45
1570181513942751,11,5,-3,-4,2,3,1,-31
1570181513942751,-8,10,10,4,0,2,1,-19
1570181513943693,8,18,10,5,2,0,-2,-4
1570181513943693,-4,-7,1,2,0,2,6,-1
1570181513965693,-1,6,7,3,2,0,-2,6
1570181513965693,-2,-10,-3,-7,-6,-2,0,5
1570181513966630,-30,5,8,0,0,1,1,8
1570181513966630,11,-6,4,6,5,6,13,33
1570181513978607,4,8,-14,-10,-10,-20,-16,-29
1570181513978607,12,25,13,3,2,12,8,14
1570181513987842,110,88,22,8,5,8,16,15
1570181513987842,-117,-94,-47,-20,-14,-12,-21,-117
1570181514001572,92,-2,-28,-10,-2,-2,-3,-102
1570181514001572,0,11,1,2,0,-16,-16,-128
1570181514008634,10,10,32,10,4,3,8,-64
1570181514008634,89,33,-11,-4,-5,-5,-3,-18
1570181514025526,-32,5,18,10,8,7,10,50
1570181514025526,-22,-25,-8,-2,-3,-2,1,54
1570181514026472,-36,-15,-2,-2,3,2,-1,66
1570181514026472,-37,13,14,6,4,3,2,62
1570181514038439,-34,-28,-7,-1,3,2,2,76
1570181514038439,18,19,5,1,0,0,2,78
1570181514047421,-37,-27,-20,-13,-10,-3,-7,45
1570181514047421,20,11,3,1,-3,-1,1,51
1570181514062398,21,37,18,10,8,5,0,46
1570181514062398,-17,-5,-2,1,1,2,4,47
1570181514076345,7,-7,-12,-7,-6,-6,-6,24
1570181514076345,-20,-8,1,-1,-2,0,0,23
1570181514085321,4,-1,-3,1,1,4,4,40
1570181514085321,-10,11,10,-1,0,-3,-4,16
1570181514086523,6,-5,-7,-3,-3,-2,-4,12
1570181514086523,0,-1,-2,-1,-2,2,2,16
1570181514107261,44,36,-2,-5,-3,-1,3,22
1570181514107261,-52,-22,28,6,3,1,0,-3
1570181514109251,22,1,-10,2,1,-4,-5,-2
1570181514109251,-1,14,15,7,2,2,1,7
1570181514122245,12,2,3,3,1,0,2,6
1570181514122245,-1,12,-20,-13,-5,-3,-2,2
1570181514129197,-14,-1,15,5,3,3,2,1
1570181514129197,10,-5,-15,-8,-1,-4,-1,1
1570181514145267,-14,12,8,5,2,0,0,2
1570181514145267,18,-26,-7,3,0,-1,1,7
1570181514147301,-18,-1,6,1,-1,-1,9,-28
1570181514147301,9,4,-8,-3,-2,-4,-15,-2
1570181514168146,15,-22,6,-3,-5,0,1,4
1570181514168146,1,-18,13,5,2,1,-2,2
1570181514169523,14,3,-10,-1,-1,2,1,9
1570181514169523,-47,-8,-1,-3,-2,1,0,1
1570181514182056,32,14,0,0,-1,-1,-2,2
1570181514182056,-9,2,-1,-2,0,1,0,-2
1570181514189044,-18,6,-1,-2,0,0,-4,4
1570181514189044,38,5,-2,-2,-2,-1,6,-3
1570181514204993,-30,-2,-2,-3,-1,0,4,15
1570181514204993,20,44,4,-2,0,0,-2,-22
1570181514207048,9,-18,-23,-9,-3,0,-1,2
1570181514207048,-28,-13,33,15,1,3,4,-1
1570181514227932,-17,-7,1,4,2,0,2,-14
1570181514227932,22,0,-12,-4,-3,-4,-5,-3
1570181514229237,-6,15,4,-1,-1,-2,-3,-11
1570181514229237,3,-51,-15,-1,1,2,2,-6
1570181514240946,-19,-7,-26,-6,-1,-1,3,8
1570181514240946,5,15,33,9,1,-2,-2,-6
1570181514249934,-6,-11,-1,-2,-2,-6,-9,-3
1570181514249934,13,46,-5,-5,-4,-2,0,7
1570181514264868,12,-12,-9,-2,0,3,0,1
1570181514264868,-51,-65,-36,-7,1,4,11,24
1570181514266833,38,-12,25,3,-4,-8,-19,-36
1570181514266833,-13,-8,-3,0,3,2,3,1
1570181514287871,9,20,-9,-6,-5,-4,-5,-7
1570181514287871,-8,8,-9,2,0,2,4,5
1570181514289767,-19,-8,7,2,1,4,12,2
1570181514289767,22,22,-9,-12,-4,-5,-15,12
1570181514301736,-18,-27,17,12,8,4,-4,-12
1570181514301736,13,4,-18,-13,-7,-5,-2,3
1570181514310713,-3,24,-5,-2,-1,-2,1,6
1570181514310713,9,-9,-1,5,2,2,4,-6
1570181514324674,-15,-1,17,0,-2,1,2,7
1570181514324674,17,32,-13,-4,-1,4,1,-2
1570181514326670,1,-40,3,3,-2,-2,-7,4
1570181514326670,-26,14,6,-4,-6,-8,-9,-12
1570181514355591,-2,-7,-4,-3,-2,-3,-9,-18
1570181514355591,10,6,7,1,0,1,2,-1
1570181514357587,1,23,-2,-1,2,3,3,13
1570181514357587,9,-2,-12,1,3,5,11,13
1570181514361580,-29,0,8,-1,-4,-3,6,-38
1570181514361580,6,-4,11,8,3,-3,-21,-5
1570181514370551,-7,-9,-6,-5,-1,2,3,8
1570181514370551,-4,3,-2,-1,0,-2,-1,-1
1570181514385512,21,36,15,4,2,4,9,24
1570181514385512,-10,-43,0,0,-1,-3,-3,34
1570181514386510,-10,-19,-8,-1,-2,-2,-4,83
1570181514386510,-8,1,5,1,0,1,-3,30
1570181514407451,11,19,7,-1,1,1,-2,0
1570181514407451,5,13,-2,-2,-1,-3,3,-45
1570181514409445,-15,15,0,-3,-4,-5,-5,-65
1570181514409445,7,-6,7,4,1,1,4,-41
1570181514421413,-2,-4,-4,1,2,2,2,-35
1570181514421413,7,-3,-7,-4,1,2,-9,16
1570181514430390,7,-2,-10,-4,-1,-2,2,-19
1570181514430390,2,3,10,2,3,5,6,-2
1570181514445349,-16,-27,-3,-3,-4,-7,-13,0
1570181514445349,-12,-4,2,2,0,-1,6,-3
1570181514446415,4,0,5,3,3,3,3,7
1570181514446415,2,19,-10,-8,-3,1,2,19
1570181514467290,8,7,-2,-4,-4,-1,-9,-4
1570181514467290,-3,-12,-14,0,1,0,6,1
1570181514469286,-4,-24,22,5,4,6,8,6
1570181514469286,16,30,-1,2,-1,0,1,-1
1570181514481297,-8,-18,-8,-5,-7,-7,-7,2
1570181514481297,-1,17,0,-4,-5,0,9,-20
1570181514497930,-2,-3,-14,0,2,-2,-14,15
1570181514497930,-9,-20,-8,-4,-1,-2,0,-4
1570181514505190,6,1,4,5,3,4,2,6
1570181514505190,-3,8,12,2,1,0,0,-5
1570181514506188,7,-1,-12,-4,-1,-1,5,-8
1570181514506188,-8,-11,-3,-3,-3,-2,-5,14
1570181514527131,8,11,-7,1,2,-2,-4,5
1570181514527131,3,-13,14,6,4,4,-2,9
1570181514529177,-4,14,9,-3,-1,0,3,13
1570181514529177,-7,1,-5,-5,-5,-6,-10,-12
1570181514541094,3,9,-12,-4,0,2,5,-4
1570181514541094,4,8,8,6,3,3,1,-6
1570181514550311,-4,-16,-16,-8,-9,-4,8,12
1570181514550311,-4,-2,7,4,0,-4,-8,-26
1570181514565063,-3,-20,-6,-3,0,-1,2,0
1570181514565063,-10,-7,-14,-10,-5,-4,-6,-9
1570181514567024,7,22,-8,3,1,1,-3,16
1570181514567024,1,-13,12,6,4,5,10,15
1570181514586972,-6,-4,-1,-5,-5,-2,-1,15
1570181514586972,13,5,-9,-5,-6,-4,-5,19
1570181514594950,-7,-6,3,-2,0,1,-4,-14
1570181514594950,7,7,1,2,0,0,1,10
1570181514600987,-4,-12,-7,2,0,-2,-11,-14
1570181514600987,-2,-8,5,-2,-2,-3,-1,1
1570181514609924,-5,12,7,1,0,-2,-4,3
1570181514609924,7,-5,1,-2,1,1,1,-2
1570181514624954,-26,2,2,-4,-2,1,11,9
1570181514624954,4,3,1,7,2,3,4,39
1570181514631021,14,7,-2,-8,0,1,-15,49
1570181514631021,-13,-14,1,2,4,-4,-1,-33
1570181514647885,-11,-6,-4,-3,-3,-6,1,-21
1570181514647885,9,4,1,0,5,-1,-4,-10
1570181514648805,7,6,5,19,3,8,19,-42
1570181514648805,-8,2,3,-13,-7,-3,1,-9
1570181514660818,20,11,4,-3,-8,1,-4,5
1570181514660818,-5,-10,-14,21,17,3,3,-11
1570181514669749,-25,3,8,-19,-9,-9,13,-80
1570181514669749,34,0,-5,-10,-5,10,-14,44
1570181514685206,18,5,14,11,-2,0,-45,-4
1570181514685206,0,3,6,12,5,12,-8,5
1570181514686872,9,0,-5,14,-7,-12,-15,-5
1570181514686872,-7,-1,-5,8,15,-9,-2,-37
1570181514707648,6,-7,-12,-13,8,9,1,3
1570181514707648,0,3,11,-10,-34,-18,-8,-13
1570181514709642,-4,-1,5,-5,-27,0,-6,-6
1570181514709642,-10,4,9,1,-12,-16,-8,-17
1570181514721611,-3,-2,-2,-9,6,-21,12,9
1570181514721611,-17,-14,-22,-25,19,33,18,-17
1570181514730588,-2,2,-2,5,0,-3,-5,14
1570181514730588,1,0,1,-10,-3,-14,-4,19
1570181514744550,10,4,-1,12,5,7,12,34
1570181514744550,-14,-6,-5,-16,-14,-30,-12,13
1570181514751530,0,-1,0,8,16,7,5,37
1570181514751530,0,-2,-3,18,10,20,7,14
1570181514774472,-10,0,-5,6,0,-3,-1,-11
1570181514774472,-5,3,9,6,0,1,4,-13
1570181514776464,-8,-6,-9,-6,7,5,-2,-16
1570181514776464,-3,2,3,-1,-6,-2,5,-21
1570181514781450,-3,-1,3,-1,-8,-1,5,-14
1570181514781450,18,8,12,-2,-2,-2,-11,-8
1570181514797496,4,-2,-7,-3,-7,2,-3,-10
1570181514797496,3,-2,-4,-4,-1,1,6,-7
1570181514804388,-8,-1,0,-11,-2,-3,-3,-7
1570181514804388,-4,3,-5,-4,2,4,12,17
1570181514811411,-16,-17,-8,0,4,-8,-13,-26
1570181514811411,-2,0,2,6,-4,2,-1,4
1570181514827326,-3,-2,0,7,-3,2,3,6
1570181514827326,-5,-2,0,16,2,-12,-6,-16
1570181514829321,6,-7,-13,-29,2,-4,3,12
1570181514829321,11,1,-1,-4,-17,0,20,10
1570181514841290,11,-3,3,5,8,2,1,-3
1570181514841290,22,-2,-5,-7,-14,-7,4,11
1570181514857294,7,-2,1,4,6,5,0,1
1570181514857294,5,-4,-1,3,11,5,-8,5
1570181514864269,13,2,-2,-5,-6,-3,9,20
1570181514864269,-13,-4,0,3,-1,1,-4,-20
1570181514871248,-4,3,-2,0,0,-1,0,2
1570181514871248,-19,-4,-5,-4,1,-3,-7,-18
1570181514888165,-11,-1,-1,-1,-3,5,18,12
1570181514888165,6,5,0,-3,0,-1,-6,20
1570181514889163,-23,-7,-1,3,6,2,2,-2
1570181514889163,1,6,0,1,-2,-3,3,12
1570181514901154,0,5,4,6,3,4,-5,1
1570181514901154,-8,-4,-4,-2,0,-1,-2,-6
1570181514910464,5,3,3,3,-2,-3,3,3
1570181514910464,-9,-8,1,0,4,2,-6,-3
1570181514924101,-11,-6,-11,-10,-3,-3,-5,-12
1570181514924101,-7,-2,-1,-6,-3,-2,2,-8
1570181514931052,9,1,1,-3,-5,-1,0,6
1570181514931052,-5,-3,-4,-1,0,2,2,-1
1570181514948005,5,2,6,2,0,-2,-4,-2
1570181514948005,3,1,1,-2,-4,-2,-2,-14
1570181514949003,3,1,-3,-3,-2,-1,0,7
1570181514949003,7,2,0,0,2,1,-3,-4
1570181514969948,6,0,0,-1,-1,1,0,4
1570181514969948,1,-4,-2,-3,1,1,-1,9
1570181514972036,-6,-6,-1,1,-2,-5,-8,-17
1570181514972036,-1,-3,-3,-1,-1,-1,3,19
1570181514983909,-6,-3,-2,-1,2,0,0,1
1570181514983909,5,2,2,3,2,1,3,20
1570181514990891,4,4,-2,-1,2,1,0,0
1570181514990891,9,5,-4,2,0,-2,0,6
1570181515007845,-10,-13,1,-3,-1,1,4,-5
1570181515007845,-3,-4,-4,-1,-2,0,1,-6
1570181515008843,3,6,4,1,0,1,3,4
1570181515008843,-3,0,-3,0,-1,1,-2,-6
1570181515029821,-5,2,3,0,0,3,7,-4
1570181515029821,-4,3,0,-2,-2,-2,-6,1
1570181515031781,-8,0,1,2,-2,-3,-6,-2
1570181515031781,-10,0,3,0,2,0,-4,3
1570181515044841,1,-1,0,0,-2,-1,-2,10
1570181515044841,3,-2,-1,0,-2,0,10,11
1570181515050734,6,2,2,4,0,1,-4,11
1570181515050734,0,-1,-1,-2,-2,-3,-6,7
1570181515067685,12,30,5,3,0,-3,-4,7
1570181515067685,0,0,-6,-1,-4,0,1,12
1570181515068682,1,-17,9,-3,-3,2,3,14
1570181515068682,-10,-23,-10,-4,-5,-3,-1,-1
1570181515090725,-3,-1,-3,1,-1,-1,-5,4
1570181515090725,-1,3,-1,1,2,1,0,-4
1570181515091625,7,18,1,0,4,0,1,-3
1570181515091625,2,4,3,1,5,1,-1,-13
1570181515104717,0,-2,-4,-1,3,-3,-1,-8
1570181515104717,-4,3,4,-1,2,-1,-3,-24
1570181515111800,2,-4,-1,1,2,1,3,-17
1570181515111800,2,6,6,2,0,-2,-1,-20
1570181515135691,3,-3,-2,0,0,-1,-11,-25
1570181515135691,-2,-3,1,-1,2,1,0,-17
1570181515137127,-1,-6,-5,-3,0,-1,-2,-5
1570181515137127,5,3,-4,-1,-1,-1,-2,-13
1570181515150632,6,0,6,4,-1,0,-8,-30
1570181515150632,1,-5,1,-1,1,-1,0,-11
1570181515151465,3,8,-7,-4,-2,-4,-4,-14
1570181515151465,-4,-18,-7,-4,-2,0,0,2
1570181515164431,-3,3,5,0,-1,-1,1,7
1570181515164431,3,-15,-4,3,1,0,-2,-13
1570181515190362,5,21,5,3,-2,1,0,1
1570181515190362,-12,-17,-5,-4,-1,0,6,0
1570181515190362,-1,-5,0,0,0,1,1,30
1570181515190362,-6,3,-5,-5,-3,-2,5,11
1570181515194400,-2,4,1,2,1,-2,2,3
1570181515194400,1,11,3,-1,-4,2,1,0
1570181515210432,0,-8,-4,-2,1,1,2,-2
1570181515210432,5,3,0,-1,-1,-1,1,4
1570181515211785,-1,-5,1,0,0,1,2,5
1570181515211785,3,7,0,0,1,-1,1,3
1570181515224419,-5,-6,-5,-1,-1,-1,1,-5
1570181515224419,-1,3,-1,-3,-3,-1,-4,-1
1570181515231295,-1,-5,-2,-1,0,-2,-2,-5
1570181515231295,3,2,1,-2,0,1,2,8
1570181515247255,-1,1,0,0,-1,0,0,-2
1570181515247255,2,2,-1,-2,3,4,10,9
1570181515254189,13,6,3,1,-2,-2,-21,-33
1570181515254189,-5,1,5,5,2,-1,-7,-13
1570181515270534,-7,-6,-7,-3,-3,-2,4,3
1570181515270534,6,21,8,6,-1,-2,-4,-6
1570181515272139,-11,-17,-7,-4,-1,3,11,15
1570181515272139,0,-12,-1,0,-1,0,-2,-3
1570181515284328,1,4,1,2,1,-3,-5,-14
1570181515284328,-1,-2,-3,-4,0,-1,-3,1
1570181515293090,-2,4,-2,0,0,0,5,10
1570181515293090,2,8,1,0,-3,0,1,7
1570181515308203,-5,-8,-1,-2,-1,1,3,12
1570181515308203,2,-1,1,1,1,-2,-3,5
1570181515309044,3,0,0,1,-2,-3,-4,7
1570181515309044,-1,0,-3,1,0,-1,1,0
1570181515330362,-2,1,0,-1,-1,-2,-3,-10
1570181515330362,-3,-4,-4,-6,-5,-1,8,27
1570181515332042,-2,-2,2,3,-1,0,-4,-12
1570181515332042,-1,3,-1,-2,-3,-1,-1,6
1570181515343952,14,7,3,0,-1,-2,-5,14
1570181515343952,-8,-10,-5,-3,-1,-1,-1,1
1570181515352925,4,-5,-3,-1,0,-1,5,5
1570181515352925,-4,4,-2,-3,1,1,-1,-4
1570181515367171,1,19,7,5,2,0,1,12
1570181515367171,1,-16,-1,-3,-2,0,-6,-13
1570181515374916,1,-9,-6,-4,-3,-2,2,11
1570181515374916,-4,-22,-8,-1,0,-1,-2,-7
1570181515390210,-7,-7,-5,0,0,-1,-1,-16
1570181515390210,-7,11,4,5,0,-1,-1,1
1570181515391828,5,5,1,-1,0,-3,-6,-16
1570181515391828,-7,3,0,-1,0,3,4,5
1570181515403791,-14,-5,-3,0,-2,2,2,8
1570181515403791,12,4,9,7,0,-7,-10,-2
1570181515412772,9,3,1,-2,0,-1,3,7
1570181515412772,20,4,0,-6,2,0,3,10
1570181515427875,4,-6,0,1,1,1,-4,-25
1570181515427875,5,-5,-7,-4,-3,1,0,-6
1570181515429720,-1,0,-1,-2,0,1,1,3
1570181515429720,1,6,2,-1,-4,-3,-4,-7
1570181515450669,-2,-5,-5,-5,-1,-1,5,-1
1570181515450669,-7,-4,-2,-2,1,1,2,-3
1570181515452658,-7,-1,0,0,0,0,2,0
1570181515452658,-8,6,-3,-4,-2,-5,-8,-9
1570181515464625,-10,-17,-4,-1,0,-1,1,1
1570181515464625,-5,5,3,1,0,0,-2,-2
1570181515472604,7,-16,-6,-3,-2,-2,2,7
1570181515472604,18,1,-2,-1,-1,2,9,33
1570181515487938,-2,12,2,-1,-1,0,-2,-2
1570181515487938,-3,-5,-1,-1,0,0,-1,-3
1570181515489566,6,-1,-4,-5,-2,-1,2,2
1570181515489566,-2,5,4,1,-2,-5,-3,10
1570181515517684,9,-2,0,-1,1,-1,-5,-14
1570181515517684,-11,3,-1,1,0,-4,-5,3
1570181515524689,0,2,5,0,-1,2,1,4
1570181515524689,-18,-4,-1,2,1,0,-3,-22
1570181515525475,2,-2,-4,-2,-1,0,4,8
1570181515525475,-3,9,-1,-2,-1,0,1,1
1570181515532582,-1,-16,-1,1,2,-1,-1,0
1570181515532582,3,3,3,-2,0,1,-2,1
1570181515547621,-4,13,-1,-1,-2,-1,-4,3
1570181515547621,-8,-30,-10,-2,-1,-1,-7,-25
1570181515549477,6,0,-2,2,0,-3,-1,-7
1570181515549477,-4,4,0,2,2,1,-2,-7
1570181515578545,3,-4,1,0,-1,1,0,0
1570181515578545,17,4,2,0,-4,-3,-6,-18
1570181515579321,13,2,-2,-2,0,-1,3,12
1570181515579321,13,-1,-1,-1,-1,2,5,8
1570181515584358,4,2,2,1,-2,-3,-3,-6
1570181515584358,1,2,-2,-2,0,1,4,9
1570181515592353,4,-2,-2,0,-2,-1,-2,-3
1570181515592353,16,4,2,1,-2,-2,1,-1
1570181515607242,3,-5,-3,-1,0,-2,1,6
1570181515607242,8,-3,-2,-2,1,0,2,7
1570181515609244,4,11,1,2,0,0,-2,0
1570181515609244,-2,0,3,1,1,-1,-2,-1
1570181515630421,1,-2,1,1,-1,-1,-2,-4
1570181515630421,16,3,3,2,1,0,2,1
1570181515632177,-3,1,4,5,0,-2,-11,-26
1570181515632177,-7,-10,-2,5,-1,-2,-4,-18
1570181515644150,5,-3,1,4,1,0,1,1
1570181515644150,-1,4,4,4,-2,1,3,-4
1570181515653143,3,-1,-3,2,-1,2,2,0
1570181515653143,2,0,1,1,1,-1,-2,-2
1570181515668134,-2,1,-1,0,0,0,-3,0
1570181515668134,-1,-6,-2,-2,0,1,2,9
1570181515669085,19,-10,-6,0,-1,-1,5,27
1570181515669085,-18,4,6,4,0,-3,-11,-28
1570181515691093,3,2,-2,-2,1,-1,0,-4
1570181515691093,2,-4,-7,0,-2,-1,0,-2
1570181515692020,3,2,5,-2,-2,-1,1,1
1570181515692020,3,-5,-4,-2,0,-2,-1,-8
1570181515703993,5,0,-3,-4,-1,-1,0,4
1570181515703993,6,9,5,1,2,1,0,-2
1570181515712963,-2,-5,-3,-3,0,-1,0,1
1570181515712963,3,1,-3,-3,-1,0,3,12
1570181515728038,9,-5,0,-4,-1,0,2,2
1570181515728038,-1,3,2,-2,1,-2,-3,4
1570181515741886,9,7,3,1,0,1,4,11
1570181515741886,3,-3,-3,-5,-2,0,0,5
1570181515750184,7,-5,-1,-3,0,0,2,5
1570181515750184,6,-1,-3,-4,-1,-1,-1,-2
1570181515751857,1,4,2,-4,0,-1,-6,-20
1570181515751857,5,-4,-1,-2,-2,-2,-1,3
1570181515763933,0,-1,1,-1,-2,-3,-3,3
1570181515763933,-7,6,3,-2,1,1,-2,-10
1570181515772928,2,1,0,1,0,-3,-5,-11
1570181515772928,2,3,2,2,0,0,1,1
1570181515794751,3,-3,-3,-1,-3,0,-3,0
1570181515794751,9,-2,-1,-5,-3,-1,3,8
1570181515796792,9,-1,-5,-3,-1,1,-2,0
1570181515796792,3,9,-2,-2,1,1,1,2
1570181515810702,-19,-10,5,1,-1,-4,-1,0
1570181515810702,-1,-7,-8,-3,-1,1,0,7
1570181515811700,-11,3,1,0,-2,2,2,1
1570181515811700,-10,0,-2,1,-2,-2,1,9
1570181515823668,-6,9,-2,-2,-3,0,0,-5
1570181515823668,-10,0,1,-1,-3,-1,0,6
1570181515832648,-9,-4,-1,1,0,-1,-1,1
1570181515832648,-4,-4,-1,0,1,2,2,3
1570181515847972,-16,-4,-5,1,1,-1,-1,-2
1570181515847972,-8,-4,1,2,-1,-4,-2,3
1570181515853585,-12,3,-3,-3,0,0,-6,-26
1570181515853585,2,-2,0,1,0,0,1,4
1570181515870541,-13,1,0,0,-2,0,0,-4
1570181515870541,-1,-5,-3,1,-1,0,0,-6
1570181515871544,3,1,4,1,-1,-3,0,6
1570181515871544,-5,-2,-4,-2,-2,0,-2,3
1570181515883761,-19,-10,-9,-5,-1,0,1,-1
1570181515883761,1,13,3,5,0,0,-2,1
1570181515892612,9,-13,2,-5,-1,0,1,1
1570181515892612,-3,-2,-4,-3,-5,-3,-1,1
1570181515907566,7,5,1,3,0,1,0,2
1570181515907566,-5,-7,-8,-7,0,-2,-1,-2
1570181515909444,15,6,9,10,6,6,6,12
1570181515909444,12,12,9,4,0,-1,0,-5
1570181515930381,-3,-5,-1,3,0,-4,-1,1
1570181515930381,11,-10,-6,-2,-1,2,5,17
1570181515931380,-10,-1,-8,-3,-4,-3,0,-2
1570181515931380,5,-2,1,3,0,2,3,1
1570181515944395,5,11,8,1,0,2,0,2
1570181515944395,-11,9,10,5,2,0,-2,-4
1570181515969286,5,-6,-4,-5,-2,-2,-1,-2
1570181515969286,13,-8,-5,-4,-2,3,2,1
1570181515970275,-1,-3,-2,1,-1,-3,-5,5
1570181515970275,6,0,-1,-2,-1,0,0,-8
1570181515974330,5,-2,-1,0,-3,0,1,1
1570181515974330,-6,-9,-6,-2,2,-2,-2,-8
1570181515990225,-12,5,2,4,-1,-1,-7,-29
1570181515990225,-2,0,2,3,0,-2,-5,-6
1570181515991218,-3,8,0,0,2,0,1,3
1570181515991218,4,-2,0,-6,-2,-3,-3,-3
1570181516021137,1,-6,-4,-1,1,2,0,-1
1570181516021137,4,4,4,-1,-2,-2,-2,-7
1570181516022136,0,-2,-3,-1,-1,-1,-4,-2
1570181516022136,-2,1,0,1,-2,0,0,2
1570181516027330,5,1,-2,-2,-1,-1,2,1
1570181516027330,-1,-1,-2,0,-1,-1,-2,-8
1570181516034475,5,-12,-10,-8,-3,0,1,-1
1570181516034475,-1,-3,-2,0,0,3,0,-1
1570181516050247,-3,0,2,1,-2,1,2,2
1570181516050247,15,6,0,2,-1,-1,1,12
1570181516052054,-1,-5,5,8,1,0,-6,-21
1570181516052054,-6,2,1,4,-2,-2,-5,-15
1570181516073227,-2,-1,-1,1,-1,-1,1,-2
1570181516073227,4,1,0,0,-1,1,2,2
1570181516074000,-6,11,6,0,0,-1,1,3
1570181516074000,-2,-8,-4,-2,-1,-3,-2,-1
1570181516088007,-10,-2,-2,-3,-1,-2,2,9
1570181516088007,6,-2,-2,-4,0,-2,-2,-8
1570181516088960,-1,2,-1,-2,-2,-4,-2,-2
1570181516088960,-3,9,6,2,1,0,-2,-7
1570181516110115,-5,-1,1,3,0,-4,-4,-20
1570181516110115,5,-6,-4,1,0,1,1,-8
1570181516111897,10,0,4,-3,-1,-1,-2,-11
1570181516111897,-6,1,2,-4,-3,-4,-5,-14
1570181516132839,2,-4,-3,-5,-1,0,-1,0
1570181516132839,7,2,-3,1,-2,-1,-1,-2
1570181516133940,2,-7,-5,1,0,1,0,7
1570181516133940,9,4,1,2,0,1,4,10
1570181516146894,21,3,2,-3,-3,-2,-2,13
1570181516146894,1,-2,-1,-2,-2,1,2,10
1570181516153895,10,-3,-4,-1,1,1,2,10
1570181516153895,3,-9,-4,-2,0,1,1,3
1570181516169814,-8,7,3,0,-1,-2,-2,-5
1570181516169814,5,-3,-1,-8,-1,-1,1,1
1570181516171828,-7,0,2,-1,-1,-5,-3,-1
1570181516171828,-9,-2,1,-1,0,-2,-1,2
1570181516193857,-10,4,-5,-3,-2,-2,-1,1
1570181516193857,-4,-6,-3,-4,-3,1,0,4
1570181516194678,-2,-1,-4,-3,-3,0,-3,1
1570181516194678,-6,3,3,-1,1,-2,-2,3
1570181516206858,21,-6,-4,-10,-2,0,2,4
1570181516206858,-21,1,2,-2,1,-1,-11,-29
1570181516213629,2,-8,-6,-3,0,8,1,4
1570181516213629,-7,3,2,-2,-1,6,-1,1
1570181516231746,-5,-3,-1,1,2,3,-5,0
1570181516231746,-3,0,1,2,-2,-4,0,3
1570181516236661,-8,4,1,1,-2,-5,-1,0
1570181516236661,-5,-2,-7,-7,-1,-3,1,4
1570181516252872,-8,0,2,1,0,-4,-1,0
1570181516252872,5,-1,-1,0,0,-1,3,5
1570181516254515,-3,0,-2,-1,0,-3,2,4
1570181516254515,-4,-3,0,-1,0,-2,1,7
1570181516267481,-2,-4,-6,-2,-2,-3,-1,-3
1570181516267481,3,-1,0,2,0,-2,0,2
1570181516274461,-5,6,5,2,-2,-5,-1,1
1570181516274461,-2,4,5,2,0,0,-2,2
1570181516299399,-10,-3,-7,-3,-2,1,-1,2
1570181516299399,-7,0,-2,-1,0,3,0,3
1570181516300424,8,-2,-4,-1,1,1,3,2
1570181516300424,8,-3,-2,2,0,0,-1,-4
1570181516320383,25,-9,0,2,1,2,9,23
1570181516320383,-3,3,0,-2,-2,-2,-1,5
1570181516321335,2,-5,-1,-3,0,-2,-1,-18
1570181516321335,0,3,-2,0,0,-4,-2,-1
1570181516327320,0,-2,3,2,2,-2,1,2
1570181516327320,-6,-2,-1,0,0,-2,-1,-4
1570181516333340,11,-5,-2,2,0,0,-2,2
1570181516333340,0,-5,-4,-1,0,-1,1,-3
1570181516350424,-3,0,-3,-5,-2,2,2,3
1570181516350424,1,2,7,6,2,0,0,7
1570181516352000,-16,6,2,3,0,-1,-7,-22
1570181516352000,-2,3,1,-3,-2,-2,1,3
1570181516372426,-9,5,7,2,0,-4,-5,-10
1570181516372426,8,-2,-5,-3,1,2,2,-4
1570181516374600,-5,-3,-1,1,0,1,1,7
1570181516374600,-4,-2,-2,-2,0,1,2,-5
1570181516387166,-2,-4,-1,-1,0,-1,-2,-9
1570181516387166,11,-2,-2,-2,-4,-3,3,10
1570181516394143,5,-5,0,-2,-2,-1,-1,0
1570181516394143,1,-3,1,9,2,-2,-2,-8
1570181516411098,-15,-2,-2,9,-1,-1,1,3
1570181516411098,1,-1,1,12,0,-1,-4,-8
1570181516412147,12,-2,-2,5,1,0,3,8
1570181516412147,-17,-3,-2,-1,-2,-2,-1,2
1570181516433230,-9,5,-1,3,1,3,6,5
1570181516433230,-12,-7,-7,-7,-4,1,2,3
1570181516434036,-15,1,6,4,-1,-2,-1,0
1570181516434036,-2,-6,-7,-5,-1,-2,0,0
1570181516446177,3,-3,0,-1,-2,1,0,-3
1570181516446177,-5,6,1,-3,0,-2,1,-2
1570181516462969,-8,1,-1,-7,-1,0,-4,-25
1570181516462969,2,8,3,-3,-2,0,-2,4
1570181516469943,-5,-5,-1,-6,0,4,-2,4
1570181516469943,9,-6,-1,-5,-3,8,-2,5
1570181516471934,-7,6,1,-6,-2,4,-3,4
1570181516471934,11,-1,2,-1,-1,4,-1,-3
1570181516493107,-1,-1,-4,-7,0,-4,0,-6
1570181516493107,-3,-1,3,2,1,-4,4,2
1570181516494278,-6,4,1,1,0,-3,2,22
1570181516494278,-16,-9,-7,-5,-2,-6,0,0
1570181516522982,-10,8,3,4,2,-1,-2,1
1570181516522982,-14,-7,-5,2,-1,0,3,1
1570181516524098,-23,3,1,5,-1,-4,-3,-6
1570181516524098,-18,-3,0,3,0,2,0,-3
1570181516529777,-8,-3,-6,-3,-2,-3,0,-2
1570181516529777,3,2,1,2,1,1,0,-1
1570181516531772,32,1,-2,-3,0,0,3,5
1570181516531772,17,-6,-2,-5,0,-1,-3,-2
1570181516551898,11,7,6,-5,-2,-2,-5,-14
1570181516551898,18,1,0,-4,-1,-3,-7,-4
1570181516552718,3,-10,-6,-2,1,1,3,5
1570181516552718,-7,7,0,-5,-1,-1,-4,-5
1570181516574961,-7,-17,-11,-2,1,0,-7,-7
1570181516574961,1,-1,-2,0,-1,0,-3,-6
1570181516575657,-10,-1,-1,-1,1,0,1,6
1570181516575657,7,-1,-3,3,2,1,0,5
1570181516589788,17,1,0,-2,-2,-1,1,6
1570181516589788,2,-3,-3,-4,0,-2,-2,1
1570181516590627,17,-1,-1,-1,-1,-2,-1,4
1570181516590627,48,-4,-2,-2,-2,-1,2,2
1570181516612605,19,7,3,-1,-1,-1,-1,-4
1570181516612605,28,-4,0,-1,0,-2,2,3
1570181516612605,17,10,0,-4,-1,-2,-9,-27
1570181516612605,19,-9,-4,-2,0,-1,0,2
1570181516635494,55,-5,1,3,0,1,1,4
1570181516635494,21,4,-3,-5,-1,0,1,0
1570181516636493,8,-2,1,-2,-2,0,3,10
1570181516636493,-7,2,-1,-1,-3,1,3,3
1570181516650748,33,3,2,2,0,-2,-8,-13
1570181516650748,40,-4,0,1,-2,-2,1,1
1570181516650748,47,-2,1,1,1,0,0,1
1570181516650748,48,4,2,2,-1,-1,-1,-4
1570181516672453,24,-1,-2,1,-1,1,2,7
1570181516672453,33,0,2,0,-2,-3,-3,-23
1570181516672453,36,-4,-3,-2,0,-1,2,12
1570181516672453,78,1,-3,-1,-1,0,1,3
1570181516694455,-106,0,-1,-1,-1,0,3,4
1570181516694455,-97,-8,2,2,0,-3,-5,0
1570181516695463,-104,0,-2,0,-2,-1,1,-2
1570181516695463,-85,-2,2,0,0,-1,8,26
1570181516709346,-21,2,-1,-1,-1,-2,3,0
1570181516709346,-27,2,-1,-2,2,-12,5,8
1570181516710295,-39,-2,2,1,-1,-11,-1,0
1570181516710295,-26,1,1,0,1,-6,-1,0
1570181516740431,5,-4,1,-1,-1,-3,-2,4
1570181516740431,-16,-2,1,-1,0,4,3,9
1570181516741220,8,-6,-1,-1,-1,-20,-4,4
1570181516741220,-14,-5,-2,0,0,-7,-5,-8
1570181516754376,1,-16,-1,-2,-1,3,-4,0
1570181516754376,-3,-6,-1,-2,-2,8,-3,16
1570181516755176,-3,-5,-4,-2,-2,11,-2,23
1570181516755176,-10,-2,0,1,-1,6,-7,19
1570181516769137,-1,-1,2,0,-3,-1,-1,17
1570181516769137,2,-3,-1,0,0,6,-4,0
1570181516770512,1,-9,1,-1,-3,4,-1,-16
1570181516770512,-17,5,3,2,-1,-4,-4,-28
1570181516800072,12,10,-1,0,-2,1,3,-19
1570181516800072,5,16,-2,1,-1,-1,-1,-24
1570181516801103,-10,17,-2,-1,2,6,-1,-13
1570181516801103,-1,7,1,1,1,3,-3,-9
1570181516814376,2,0,-2,-2,-1,1,-3,-8
1570181516814376,0,1,-3,-4,1,2,0,0
1570181516815016,-5,3,-1,-2,0,5,3,4
1570181516815016,-9,7,-1,-2,1,3,4,-1
1570181516829096,-2,7,-1,-1,1,0,2,3
1570181516829096,-3,0,-1,1,-1,0,2,-3
1570181516829983,4,0,3,4,0,1,0,-2
1570181516829983,-3,-7,-4,-10,5,-2,-1,-6
1570181516852914,4,-5,-1,7,15,-1,-4,1
1570181516852914,6,2,-5,-5,13,0,-2,0
1570181516852914,-27,-1,-1,2,16,1,-4,2
1570181516852914,-114,1,6,7,10,-1,-2,0
1570181516874950,-120,-9,-1,3,3,-4,-2,2
1570181516874950,3,-12,-10,-6,-8,-7,-3,-2
1570181516874950,81,2,7,2,4,4,5,-1
1570181516874950,127,-1,2,2,-14,-2,3,1
1570181516888822,127,-2,0,-12,-15,-2,4,-6
1570181516888822,85,0,9,16,-5,0,6,-4
1570181516896923,123,-9,-15,-12,-11,-3,0,-7
1570181516896923,89,-1,2,-6,-5,0,-1,-6
1570181516911841,16,7,-6,-3,5,3,3,3
1570181516911841,-11,3,-9,-9,-9,-5,-7,-4
1570181516912755,-80,1,0,4,0,-4,-4,-1
1570181516912755,-79,1,14,13,11,4,1,0
1570181516934745,-53,1,-16,-10,-4,-5,-2,2
1570181516934745,-49,1,-6,4,9,3,3,3
1570181516935716,-19,5,12,4,-3,2,1,3
1570181516935716,-18,-2,-3,-6,-9,-2,-2,-2
1570181516949704,-7,-5,1,-5,-9,-2,-3,-3
1570181516949704,-36,-3,10,3,4,2,-2,-4
1570181516949704,-41,-2,-13,5,-7,-2,0,0
1570181516949704,-17,-1,-7,0,-2,-2,0,2
1570181516971831,-5,2,0,1,7,6,3,-1
1570181516971831,-34,-8,27,11,-10,-7,-6,-11
1570181516972595,-1,0,-31,-16,-6,0,0,5
1570181516972595,30,6,-12,5,1,1,4,4
1570181516994699,-3,10,17,4,2,4,4,-1
1570181516994699,22,5,-5,-6,-6,-1,-1,2
1570181516995787,-42,-16,18,8,6,3,1,-2
1570181516995787,5,7,-9,-8,-3,-1,-2,0
1570181517009703,-3,-11,-14,-3,-4,-5,-3,-3
1570181517009703,-29,-10,3,-2,-3,0,-1,-1
1570181517010497,1,0,-2,0,-1,1,2,6
1570181517010497,-17,5,1,4,9,0,0,-7
1570181517032508,-4,5,13,14,7,-2,-1,-7
1570181517032508,-6,-16,-15,-20,-6,3,-5,-13
1570181517033434,1,4,0,2,9,3,4,14
1570181517033434,-1,8,13,14,3,8,4,5
1570181517054502,-18,-20,3,0,3,0,3,8
1570181517054502,59,34,1,4,5,-2,2,6
1570181517055371,-30,-28,-17,-15,-11,-8,-8,-10
1570181517055371,-6,6,8,3,4,1,2,14
1570181517069336,-63,-33,-15,-19,-17,-7,-13,-50
1570181517069336,43,7,-8,5,3,-5,6,25
1570181517070338,23,15,21,7,2,1,0,0
1570181517070338,13,3,-5,-2,2,6,0,0
1570181517092281,36,9,3,8,6,-14,6,37
1570181517092281,-15,-10,3,2,5,4,-11,-34
1570181517092281,-55,-38,-20,-21,-17,-3,-9,-9
1570181517092281,14,17,9,1,2,2,8,22
1570181517114394,18,2,-10,-7,-9,-3,-10,-17
1570181517114394,31,17,-8,-8,-6,-5,3,-24
1570181517115221,-42,1,10,10,9,2,3,-39
1570181517115221,-8,-8,-2,-6,-4,-2,-3,-32
1570181517131178,-12,4,1,0,-3,-3,0,14
1570181517131178,11,12,3,-2,-7,-4,1,19
1570181517131178,19,-1,-11,-7,-4,3,-3,-1
1570181517131178,-53,-26,-1,8,11,-7,-3,4
1570181517152370,80,22,7,5,-10,8,7,19
1570181517152370,3,-7,3,0,4,2,0,5
1570181517153113,50,13,-12,-12,-12,-9,-1,18
1570181517153113,33,26,4,0,-3,0,7,10
1570181517175054,-74,-36,-2,1,0,-2,-10,3
1570181517175054,11,-3,-2,-1,1,1,1,15
1570181517175054,35,9,5,7,5,20,3,5
1570181517175054,0,-15,-11,-11,-19,-55,-12,-4
1570181517189168,28,28,8,7,5,25,6,2
1570181517189168,-25,-9,-1,-5,-7,0,7,1
1570181517190301,-21,-4,5,5,2,12,4,7
1570181517190301,4,-10,-7,-7,-2,11,-3,-4
1570181517211959,33,21,3,3,5,8,3,-4
1570181517211959,-31,-18,2,4,4,-12,-8,-3
1570181517213056,9,8,6,4,10,1,1,2
1570181517213056,2,0,-2,-1,5,2,-2,-4
1570181517234935,8,-3,-5,-2,11,-5,-3,-3
1570181517234935,-8,-4,-3,-3,-13,3,-1,1
1570181517234935,-51,-12,9,2,2,-4,4,-1
1570181517234935,28,18,-2,-3,-4,2,2,-4
1570181517250048,-27,-13,-5,-6,-3,4,-9,-31
1570181517250048,-12,-7,-3,1,-2,-3,1,24
1570181517250048,67,26,6,5,1,-21,-11,35
1570181517250048,-71,-44,-9,-3,-5,3,-8,-11
1570181517272282,17,6,2,-2,3,-1,7,-7
1570181517272282,10,11,4,3,2,4,-2,0
1570181517272791,10,6,0,-1,-3,3,0,-7
1570181517272791,-4,-4,-1,1,-2,1,-1,-3
1570181517294903,3,4,1,2,-2,-5,-2,8
1570181517294903,-2,-7,-2,-2,1,2,0,3
1570181517294903,-21,-4,1,-2,-1,-10,1,-2
1570181517294903,13,2,-2,-6,-3,2,-3,-6
1570181517309704,-6,-7,-1,-2,-3,10,4,-7
1570181517309704,-7,-2,1,1,0,-10,-2,-3
1570181517310693,41,20,3,3,-2,3,4,-11
1570181517310693,-27,-13,-7,-9,-12,-6,-6,-5
1570181517332678,-17,-17,-4,-2,-3,-3,3,10
1570181517332678,-31,-4,1,4,6,10,-1,-23
1570181517332809,58,17,0,0,-9,-20,12,21
1570181517332809,-56,-25,-4,-2,6,13,2,-17
1570181517354579,21,8,3,2,0,-8,-8,17
1570181517354579,-4,-1,-2,0,-8,-2,3,-7
1570181517355573,-27,-9,-1,-1,-6,0,-3,-17
1570181517355573,-1,-16,0,1,0,2,4,-4
1570181517369690,19,20,4,1,10,-6,5,-3
1570181517369690,7,5,0,-4,-9,2,-6,1
1570181517370538,-6,-6,-1,3,4,6,-4,0
1570181517370538,15,6,2,3,10,0,3,7
1570181517392490,-5,-7,1,2,-2,-1,2,8
1570181517392490,9,3,-3,-3,10,-5,-1,0
1570181517392490,38,27,5,0,-2,1,-4,-14
1570181517392490,-82,-46,-7,-3,-5,0,-4,-8
1570181517414617,-13,-18,-10,-7,-4,-15,-5,-6
1570181517414617,12,7,4,3,3,6,7,3
1570181517415418,-4,-2,-5,-6,-6,-4,-3,-15
1570181517415418,42,30,6,2,2,-7,-14,21
1570181517429465,37,19,2,2,1,13,3,19
1570181517429465,-34,-21,-6,-4,-15,-19,-5,8
1570181517430549,-32,-9,3,5,10,-9,-5,3
1570181517430549,55,21,-3,-8,-8,12,4,7
1570181517452312,-16,-5,2,0,-4,-2,2,-1
1570181517452312,-2,0,-2,-1,4,6,-5,-8
1570181517452312,3,2,1,1,5,3,1,3
1570181517452312,0,3,1,2,-5,-6,0,-7
1570181517474457,-1,-2,1,2,-5,-3,-1,-7
1570181517474457,8,2,-2,0,2,10,1,-3
1570181517475259,-18,-17,-2,-1,0,11,4,-5
1570181517475259,45,33,2,1,4,-7,0,5
1570181517489320,-21,-11,-3,-2,8,3,0,-2
1570181517489320,4,0,0,1,2,-3,1,2
1570181517497408,0,-6,-3,-2,-7,-14,-4,1
1570181517497408,-18,-9,6,1,2,-3,0,25
1570181517512157,89,33,12,7,8,14,10,17
1570181517512157,-53,-25,-13,-10,-8,-14,-12,-34
1570181517513151,-6,-24,-10,-4,-6,6,-13,-12
1570181517513151,5,-6,-3,-2,5,11,5,-7
1570181517534229,0,6,2,1,-2,-6,0,3
1570181517534229,9,3,8,6,8,15,12,20
1570181517535091,-17,-2,-5,-6,-3,-1,-4,-17
1570181517535091,8,8,0,1,-3,-7,-2,-7
1570181517549482,-14,-8,-3,-4,-3,-1,-2,-5
1570181517549482,13,5,2,2,3,3,0,3
1570181517557068,-26,-8,-2,-4,2,-1,-1,2
1570181517557068,20,6,1,-1,-1,5,0,1
1570181517572195,-39,-11,-2,-5,-11,-15,-6,-10
1570181517572195,13,8,2,2,-5,-24,4,20
1570181517572998,14,-20,-22,-19,-28,5,-11,-9
1570181517572998,3,7,6,8,16,17,10,-1
1570181517595203,-11,-7,-5,0,2,0,-2,-1
1570181517595203,-13,-4,1,-2,4,2,-5,-10
1570181517595203,1,11,7,4,7,5,6,15
1570181517595203,13,-1,-3,-2,-13,-9,-1,11
1570181517608943,-14,-8,-6,-5,-3,-2,-3,-8
1570181517608943,18,8,2,3,0,6,8,-5
1570181517617098,4,8,6,2,5,3,4,9
1570181517617098,-17,-8,-1,-2,-2,-1,-6,-11
1570181517631954,3,7,3,5,-3,-2,0,3
1570181517631954,4,2,-4,-8,-6,2,-2,1
1570181517632927,-11,0,0,2,12,-2,1,-3
1570181517632927,2,-2,1,5,22,-4,0,2
1570181517654769,0,0,-2,1,-9,-1,-3,-4
1570181517654769,7,3,-3,0,15,7,7,-10
1570181517654769,-12,0,5,3,-8,-7,-11,-1
1570181517654769,2,-2,-4,-9,-24,-6,-4,-2
1570181517669280,1,1,2,0,9,3,-1,-4
1570181517669280,15,6,7,7,-2,-2,-20,56
1570181517685112,-1,4,1,3,12,-3,6,1
1570181517685112,-2,-3,-4,0,-13,-1,-2,-6
1570181517692281,-4,-3,-3,-8,-8,-6,-4,-2
1570181517692281,0,0,-2,-1,-5,0,1,-11
1570181517693097,-1,1,1,3,2,-3,4,-1
1570181517693097,2,0,2,0,2,0,-5,6
1570181517714131,-4,-4,-3,1,0,1,3,-4
1570181517714131,3,-1,0,-2,-7,3,1,-16
1570181517715066,0,-1,-3,1,10,-16,-3,5
1570181517715066,-4,1,1,1,-4,-1,4,9
1570181517728998,0,0,-2,-1,8,-2,1,1
1570181517728998,5,2,2,-2,-3,-2,-9,5
1570181517737172,-2,-1,-1,0,-8,2,1,2
1570181517737172,-2,-3,1,-3,-2,-2,-3,-8
1570181517751974,-2,0,0,2,2,-2,-1,-1
1570181517751974,1,-1,-3,1,3,2,1,1
1570181517752932,-4,0,-1,-2,-5,3,0,-6
1570181517752932,-1,-1,-1,0,3,0,-1,-10
1570181517775145,0,-2,-1,-2,-1,2,-2,2
1570181517775145,-4,-2,-4,-3,0,-1,5,-15
1570181517775145,1,1,2,1,-2,0,0,3
1570181517775145,-4,-1,-2,-2,0,-1,0,-9
1570181517788842,-7,-3,-1,-2,-3,0,-2,0
1570181517788842,2,1,-1,-2,0,-2,0,-9
1570181517797036,3,-2,0,-1,5,2,2,2
1570181517797036,-1,-1,-1,1,-2,-9,-1,8
1570181517812015,0,-1,-1,-2,-2,3,6,2
1570181517812015,-3,-2,-2,1,6,13,8,1
1570181517812781,0,2,2,1,1,-2,-6,-4
1570181517812781,-11,-6,-4,-4,-3,-5,-5,-20
1570181517834710,-12,-6,3,4,0,0,0,3
1570181517834710,27,0,0,1,1,1,0,31
1570181517834710,5,17,0,-3,-4,-3,-2,-6
1570181517834710,14,11,-3,-5,4,35,22,-24
1570181517857846,14,1,-3,-2,-2,-10,2,18
1570181517857846,-16,-7,2,2,1,3,1,-2
1570181517858660,-24,-18,0,2,0,-3,2,3
1570181517858660,7,0,1,1,0,2,-6,8
1570181517871846,-6,7,1,0,3,12,4,-7
1570181517871846,-13,-12,-2,-2,-3,-13,-2,-5
1570181517872675,25,2,-6,-3,0,11,-3,-10
1570181517872675,11,4,-2,-1,-4,-15,-3,3
1570181517894557,-20,-12,1,1,1,6,-2,-3
1570181517894557,-5,0,-1,1,-3,-6,-5,-2
1570181517895549,-15,-5,1,2,-1,2,0,1
1570181517895549,0,-6,-2,1,3,-1,-1,8
1570181517918081,19,9,-3,-3,-6,-7,-6,-10
1570181517918081,-17,-5,1,2,4,5,6,-2
1570181517918493,70,33,3,-1,-2,-9,-5,16
1570181517918493,-84,-42,-12,-6,2,9,-1,-21
1570181517932452,2,2,4,2,-2,-9,-3,-4
1570181517932452,10,6,-1,-3,-1,-2,-1,-10
1570181517933455,3,-5,3,3,6,6,5,11
1570181517933455,34,28,1,-2,-3,-12,-3,12
1570181517954741,-21,-14,-3,-3,-2,14,0,-1
1570181517954741,8,1,-2,-2,-4,-11,-7,-4
1570181517955397,-24,-5,-2,0,-3,-9,-5,-9
1570181517955397,18,8,6,5,8,0,1,9
1570181517977544,-15,-9,-3,-2,6,12,5,-5
1570181517977544,14,9,2,1,-1,9,1,1
1570181517978528,-8,-8,-3,-2,-5,-1,2,-4
1570181517978528,-16,-8,1,1,-2,-5,1,1
1570181517992293,21,10,0,0,-2,-7,-3,3
1570181517992293,0,2,0,-1,-1,-1,-3,-1
1570181517992293,-25,-12,-1,-3,-1,-1,2,-4
1570181517992293,-11,-8,-2,-1,-4,1,-1,0
1570181518014580,10,-3,-2,0,0,-3,5,10
1570181518014580,22,12,7,4,2,-2,-2,-2
1570181518015232,-7,-2,-4,-4,-4,-4,-6,-3
1570181518015232,16,3,1,0,-1,-1,-2,8
1570181518037169,-12,0,-2,-2,-2,-4,-3,-8
1570181518037169,-3,-1,0,0,-2,1,3,0
1570181518038168,12,4,0,0,0,-1,1,3
1570181518038168,-6,-6,0,-1,-5,1,-5,-6
1570181518052194,17,7,2,-1,-5,-15,-5,0
1570181518052194,-19,-11,-5,-4,-4,-4,-1,-4
1570181518053202,-9,-2,1,0,0,-8,-10,-9
1570181518053202,32,21,-2,-4,-3,-9,-2,4
1570181518075069,-34,-19,-3,-3,-3,-6,-1,-3
1570181518075069,-13,-2,-2,0,2,-4,-1,-7
1570181518075069,-26,-12,-1,4,3,2,4,1
1570181518075069,10,4,0,0,-7,-3,1,4
1570181518098066,25,13,-1,-3,-2,0,-3,0
1570181518098066,-27,-13,-2,-1,1,1,-4,-6
1570181518099009,-5,-4,-1,-2,0,7,6,0
1570181518099009,1,2,0,0,0,-1,-3,-3
1570181518112113,5,2,-3,-1,0,1,1,0
1570181518112113,-4,-2,-1,-2,-1,7,3,6
1570181518112969,11,3,-2,-3,-5,-7,-2,-2
1570181518112969,-8,-4,1,2,3,1,4,-1
1570181518134909,0,-10,0,1,-2,-4,-5,-6
1570181518134909,29,24,0,-1,0,2,0,5
1570181518134909,-9,-7,-1,0,-2,-5,-3,-5
1570181518134909,15,7,1,-2,4,10,-3,-4
1570181518158197,-52,-21,0,0,-6,-14,3,-5
1570181518158197,7,-2,-2,-1,-2,-9,-2,-3
1570181518158849,9,3,2,0,2,3,3,3
1570181518158849,-7,-4,-2,-2,-1,-6,-4,-1
1570181518171941,27,9,-1,-1,1,5,6,2
1570181518171941,-18,-9,-2,-1,-2,0,-3,4
1570181518172809,-9,-3,-2,-1,1,9,-1,-2
1570181518172809,-12,-8,0,2,1,7,13,-25
1570181518194971,15,13,1,-1,-2,2,-5,4
1570181518194971,6,2,1,0,0,6,3,-8
1570181518194971,5,1,-1,1,0,0,0,7
1570181518194971,-6,-7,-1,-2,-3,-2,1,4
1570181518217854,1,0,-2,1,1,3,-5,-1
1570181518217854,-10,-5,-1,0,0,0,11,-25
1570181518218687,-8,-6,-1,0,0,4,7,-5
1570181518218687,16,7,0,0,2,-6,-4,-4
1570181518231649,1,1,-1,-4,-2,-11,-10,-17
1570181518231649,44,11,-1,-3,0,12,5,19
1570181518239750,-83,-25,-3,-2,-1,7,-1,-9
1570181518239750,-4,-2,-1,-1,0,0,-1,-1
1570181518254733,-6,-7,0,-1,3,12,-2,-12
1570181518254733,2,3,1,2,0,-7,-9,16
1570181518255592,55,20,-2,-3,0,8,1,8
1570181518255592,-10,-6,-1,0,2,-2,-6,4
1570181518293579,-5,-1,0,2,2,-5,-1,-3
1570181518293579,-7,-13,-7,-4,-3,-7,-4,-3
1570181518294483,11,-1,-1,-2,-6,-8,-4,3
1570181518294483,33,16,3,-1,-2,-8,-5,10
1570181518296483,-40,-11,-4,-2,-1,2,8,-8
1570181518296483,-18,-3,0,0,-1,-1,9,-5
1570181518299471,-12,-4,4,4,1,-3,9,-25
1570181518299471,41,11,1,-1,-10,9,1,13
1570181518314427,-56,-17,-4,-1,8,-3,1,2
1570181518314427,37,16,5,1,2,13,7,4
1570181518315425,29,-7,-7,-4,-1,-7,-7,-11
1570181518315425,6,-4,3,2,3,7,4,12
1570181518337373,30,9,-5,-4,-8,-2,-5,-2
1570181518337373,10,16,-1,-2,-6,-15,-7,-3
1570181518338372,16,7,1,0,3,7,0,13
1570181518338372,-42,-20,-3,-5,-6,7,2,-2
1570181518352447,41,15,5,4,-3,-4,-1,12
1570181518352447,-24,2,-5,-2,1,-3,-6,-12
1570181518352447,-4,-2,-1,0,-1,1,7,6
1570181518352447,-2,-3,-2,0,3,-19,-8,-6
1570181518374479,-35,-13,2,0,4,12,6,-14
1570181518374479,-9,-7,2,1,0,-9,-8,-6
1570181518375396,14,17,-2,-2,0,-10,-6,-5
1570181518375396,-11,-4,-2,-1,1,2,0,-2
1570181518398213,22,7,1,0,-2,0,0,10
1570181518398213,-2,-6,0,-1,-8,2,-3,0
1570181518398385,-48,-14,1,1,8,1,-2,3
1570181518398385,31,15,0,-5,-3,-8,-2,0
1570181518412301,-10,-9,-2,-1,-6,-2,0,2
1570181518412301,-23,-12,0,0,3,1,0,0
1570181518413165,33,11,2,1,-4,-4,0,5
1570181518413165,10,5,-2,-1,1,-5,-8,-7
1570181518434639,4,5,2,2,-1,11,8,6
1570181518434639,58,31,1,-5,-8,-4,-1,5
1570181518435121,-88,-57,-6,0,7,7,10,-6
1570181518435121,-17,0,2,3,-3,0,-5,-1
1570181518458138,36,16,-2,0,5,8,-2,3
1570181518458138,9,-2,-1,1,-3,-1,-1,3
1570181518458138,21,12,-2,-6,2,-4,-1,-2
1570181518458138,-28,-14,-1,1,0,-2,3,-1
1570181518471610,-10,-6,0,-2,0,1,-3,1
1570181518471610,-13,-6,1,1,5,5,-1,0
1570181518479986,0,4,1,2,0,-4,-4,8
1570181518479986,-6,-6,-4,0,3,7,4,-4
1570181518494260,36,13,0,-1,4,-3,-2,9
1570181518494260,-38,-24,-10,-6,-6,-8,6,-24
1570181518494949,20,15,5,0,-3,0,-8,15
1570181518494949,-5,-3,-3,1,2,-1,-1,-5
1570181518517887,5,1,-1,0,-4,-4,-2,1
1570181518517887,-12,-8,1,1,0,-3,0,0
1570181518518996,15,8,-2,-1,-3,1,-3,-2
1570181518518996,-4,0,-2,0,-2,0,1,2
1570181518531961,-1,0,-1,-2,-1,-4,-3,0
1570181518531961,-7,-13,-2,0,9,18,-3,2
1570181518539962,18,12,1,-2,-13,-21,-2,-2
1570181518539962,39,17,5,3,0,0,0,12
1570181518554788,-84,-35,-5,-5,1,-4,-1,-16
1570181518554788,8,9,-1,0,3,0,-5,-1
1570181518555787,1,-4,0,1,-4,-11,-2,1
1570181518555787,0,-2,-1,-5,-2,-2,4,2
1570181518577726,15,5,1,1,-1,-2,-1,-3
1570181518577726,0,-2,-1,2,0,0,-2,3
1570181518578727,-6,-1,0,0,1,8,-1,-2
1570181518578727,-10,-4,0,-1,0,-5,-1,0
1570181518591689,17,7,-1,-2,1,1,0,-1
1570181518591689,-8,-4,1,0,-2,-5,-2,15
1570181518599676,14,7,-2,0,2,10,3,-2
1570181518599676,-11,-7,-3,1,-2,-8,-12,1
1570181518614875,5,4,2,1,-1,1,-1,-2
1570181518614875,-1,-1,-2,0,-1,-12,-3,-6
1570181518615624,-6,-3,-1,-4,-1,0,11,-17
1570181518615624,-11,-4,-1,-2,1,10,4,6
1570181518638033,5,1,-1,1,3,-1,1,-6
1570181518638033,3,0,2,0,2,1,-4,2
1570181518638564,1,0,0,-3,0,3,-2,0
1570181518638564,-11,-4,-1,0,1,1,0,-3
1570181518651687,10,5,1,1,1,3,-3,-7
1570181518651687,4,-3,-2,-3,-11,-16,7,9
1570181518659505,6,3,3,2,0,2,-10,11
1570181518659505,-5,0,-1,-2,-1,1,1,-2
1570181518674691,0,1,-1,-2,-1,-5,-3,-7
1570181518674691,-5,-1,0,1,4,9,-2,-3
1570181518675482,2,-1,-2,-1,-3,-7,-3,5
1570181518675482,-1,-1,-2,-1,1,2,2,3
1570181518698435,6,2,1,1,1,2,4,20
1570181518698435,-7,-3,0,-2,-2,-3,0,-5
1570181518698435,1,1,0,-2,-1,-3,1,2
1570181518698435,-6,-3,-1,-1,2,0,3,-13
1570181518711426,2,-2,-3,-1,-3,1,2,-2
1570181518711426,2,1,-1,-1,1,0,-5,1
1570181518719349,-1,-1,1,-1,-2,-1,-3,5
1570181518719349,-2,-1,0,-1,0,4,-1,-1
1570181518734744,1,0,-1,-1,0,-11,-5,-2
1570181518734744,5,0,-1,0,-4,-5,-2,17
1570181518735304,-2,-3,-3,2,-1,4,3,-8
1570181518735304,-5,-4,-1,0,2,3,0,-7
1570181518757301,3,0,1,-1,-4,-6,-3,2
1570181518757301,-7,-5,-4,-5,-1,17,2,-7
1570181518765225,-5,0,1,0,2,3,2,0
1570181518765225,10,3,0,-1,-4,-4,1,-1
1570181518771280,6,4,0,1,2,1,-1,6
1570181518771280,-5,-1,-1,-2,2,18,6,-6
1570181518779231,2,3,0,1,-1,-5,-4,-5
1570181518779231,-3,-3,-2,0,-1,-2,1,2
1570181518795420,1,-3,-3,-3,-4,4,-2,6
1570181518795420,-11,-3,1,1,0,-6,-2,-1
1570181518796141,4,-8,1,1,3,9,-2,20
1570181518796141,18,27,6,2,-1,2,-4,-10
1570181518818206,0,-13,-5,-6,-6,-14,-9,-3
1570181518818206,7,9,0,2,1,-2,2,2
1570181518818518,-8,-5,-3,-1,-4,-13,1,-1
1570181518818518,17,7,1,-1,8,35,11,1
1570181518840250,-12,-14,1,3,-5,-27,-3,-9
1570181518840250,-8,2,-2,-4,-10,-2,0,-9
1570181518841137,43,25,3,1,0,1,0,-3
1570181518841137,-58,-27,0,3,-2,-12,-3,5
1570181518855014,26,8,-3,-1,1,8,-2,-8
1570181518855014,4,-6,0,-2,-3,-9,-2,2
1570181518855014,-66,-23,-6,-4,1,6,3,6
1570181518855014,38,16,-1,-1,-8,-30,-12,5
1570181518878185,-37,-11,-3,-4,0,22,8,-1
1570181518878185,-9,-6,-2,3,6,-1,11,-20
1570181518878926,8,5,1,2,10,-1,-14,9
1570181518878926,13,0,0,0,4,19,6,2
1570181518900861,-24,-6,-1,-2,-4,-9,-3,8
1570181518900861,7,7,3,4,19,0,3,2
1570181518900861,-4,-15,-4,-5,-14,0,2,-9
1570181518900861,-35,-15,-5,-3,-4,-4,-5,-12
1570181518914888,7,8,2,3,3,6,3,2
1570181518914888,8,-5,2,2,1,6,-2,5
1570181518915825,8,11,3,0,2,0,2,5
1570181518915825,-18,-7,-8,-8,-6,-10,-10,8
1570181518937891,38,20,1,-1,4,10,-3,-10
1570181518937891,-33,-14,-3,-3,-4,-3,3,4
1570181518938760,28,3,2,1,3,0,-1,5
1570181518938760,0,-6,1,1,-4,-5,2,-4
1570181518960712,-6,-3,0,0,-2,-1,-1,2
1570181518960712,24,9,0,0,2,1,-5,5
1570181518961185,6,2,-1,-2,-3,0,1,-10
1570181518961185,-22,-12,-4,0,4,6,-2,-22
1570181518974664,9,1,-2,-2,-6,-14,12,7
1570181518974664,10,7,2,1,-4,-1,-5,5
1570181518975661,17,3,-1,-3,-3,0,4,-1
1570181518975661,4,2,0,0,0,-6,-7,0
1570181518997748,18,8,2,-1,1,2,2,5
1570181518997748,-26,-9,-3,-1,-3,-1,1,-8
1570181518998600,10,8,-1,0,2,0,-1,-1
1570181518998600,12,2,3,1,-1,-10,-2,9
1570181519020545,-13,-5,-1,-1,-6,-6,-4,-4
1570181519020545,9,4,0,-1,-2,-10,-3,2
1570181519021005,-14,-5,-2,-1,3,13,0,-4
1570181519021005,-6,-3,0,-2,-4,-2,7,-3
1570181519034662,1,-3,0,2,3,4,-1,11
1570181519034662,8,3,-2,-2,-2,-8,-5,-3
1570181519035540,-8,-4,-2,-1,-2,-2,3,1
1570181519035540,1,-2,-1,-4,-2,5,15,-17
1570181519057498,0,3,2,2,2,-1,-12,11
1570181519057498,10,2,-2,-3,-4,1,-3,5
1570181519058544,-9,-5,-3,-2,-2,-9,-1,-1
1570181519058544,3,0,-2,-1,3,5,-3,-4
1570181519080535,-8,-2,-1,-1,4,16,3,-3
1570181519080535,-2,0,1,1,-5,-11,-4,-1
1570181519081377,-5,0,0,-3,-8,-17,-6,-5
1570181519081377,10,3,-1,0,3,9,2,9
1570181519094345,-5,0,-1,-1,2,11,1,-7
1570181519094345,6,1,0,0,-1,-10,-16,12
1570181519102322,-5,-1,-1,-1,2,10,3,-4
1570181519102322,4,-1,-2,-2,0,-8,-2,8
1570181519118485,-3,-1,-1,0,0,-4,0,3
1570181519118485,-2,-3,-2,-5,1,9,4,-13
1570181519119823,-4,-1,2,3,-1,0,-3,-2
1570181519119823,0,-1,-1,0,-1,-1,-5,7
1570181519140511,-2,2,-1,0,-4,-12,10,-3
1570181519140511,-13,-6,-1,1,0,7,1,-9
1570181519141612,0,-1,0,1,1,3,-1,-2
1570181519141612,1,1,2,0,0,-1,-1,6
1570181519154183,2,0,-1,-2,-1,-1,-1,3
1570181519154183,0,-1,-2,-2,-6,-6,1,-2
1570181519163165,-2,-1,1,-1,-1,-3,-2,0
1570181519163165,0,-1,0,1,0,10,2,-9
1570181519178171,0,0,0,0,1,-4,-4,-1
1570181519178171,1,2,-1,1,2,3,2,13
1570181519179121,0,-1,-1,-1,1,7,-2,3
1570181519179121,2,0,-1,-1,-1,-6,-3,-1
1570181519200279,-1,-2,1,-1,-1,5,-4,-8
1570181519200279,0,-3,-2,-2,1,3,0,-1
1570181519202062,1,1,3,2,-3,-8,0,-6
1570181519202062,5,1,-1,1,7,-1,-13,22
1570181519214035,0,-1,-1,0,-9,-13,1,0
1570181519214035,0,0,-3,0,-1,0,2,-3
1570181519223007,-2,0,-1,-2,2,0,-2,-3
1570181519223007,-6,-2,0,-1,0,-3,16,-20
1570181519238161,-1,0,1,-1,2,6,-4,2
1570181519238161,3,2,1,1,3,2,-1,0
1570181519238960,-1,-1,-1,-1,0,0,0,2
1570181519238960,-2,-2,-3,-1,-6,-4,-4,-11
1570181519259905,-2,-2,-2,-1,-2,0,0,-3
1570181519259905,-3,0,-1,-2,-2,2,1,-1
1570181519261897,-5,-2,-1,-1,-3,-2,1,-6
1570181519261897,-1,-2,0,-3,-2,2,0,6
1570181519273925,1,0,0,-1,2,3,-5,7
1570181519273925,1,-1,-3,0,-1,0,-3,-4
1570181519282849,0,-1,1,-1,0,-1,-2,5
1570181519282849,0,1,1,0,-5,-7,-6,0
1570181519297938,0,0,-2,-1,0,-3,-2,-7
1570181519297938,4,3,2,0,3,-2,2,15
1570181519299796,0,-1,-2,2,-1,4,5,3
1570181519299796,0,-3,-1,-2,-2,-6,-2,2
1570181519320862,-3,-2,0,1,3,12,4,-4
1570181519320862,7,2,2,1,1,1,-29,14
1570181519321735,-4,-2,-3,-2,-4,-16,-5,-2
1570181519321735,-1,0,1,1,-2,6,-1,2
1570181519333930,0,-2,-3,0,7,-6,-4,4
1570181519333930,-2,-1,0,-3,-12,11,12,-11
1570181519350723,0,-2,-2,-1,-4,5,-1,2
1570181519350723,-2,-2,-3,-1,-3,-8,-2,2
1570181519357658,-1,-1,0,-1,-5,-10,-2,-7
1570181519357658,-2,-3,0,-1,0,-1,5,-1
1570181519359634,-1,2,0,1,6,10,-5,-16
1570181519359634,0,-1,-2,-1,-5,-4,6,-1
1570181519380578,-2,0,2,-1,-1,-5,-2,-6
1570181519380578,0,-2,0,0,2,2,5,-3
1570181519381576,-1,-2,-1,-1,0,8,5,0
1570181519381576,1,0,0,-1,4,1,-4,2
1570181519393635,-2,-1,0,0,0,11,4,0
1570181519393635,0,0,0,-1,-1,-6,-3,7
1570181519402520,-2,-2,-2,-2,-4,-7,0,9
1570181519402520,-1,0,-1,1,3,5,7,5
1570181519417479,3,0,-1,-2,-5,-2,-4,5
1570181519417479,-5,-2,-4,-3,-1,-1,4,-15
1570181519419479,-4,-2,-3,-1,-2,-3,6,-8
1570181519419479,0,1,1,-1,1,4,-2,2
1570181519440473,-1,-2,-3,-2,-3,-3,2,-2
1570181519440473,-1,0,1,1,0,-11,-5,-2
1570181519441422,-2,-2,-3,-2,-1,-3,2,-2
1570181519441422,0,0,1,-1,-6,-9,1,-6
1570181519454443,-1,-2,0,1,0,-1,-1,-4
1570181519454443,2,-2,-1,-1,-3,-7,1,-3
1570181519462577,3,0,0,1,2,8,-3,8
1570181519462577,-8,-3,-4,-3,1,10,9,-43
1570181519477508,3,-1,-1,0,0,-3,-5,9
1570181519477508,-2,-2,-1,-1,1,-2,1,-12
1570181519479320,4,-2,-3,-2,-1,-1,-4,11
1570181519479320,3,1,1,1,-1,-4,-3,10
1570181519500261,-1,-1,-1,-1,-1,2,-1,-2
1570181519500261,-1,0,-2,1,2,15,1,-1
1570181519502253,-1,1,1,0,-5,-17,-6,-9
1570181519502253,2,0,-1,1,5,12,-4,7
1570181519514351,-3,-1,-2,-2,-5,-3,0,0
1570181519514351,0,-1,0,0,-1,-3,1,5
1570181519523197,-1,0,0,-1,0,-2,0,0
1570181519523197,0,0,0,1,-1,-4,-5,6
1570181519538158,-4,1,1,-1,1,-4,2,-11
1570181519538158,-1,-2,-3,0,4,18,5,3
1570181519539210,-1,-3,-2,-1,1,13,-3,-9
1570181519539210,1,0,0,0,-2,-11,-6,3
1570181519560230,-2,1,-1,-1,-1,-1,-2,-10
1570181519560230,0,1,-1,0,-3,-4,1,9
1570181519562097,-5,-2,0,0,1,4,12,-14
1570181519562097,3,-1,-1,-1,-1,3,-2,11
1570181519574262,0,1,0,0,0,-5,-4,-3
1570181519574262,2,1,0,-1,-1,-5,-3,2
1570181519583040,0,-3,-1,-2,-2,-5,3,4
1570181519583040,-4,-1,-1,0,-5,-4,1,-3
1570181519598001,2,0,0,0,2,9,5,6
1570181519598001,-2,-1,-1,-2,-1,-9,-1,-6
1570181519599353,0,2,0,-1,1,-3,-3,1
1570181519599353,-1,-1,-1,1,-1,2,0,1
1570181519619150,-2,-1,1,0,-1,-3,-4,4
1570181519619150,2,1,2,1,0,-3,-3,-2
1570181519627927,-3,-2,-1,0,-1,2,-4,1
1570181519627927,-1,-2,-2,-2,1,-11,-4,2
1570181519633907,-2,-2,0,-3,-1,1,1,-3
1570181519633907,-2,-3,-2,-1,2,0,1,1
1570181519642877,-1,1,0,-2,-4,-10,-6,0
1570181519642877,-1,-2,-1,-1,-3,1,-1,0
1570181519657929,-1,-3,-3,0,-1,1,2,0
1570181519657929,-1,0,-2,-1,-2,-4,-4,-3
1570181519658892,-2,-1,1,0,0,2,2,-2
1570181519658892,8,2,2,1,0,-3,-11,15
1570181519680777,1,-1,-1,-4,-1,-1,0,0
1570181519680777,-6,-2,1,-1,-5,-7,5,-32
1570181519681773,3,0,0,1,-1,4,-5,7
1570181519681773,-3,-2,-2,-1,-4,-2,0,-2
1570181519693993,-1,-1,-2,1,-1,1,-2,-4
1570181519693993,1,0,1,0,1,-7,2,2
1570181519702717,0,-1,-1,-1,-3,-4,-2,1
1570181519702717,-3,1,-2,-1,1,-4,0,-7
1570181519717675,0,-1,0,-1,-2,-2,-3,4
1570181519717675,-1,-2,-2,-2,-2,2,1,7
1570181519719673,1,-1,0,0,1,0,-1,-2
1570181519719673,1,0,-2,-1,1,1,0,4
1570181519740625,-1,-2,-1,-1,-2,4,1,-1
1570181519740625,0,-1,1,-1,1,1,-1,5
1570181519741620,1,-1,0,-1,-2,-3,-1,4
1570181519741620,-2,-2,-1,-2,-1,2,2,-8
1570181519762907,1,2,-2,1,-1,0,2,7
1570181519762907,-3,-3,-3,-3,-8,-10,-7,-3
1570181519763558,2,1,2,1,-2,-5,-2,1
1570181519763558,1,-1,2,1,1,3,5,-1
1570181519778288,0,-2,-1,0,-1,-8,-5,-11
1570181519778288,-3,-2,-2,1,0,7,3,-4
1570181519779519,3,2,-1,1,3,5,-11,14
1570181519779519,2,1,0,-2,-2,-1,3,13
1570181519800551,-2,0,-1,-1,-1,-1,0,-2
1570181519800551,0,-1,-2,-3,1,-4,0,1
1570181519801557,-1,-3,-2,-4,-1,3,15,-7
1570181519801557,-2,-2,-2,0,1,5,1,-4
1570181519823395,-2,-1,-1,1,-1,-3,-5,1
1570181519823395,0,-2,-2,0,0,2,-2,5
1570181519824521,-4,-1,-3,-1,0,-2,1,-4
1570181519824521,2,1,-1,-2,0,2,0,4
1570181519837596,0,-3,-1,-1,0,-2,-1,-1
1570181519837596,0,0,0,1,-1,-3,-4,0
1570181519839354,2,0,-1,-1,-1,-4,-11,13
1570181519839354,-4,-2,0,0,1,4,1,-11
1570181519860504,0,1,2,1,5,3,0,1
1570181519860504,3,2,0,-1,-3,-2,-4,7
1570181519862026,-1,-1,-1,0,-2,-5,3,-5
1570181519862026,-1,-1,0,-1,0,-4,-4,-3
1570181519883264,-3,-3,-2,-4,-2,11,2,-1
1570181519883264,-1,1,1,-1,0,-1,2,3
1570181519884238,-3,-2,-1,0,0,3,3,-10
1570181519884238,-1,-2,-3,1,1,0,-1,-4
1570181519905388,2,0,-1,-2,-4,-4,1,0
1570181519905388,-1,-1,-2,-1,1,1,0,-2
1570181519907171,-2,1,0,0,-1,4,4,-4
1570181519907171,-2,2,-1,0,-1,-6,-4,-1
1570181519919329,-1,-1,-1,0,-1,-5,-1,2
1570181519919329,0,2,1,1,0,2,-2,-2
1570181519928116,-4,-3,0,-4,-3,0,7,-7
1570181519928116,-2,-2,0,-1,-5,-4,6,-2
1570181519943234,0,0,-2,0,-2,-6,-11,10
1570181519943234,-1,-1,-1,-1,-1,0,-3,-1
1570181519944240,-1,-1,-1,0,4,5,-2,-4
1570181519944240,0,-1,0,-1,-7,-13,-3,-11
1570181519957319,1,0,0,0,0,-1,4,3
1570181519957319,2,-2,-2,0,2,3,3,5
1570181519964023,2,3,4,3,0,-13,-16,3
1570181519964023,1,0,-2,0,3,14,1,3
1570181519979981,0,0,-1,-1,-3,0,3,-6
1570181519979981,-2,-1,0,-1,-2,-7,0,0
1570181519981973,-1,-1,-1,-2,0,1,5,7
1570181519981973,0,-2,1,0,2,1,0,0
1570181520003010,-2,0,-1,0,1,5,0,-7
1570181520003010,-2,0,-1,-1,3,3,1,-3
1570181520003911,-4,0,-2,-2,-2,2,0,-8
1570181520003911,10,2,-1,1,-1,-9,-22,34
1570181520016879,2,0,-1,-1,0,1,-2,1
1570181520016879,-3,-1,-2,-1,-3,-2,-3,-11
1570181520023857,1,-1,-1,1,-1,-2,-1,-2
1570181520023857,-2,0,0,0,1,4,-2,-1
1570181520039853,-2,-2,-2,-2,-6,-11,1,-2
1570181520039853,2,0,-1,0,-2,4,-4,6
1570181520041811,2,1,0,-2,-1,-8,1,16
1570181520041811,-3,-1,0,-2,-1,2,13,-10
1570181520062755,2,1,2,0,2,-4,-6,-7
1570181520062755,0,-2,1,1,2,12,4,-1
1570181520063751,0,0,-1,-1,-3,-6,-1,-4
1570181520063751,-2,0,0,0,3,12,4,-6
1570181520076769,-1,1,1,-1,-2,-3,0,1
1570181520076769,-2,-2,-2,-2,-3,-6,0,-2
1570181520083695,1,-1,-2,0,2,16,1,0
1570181520083695,-3,-2,-3,-1,-4,-10,-1,-1
1570181520100247,-2,-2,0,-1,-1,0,0,-7
1570181520100247,6,4,1,1,-1,-5,-16,20
1570181520101244,-1,-2,0,0,-1,1,2,-5
1570181520101244,-4,-3,-1,-3,1,4,-2,-2
1570181520122299,1,1,0,0,-3,-2,5,9
1570181520122299,-2,-1,0,-2,-2,-1,4,-6
1570181520124185,-1,-2,-1,-1,-1,-2,-1,-2
1570181520124185,1,0,1,-1,-1,-5,-4,-2
1570181520137481,-4,-1,-2,0,2,5,4,3
1570181520137481,4,1,1,2,3,5,-7,5
1570181520144401,0,0,-1,1,-1,-1,-1,-1
1570181520144401,0,-1,-2,-2,-2,-2,0,-2
1570181520160437,-1,1,1,-1,0,-2,-4,4
1570181520160437,-3,-2,-2,-1,-4,-5,5,-7
1570181520162082,1,0,-2,-1,0,1,-3,-2
1570181520162082,-1,-1,-2,1,-1,-5,-1,-4
1570181520183084,-2,-3,-2,-1,1,8,3,-5
1570181520183084,-2,0,-1,-2,-2,-15,-6,-6
1570181520184026,-2,-1,-2,-2,-2,-3,13,-11
1570181520184026,-3,-2,0,1,0,1,-2,-5
1570181520197204,-1,-1,-1,-1,-1,-3,-2,-1
1570181520197204,-3,-2,-1,-1,-1,4,4,-3
1570181520203976,-1,-3,-1,-1,-1,2,-2,1
1570181520203976,-3,1,0,-2,-1,-3,3,-5
1570181520220155,1,2,2,1,0,-7,-4,-4
1570181520220155,-2,-1,0,1,3,13,10,-2
1570181520221930,2,-1,-3,-1,0,0,0,5
1570181520221930,-1,-3,-1,-1,-1,3,0,5
1570181520243213,-3,-4,-1,-2,-1,-1,-2,-3
1570181520243213,-1,-1,0,-1,-1,-1,1,-1
1570181520243866,0,1,-2,1,-1,-2,-6,1
1570181520243866,-6,0,-2,-1,0,-1,8,-28
1570181520255842,4,-1,-1,0,2,1,1,4
1570181520255842,-2,0,-2,0,-1,0,1,-1
1570181520264812,-2,-2,-1,-1,-2,-2,-1,-1
1570181520264812,-2,1,1,0,-3,-1,0,-6
1570181520279920,-3,0,-1,-1,-5,-7,-1,-3
1570181520279920,0,-2,-2,-2,-1,2,3,1
1570181520281763,0,-1,0,0,2,1,-3,2
1570181520281763,-2,-3,-1,-1,1,0,-8,-8
1570181520302714,-2,0,-1,0,-7,-10,0,-3
1570181520302714,0,0,2,-1,2,2,-7,1
1570181520304701,-2,0,0,-1,-1,-1,-3,-1
1570181520304701,1,-1,-1,-1,-2,-7,-3,6
1570181520316669,-3,-2,-2,-2,2,7,3,-4
1570181520316669,-3,-1,-3,-1,-1,-3,1,-5
1570181520325645,-3,-1,0,-1,-1,-1,-1,-3
1570181520325645,2,1,2,-1,0,1,-1,8
1570181520340610,1,-1,-1,0,2,10,0,1
1570181520340610,5,2,1,0,-7,-20,-20,20
1570181520341603,0,0,0,-1,0,-4,-6,2
1570181520341603,1,-1,-2,-2,0,0,-2,5
1570181520362555,-1,0,-1,-1,0,5,-1,1
1570181520362555,1,0,2,1,-2,4,5,-3
1570181520364541,1,-2,-1,1,-1,-3,-1,-1
1570181520364541,0,-1,0,0,-2,-5,-3,2
1570181520376704,-1,-1,-1,0,-1,-3,-3,-5
1570181520376704,-3,-2,-1,-2,1,0,3,-7
1570181520385494,-4,-2,-2,-2,-4,4,-1,-5
1570181520385494,1,0,0,1,1,3,1,14
1570181520400525,-2,-2,0,-1,-3,-14,-2,-1
1570181520400525,-1,0,0,1,-1,-5,0,-2
1570181520401999,4,1,2,1,0,1,-5,8
1570181520401999,-1,-2,-4,-1,0,-2,-3,-1
1570181520422632,-1,0,-3,-1,-1,2,-2,-2
1570181520422632,0,-1,-2,0,4,9,0,2
1570181520424457,-3,-1,-1,-1,0,-7,-2,-9
1570181520424457,5,2,0,0,-2,1,-10,18
1570181520436563,1,-1,-1,0,1,-4,0,3
1570181520436563,-3,0,-2,0,2,6,5,-5
1570181520445333,2,1,-1,-1,-2,4,0,5
1570181520445333,-2,-1,-2,-1,-2,-2,-1,-9
1570181520460498,0,-1,-1,-1,1,9,5,5
1570181520460498,2,0,0,0,-2,-4,-10,1
1570181520461701,-2,-3,-1,-1,0,3,2,-3
1570181520461701,1,-2,-1,0,0,-1,0,-3
1570181520483227,-2,0,2,-2,2,-2,-6,-6
1570181520483227,-1,-2,0,0,0,-1,4,-15
1570181520484296,0,1,0,1,1,-3,1,3
1570181520484296,-5,-2,-1,-2,-4,-5,-3,-15
1570181520496330,0,-2,-3,-1,2,5,-3,-3
1570181520496330,-1,-1,0,2,0,2,0,-1
1570181520505173,0,-1,-4,-3,-6,-12,1,-1
1570181520505173,-2,4,3,3,2,5,8,-16
1570181520520237,0,-2,0,0,-1,3,-2,2
1570181520520237,-1,-2,-1,-2,-3,-3,0,1
1570181520522120,-2,0,0,0,-1,-4,-3,-4
1570181520522120,-3,-3,-1,-2,-2,0,5,-1
1570181520543128,0,0,-2,-1,-2,-4,2,4
1570181520543128,-2,0,-3,-3,-3,-4,-2,-2
1570181520544065,-3,-2,1,-1,1,4,1,-3
1570181520544065,2,0,-1,0,0,-2,0,3
1570181520556046,1,0,1,0,2,10,-1,2
1570181520556046,0,-2,-2,-3,-1,-10,-4,0
1570181520565007,-2,-1,-2,-3,-4,4,4,7
1570181520565007,-1,-1,-1,-1,-4,-13,-7,-7
1570181520580675,1,-1,1,0,-1,0,0,2
1570181520580675,-3,-1,0,0,-1,4,4,-4
1570181520581960,-1,0,1,-1,0,-2,-3,1
1570181520581960,1,1,0,-1,2,5,3,6
1570181520602913,2,2,0,0,0,-1,4,17
1570181520602913,0,-3,-3,-3,-2,-3,0,0
1570181520604101,0,0,0,2,2,5,10,1
1570181520604101,5,2,2,1,0,-1,-4,13
1570181520616953,-1,-2,-3,-1,-1,-4,-1,1
1570181520616953,5,2,1,1,-1,1,-11,20
1570181520625629,-2,-3,-3,-1,1,-1,0,-3
1570181520625629,-3,-2,0,-1,0,3,0,-4
1570181520639843,-4,-1,-1,0,-2,-3,-3,1
1570181520639843,6,2,2,2,2,1,6,1
1570181520641801,2,1,-2,0,1,9,2,11
1570181520641801,-1,-1,-2,-1,0,-7,0,2
1570181520662745,-1,0,1,-2,-1,-6,-3,-5
1570181520662745,-3,-3,-2,-1,-2,3,3,-9
1570181520663786,0,-1,0,-2,0,-3,-4,-3
1570181520663786,-1,-2,-1,-2,1,8,2,0
1570181520676706,-2,-2,-2,0,-2,-6,-2,-4
1570181520676706,-2,-2,0,0,-1,-1,1,-1
1570181520684768,5,2,1,0,0,-2,-8,13
1570181520684768,-2,-2,-1,0,-2,4,-3,4
1570181520699650,1,-1,-2,0,-4,-3,-5,-10
1570181520699650,-4,0,1,-1,0,-3,-3,6
1570181520701642,-1,-2,-3,0,0,1,-1,-18
1570181520701642,0,-1,-1,0,-1,-4,-2,-2
1570181520722640,6,2,1,1,0,3,-6,10
1570181520722640,-2,-1,-2,-1,-2,1,3,-6
1570181520724724,-2,1,2,0,0,-3,-2,-5
1570181520724724,4,1,0,-1,-1,-3,3,17
1570181520745522,-4,-1,-1,-2,0,7,0,-8
1570181520745522,-1,0,-2,-1,0,2,-1,-3
1570181520746520,-2,-1,-2,-3,-6,-21,-7,-6
1570181520746520,-2,-2,-1,-2,-1,-5,-1,-6
1570181520760482,0,-1,-1,-1,0,3,2,1
1570181520760482,0,-1,-1,0,-5,-14,0,0
1570181520761481,-2,-1,0,-2,5,15,7,-11
1570181520761481,2,0,0,0,-6,-9,-11,6
1570181520782472,-1,-2,-2,-2,-1,-8,4,1
1570181520782472,-1,0,0,-1,2,10,-1,-3
1570181520788408,1,-1,1,-1,0,-1,2,3
1570181520788408,-2,-1,-1,-2,-1,3,0,-13
1570181520805362,-3,0,0,-1,-1,0,0,-6
1570181520805362,-1,0,-1,0,0,1,-4,3
1570181520806427,-1,-2,-1,-1,-1,-2,-2,2
1570181520806427,-2,-1,-3,-1,2,4,3,-2
1570181520820324,-2,-1,-1,0,-1,0,1,-4
1570181520820324,-2,-1,-1,-2,-1,-3,3,-3
1570181520821320,-1,-1,-2,0,-2,-1,-2,-4
1570181520821320,3,1,2,2,1,2,-6,14
1570181520842264,1,1,-1,-1,-2,-4,-2,-3
1570181520842264,2,-1,-1,-1,4,11,5,4
1570181520844260,4,3,3,2,0,-11,-23,13
1570181520844260,-1,1,0,0,0,-1,-1,-14
1570181520865203,-3,-2,-1,0,-2,-3,-1,-2
1570181520865203,0,-1,-1,1,-2,-9,-4,2
1570181520866342,-1,-2,-2,0,1,20,7,-3
1570181520866342,-1,0,-2,1,-1,2,5,-4
1570181520879786,-2,1,0,2,1,2,-4,-4
1570181520879786,-1,1,-2,-2,-4,-7,4,-3
1570181520886181,0,0,-2,0,4,5,4,0
1570181520886181,-3,-1,-1,-3,0,-2,2,-5
1570181520903101,-1,-3,-2,0,0,2,2,-1
1570181520903101,-3,-1,0,0,-3,-1,-6,-14
1570181520904100,-3,-3,-2,-3,-5,-21,-3,-4
1570181520904100,-1,-1,-1,1,-1,-3,-2,-3
1570181520925049,2,-1,-2,-1,2,9,3,10
1570181520925049,0,0,-2,0,2,-2,0,-1
1570181520927072,0,-1,0,-2,-2,6,4,0
1570181520927072,1,2,1,0,0,-3,-5,3
1570181520939005,-2,0,-1,-1,-2,-4,0,-8
1570181520939005,0,0,0,-1,0,2,5,-6
1570181520945989,2,0,-1,1,-2,-2,-8,13
1570181520945989,-3,-3,-3,-2,-1,-6,1,1
1570181520962941,-2,-2,-3,-4,0,5,2,-4
1570181520962941,-1,-2,-1,0,0,3,0,2
1570181520963941,-2,-1,-3,-2,-2,-7,4,-8
1570181520963941,-1,1,-1,1,7,19,6,-4
1570181520984884,2,-1,1,1,-1,-3,0,9
1570181520984884,-1,-2,0,-1,0,-6,1,1
1570181520986879,-2,0,1,0,-1,-1,-4,-20
1570181520986879,-1,-1,-1,-1,-1,-1,0,4
1570181520999400,0,2,2,1,0,0,-4,-14
1570181520999400,-2,-4,-4,0,1,-1,0,5
1570181521013899,-1,1,-1,0,0,0,2,-2
1570181521013899,-1,0,0,-2,-2,2,0,-3
1570181521023047,1,0,0,-2,-3,-5,0,8
1570181521023047,-1,-1,0,-2,-1,-4,-4,-3
1570181521024703,0,-1,0,-2,-1,2,0,4
1570181521024703,-2,-2,-2,-3,-5,-4,0,-1
1570181521045514,-1,-2,0,-2,-1,-3,-2,11
1570181521045514,0,0,0,2,-1,-2,-5,-1
1570181521047034,-3,-4,-4,-2,4,7,6,4
1570181521047034,0,-3,-2,-1,-5,-3,1,1
1570181521059611,-3,1,0,-2,0,-1,-3,-5
1570181521059611,1,0,-1,0,1,4,2,1
1570181521066372,-1,0,0,1,1,-2,-2,-2
1570181521066372,-1,-1,0,0,1,-4,1,-1
1570181521082502,-3,-2,-2,-1,-2,1,1,-9
1570181521082502,-2,-1,-1,-2,-6,-18,-4,-1
1570181521084463,-1,0,1,0,-1,1,1,4
1570181521084463,0,-2,0,0,3,9,1,-5
1570181521105573,0,1,0,0,-4,-11,-2,3
1570181521105573,0,1,0,-1,-1,3,-2,2
1570181521106541,-1,-1,0,0,-2,-1,0,0
1570181521106541,-1,1,-2,0,0,-2,2,2
1570181521127336,1,-2,-1,1,3,6,2,0
1570181521127336,0,-1,-1,0,0,4,2,1
1570181521129103,-1,-2,-2,-1,-2,-8,-1,-2
1570181521129103,-5,-2,-1,-5,-7,-1,-3,-19
1570181521143072,10,6,7,4,3,0,-10,28
1570181521143072,0,0,-1,-2,1,1,0,1
1570181521144635,0,-1,-1,-1,0,-1,-1,-3
1570181521144635,0,0,-1,1,-1,-5,-5,-1
1570181521165661,-3,-1,-1,0,-3,1,3,-6
1570181521165661,-3,-1,-1,-2,-4,-10,-1,-3
1570181521166635,-2,-1,0,0,-2,1,10,-15
1570181521166635,-1,-2,-2,1,0,1,2,9
1570181521179672,-3,-3,-3,-2,0,0,3,-7
1570181521179672,0,0,-1,0,3,6,0,2
1570181521186657,-2,0,-1,-1,-4,0,4,-4
1570181521186657,0,0,1,0,1,-3,-3,0
1570181521202881,-2,-1,-2,-2,-1,4,1,-6
1570181521202881,-1,-1,1,-1,1,-1,0,-5
1570181521204075,-3,0,0,0,0,0,-3,2
1570181521204075,0,0,-1,-1,1,-1,0,1
1570181521224874,0,-1,-3,-1,-2,1,0,3
1570181521224874,-5,-1,1,1,-2,-8,-4,-12
1570181521226836,0,-1,-2,-1,-1,5,0,6
1570181521226836,-1,0,1,0,-1,0,1,3
1570181521238872,-3,-4,-2,-1,-1,-2,4,-1
1570181521238872,-1,-1,-2,-1,1,14,2,-3
1570181521247801,1,1,-2,-2,-2,-10,-5,-1
1570181521247801,4,1,1,1,-1,-6,-10,12
1570181521263153,-1,0,0,-1,-2,-1,0,-7
1570181521263153,-3,-3,-2,-2,0,3,0,-1
1570181521263828,2,0,0,-1,1,-1,-4,8
1570181521263828,1,-2,-1,-1,0,5,6,0
1570181521292754,-3,-1,-2,0,-2,-4,-1,-4
1570181521292754,2,0,1,1,-2,7,-3,3
1570181521294746,-3,-2,-1,1,0,-5,1,-6
1570181521294746,0,0,-2,-2,-1,-5,-1,-3
1570181521299176,-2,0,0,1,-1,-3,-5,-3
1570181521299176,-1,-1,-2,-1,2,1,1,0
1570181521307821,-1,-2,-1,-3,-1,2,0,3
1570181521307821,-2,0,1,1,0,-3,-2,-7
1570181521322942,-1,-1,-1,-2,-1,2,-7,-14
1570181521322942,0,1,-2,-2,-3,-3,5,10
1570181521324050,0,-1,0,1,1,6,0,6
1570181521324050,1,-1,-1,-1,-1,0,0,-3
1570181521344722,-1,1,-1,-2,1,0,1,7
1570181521344722,-2,-1,1,-1,-2,-3,-1,-3
1570181521347429,-1,-2,-3,0,-4,-16,-4,0
1570181521347429,1,0,0,0,1,6,1,8
1570181521367667,1,-1,-2,-2,1,-1,2,-1
1570181521367667,-6,-1,-2,-2,-3,0,8,-9
1570181521369653,0,0,0,0,1,2,-4,2
1570181521369653,-5,-2,-2,-1,1,0,5,-8
1570181521382620,-1,0,0,-1,-3,-4,0,1
1570181521382620,1,-1,-2,0,1,0,-1,3
1570181521384615,1,1,2,0,2,10,1,-2
1570181521384615,0,-1,-1,-1,-1,-4,-1,-3
1570181521405559,1,1,3,2,1,3,4,-3
1570181521405559,2,1,2,4,1,-6,-8,7
1570181521406568,-1,-1,-2,-2,-1,3,-1,-1
1570181521406568,-1,0,0,-1,0,-1,-1,1
1570181521418522,0,0,-1,0,2,-2,-1,3
1570181521418522,-3,-3,-2,-2,-2,0,4,-4
1570181521427498,7,3,3,1,-1,-2,-13,25
1570181521427498,-2,-2,0,-1,-2,-2,0,-2
1570181521442893,-3,-1,-1,0,1,-1,3,-2
1570181521442893,-2,0,-3,-2,2,0,-4,0
1570181521444454,0,0,-1,0,1,-2,5,-8
1570181521444454,0,-1,0,-1,-6,-8,-3,-3
1570181521465397,1,1,0,1,1,5,1,2
1570181521465397,1,0,0,-1,2,11,4,-3
1570181521466396,-2,2,0,-1,-2,-6,0,-4
1570181521466396,0,-1,0,-1,3,4,-4,-11
1570181521478364,0,-2,-3,-2,-2,3,4,0
1570181521478364,2,-2,-2,-3,0,-2,-3,2
1570181521487337,-2,-1,-2,-1,-1,-9,-1,-6
1570181521487337,-4,-1,-2,-3,-2,2,7,-3
1570181521503295,-1,-2,-2,-2,-3,-2,-2,0
1570181521503295,-2,-1,0,-1,-1,1,-1,-1
1570181521504341,-2,-4,-4,-1,-2,2,2,-5
1570181521504341,-2,1,2,2,0,1,-4,-4
1570181521525029,2,1,-1,-1,0,-4,0,16
1570181521525029,0,0,-1,1,-1,-3,-1,-1
1570181521526977,-3,-2,-2,-1,0,4,3,-4
1570181521526977,1,-1,-1,-1,0,0,1,6
1570181521539176,-1,-2,0,-2,1,4,-3,-5
1570181521539176,-2,1,-1,-1,-7,-20,-5,-5
1570181521547921,1,0,1,0,1,3,2,14
1570181521547921,0,-2,-1,-1,-1,-5,-3,-6
1570181521561885,-1,-2,0,-1,1,7,-20,1
1570181521561885,3,1,0,1,-3,-1,0,8
1570181521569951,-4,0,0,-2,-1,2,4,-9
1570181521569951,-1,-1,-1,-2,-1,-2,-1,5
1570181521584822,-1,-2,-2,-1,0,-6,4,-6
1570181521584822,-1,-1,1,2,1,3,-3,-5
1570181521586817,-2,-1,-2,1,1,4,0,-1
1570181521586817,2,3,-1,1,2,2,1,7
1570181521598786,0,1,1,1,-2,-7,-2,-5
1570181521598786,1,1,1,0,1,5,-2,-1
1570181521607978,1,1,0,1,-2,-1,0,-6
1570181521607978,-2,-3,-1,-1,-3,-9,0,10
1570181521622917,-3,0,-1,-1,0,-2,4,-3
1570181521622917,1,0,-1,-2,0,0,2,7
1570181521623913,1,0,0,0,-1,0,-2,-1
1570181521623913,-5,-3,-1,-2,-2,3,7,-8
1570181521645078,1,1,0,0,-2,4,0,-1
1570181521645078,-2,-2,-1,-4,-3,-15,-4,-5
1570181521646852,-3,-1,-1,-1,-1,-7,-6,-8
1570181521646852,0,1,-2,0,2,10,2,5
1570181521667794,0,-1,0,-1,0,-2,1,4
1570181521667794,0,-1,-1,-2,-2,8,2,-3
1570181521668791,-1,-2,-2,-2,0,0,3,-2
1570181521668791,1,-1,-1,0,-2,-3,-2,-1
1570181521682756,-6,-3,-2,-2,-1,0,15,-22
1570181521682756,2,2,-1,3,2,2,-4,10
1570181521683753,-2,-1,-1,-3,1,2,4,-4
1570181521683753,1,2,-1,0,1,2,-4,-3
1570181521704697,-1,0,0,0,-1,-2,-1,-4
1570181521704697,-3,-3,-1,-1,-1,-1,2,-2
1570181521706690,-2,-1,0,-1,-2,1,-2,0
1570181521706690,-1,-1,-1,-1,1,1,-2,0
1570181521728632,-3,-1,-3,-1,-1,-4,-2,4
1570181521728632,0,0,0,-1,2,8,1,3
1570181521729630,0,-1,-2,2,1,0,-6,0
1570181521729630,-1,-2,-1,-1,-1,-3,-4,-12
1570181521742696,0,1,-1,0,-3,-4,-3,6
1570181521742696,-1,0,0,-1,0,3,4,-3
1570181521744589,1,1,-1,0,-1,-1,2,0
1570181521744589,-1,-1,-1,2,-1,-5,-3,-4
1570181521765534,1,0,1,-1,0,-8,-6,2
1570181521765534,-3,-3,-2,-1,1,5,2,-4
1570181521766533,-6,0,-1,0,-3,-2,-3,-16
1570181521766533,-1,0,-1,-1,-3,-1,0,0
1570181521787483,1,0,-2,-1,-1,2,0,1
1570181521787483,0,-2,-1,-1,1,-8,-7,3
1570181521789472,1,-2,-3,-3,-2,8,3,0
1570181521789472,1,-1,-2,-2,-1,2,1,3
1570181521802438,-1,-1,-3,0,-1,0,-3,-7
1570181521802438,-3,-1,-1,1,-2,-3,4,-9
1570181521808421,2,0,-1,0,-1,-1,-2,9
1570181521808421,-2,0,0,-1,-2,1,-2,-2
1570181521825375,-2,-1,1,-1,0,-2,-2,5
1570181521825375,2,1,1,-1,-1,-3,0,16
1570181521826372,1,0,-1,-1,-1,-3,-1,0
1570181521826372,1,-1,-1,-2,-1,0,0,2
1570181521848314,2,-1,-1,2,-1,-5,-2,8
1570181521848314,-1,-2,-1,0,2,10,1,-4
1570181521849311,3,0,0,1,2,3,0,5
1570181521849311,-3,-1,0,-1,-2,-2,4,-3
1570181521862558,-2,0,0,-1,-1,3,0,-1
1570181521862558,3,2,-2,-1,0,2,-2,3
1570181521869262,-1,-2,-1,-1,-5,-20,-6,1
1570181521869262,0,0,-2,1,-1,-5,-7,9
1570181521885213,1,1,0,0,2,6,-4,-1
1570181521885213,1,-1,-2,-1,-3,-6,0,2
1570181521886618,-1,-1,0,-3,0,5,-2,2
1570181521886618,-2,-2,-2,-2,-4,-9,-3,-2
1570181521907155,-3,-3,-4,-1,-1,-4,12,-10
1570181521907155,1,1,-1,0,1,-1,-4,-4
1570181521909150,-5,-2,-3,-1,0,-1,0,-7
1570181521909150,0,-3,0,0,2,5,2,2
1570181521922118,-2,-3,-2,0,-2,2,1,-6
1570181521922118,0,0,-2,-2,0,0,1,-6
1570181521929096,3,3,1,1,0,-1,2,11
1570181521929096,-1,-3,-1,0,-1,-4,-2,-3
1570181521945056,0,2,1,0,0,5,-5,3
1570181521945056,-3,-3,-2,-2,-5,-15,-5,-6
1570181521947097,1,0,-1,-1,2,0,1,2
1570181521947097,0,2,2,-1,1,0,-1,-2
1570181521968000,-1,-1,-1,-1,-1,-2,-3,-3
1570181521968000,-4,-3,-1,0,1,1,0,5
1570181521968989,-3,-2,-1,-1,3,3,5,-13
1570181521968989,4,0,0,-1,0,-2,-8,9
1570181521982188,-1,-2,-1,-3,-3,-3,-5,-9
1570181521982188,0,2,1,2,-1,-1,-2,-6
1570181521988938,-1,-2,0,-1,-2,1,0,-3
1570181521988938,-2,-2,-2,0,-1,2,3,-3
1570181522004895,0,0,-2,0,0,-1,-1,2
1570181522004895,-1,-1,-1,-1,2,3,0,0
1570181522007065,0,0,-2,-1,-2,-1,-3,-1
1570181522007065,-3,0,-1,0,1,-3,0,10
1570181522035207,2,1,-2,-1,-1,-3,1,-1
1570181522035207,-2,-2,-4,-2,-1,16,5,-1
1570181522037017,1,1,3,1,0,-2,-2,5
1570181522037017,0,1,0,-2,-1,1,1,-4
1570181522042116,0,1,4,-1,1,-4,-5,2
1570181522042116,-1,-2,-1,-1,0,-2,0,2
1570181522048784,-4,0,-1,-1,-3,-3,3,-12
1570181522048784,1,0,-1,1,3,12,5,2
1570181522064780,0,-1,-3,0,-1,-3,-1,1
1570181522064780,0,-1,1,0,-1,-1,0,-3
1570181522066737,0,-2,-1,-2,0,0,-1,2
1570181522066737,-2,-1,0,0,0,-1,1,-6
1570181522087677,0,-2,-1,0,-1,-1,-4,12
1570181522087677,-2,1,-1,0,-3,-5,-3,5
1570181522089678,0,0,-1,-2,0,5,-1,-7
1570181522089678,0,1,0,0,2,1,-4,2
1570181522101768,0,-1,-2,-2,-3,-2,3,-3
1570181522101768,-1,-2,-2,0,0,0,2,-1
1570181522108683,0,0,1,0,-1,-3,-3,4
1570181522108683,-1,-1,0,-2,0,-1,1,-11
1570181522125727,-1,-1,0,-1,0,0,1,1
1570181522125727,-2,-1,0,-2,0,-3,-1,-7
1570181522126570,2,-1,-1,1,-1,-1,2,1
1570181522126570,0,1,2,1,-1,-4,-4,2
1570181522148246,-1,-1,-2,-2,0,2,1,2
1570181522148246,0,1,0,-1,0,8,-2,-1
1570181522149515,-2,-2,-3,-2,-4,-18,-7,-10
1570181522149515,0,-2,-2,-2,-1,-3,1,-2
1570181522161481,-1,-1,1,1,0,2,1,-1
1570181522161481,0,-1,0,0,-1,-2,-1,-1
1570181522170461,-5,-1,-2,-2,-1,1,0,-10
1570181522170461,4,0,0,1,1,4,-9,14
1570181522185459,-2,-1,-1,0,-2,-8,-1,-1
1570181522185459,-1,0,0,-5,-2,-6,1,-1
1570181522186498,-5,-3,-2,-1,3,17,10,-9
1570181522186498,0,0,-1,-1,-3,-5,0,4
1570181522207357,1,1,0,-2,1,4,-1,-1
1570181522207357,1,0,-1,0,1,-3,-5,3
1570181522209355,-3,-1,0,-2,-6,-4,-6,-11
1570181522209355,-2,-1,-1,0,-1,1,3,-5
1570181522221479,0,0,-2,0,-2,0,-3,-1
1570181522221479,-2,1,0,1,1,-2,2,-2
1570181522231289,2,0,0,-1,1,2,-1,6
1570181522231289,-4,-3,-1,0,-1,0,3,-3
1570181522245410,-1,-1,-1,-2,-2,-4,-2,-2
1570181522245410,-1,0,-1,-1,0,0,-1,-7
1570181522247247,2,0,1,0,1,3,-2,12
1570181522247247,-1,0,-1,-2,-1,-4,-2,-2
1570181522267198,-1,0,-2,1,3,7,3,0
1570181522267198,0,1,0,-1,-3,-12,-3,1
1570181522269191,-2,-2,-3,-2,1,8,2,-2
1570181522269191,-4,-2,-4,-2,-2,0,-2,-1
1570181522281160,1,0,1,1,-2,-4,-2,2
1570181522281160,-1,-1,-3,0,-2,1,2,-2
1570181522290133,1,1,-1,1,-3,-8,-1,5
1570181522290133,-3,-2,-2,-1,0,0,3,-8
1570181522305224,1,0,1,-1,1,5,3,11
1570181522305224,0,-2,0,-1,-1,-4,-3,1
1570181522307087,-1,0,-1,2,4,7,-4,7
1570181522307087,0,1,-1,1,-3,-2,12,-11
1570181522328031,6,2,-1,0,-1,-3,-9,9
1570181522328031,-1,0,-1,0,-1,0,-1,-1
1570181522329029,1,0,-1,0,0,-1,-3,5
1570181522329029,-2,-1,0,-2,-1,2,-1,-6
1570181522341004,-3,-4,-1,-1,0,-1,1,-6
1570181522341004,-1,1,-2,1,-1,3,2,-1
1570181522351025,0,0,1,1,-2,-1,-3,2
1570181522351025,-2,0,-1,0,-4,-13,-6,1
1570181522364980,0,1,-1,0,4,11,-9,16
1570181522364980,1,0,-1,-3,1,6,3,4
1570181522367055,-1,1,-1,-1,1,-2,0,5
1570181522367055,3,-2,-1,-1,1,-2,-3,7
1570181522387871,-5,-2,-2,-1,0,-4,2,-10
1570181522387871,-2,-3,-1,-1,0,-2,-3,-13
1570181522388868,0,0,0,0,-2,1,1,3
1570181522388868,-2,1,-2,-3,-3,-12,-3,-4
1570181522400945,-2,-2,-1,-3,-3,-1,0,-6
1570181522400945,-4,-5,-2,-2,1,0,-5,-8
1570181522409812,0,0,0,1,-1,-4,-1,-8
1570181522409812,1,-1,1,2,1,7,-3,4
1570181522425130,-2,-1,-1,-1,-2,-3,2,-4
1570181522425130,0,1,0,0,-2,-4,-2,5
1570181522426769,0,0,-2,-2,0,1,1,0
1570181522426769,0,0,-1,0,0,2,0,1
1570181522447745,0,0,0,-1,-1,-5,-2,-5
1570181522447745,0,-2,0,-1,0,-1,1,0
1570181522449708,-1,-2,-2,-2,2,5,0,1
1570181522449708,-1,0,-1,-1,1,1,0,2
1570181522461673,-2,0,2,0,-2,-3,2,-5
1570181522461673,-1,0,-1,1,-3,-2,-1,2
1570181522470651,-2,-1,0,-2,-3,-7,-3,0
1570181522470651,1,-1,-2,-1,1,4,1,1
1570181522485608,-4,-4,-2,-3,-1,-6,12,-20
1570181522485608,3,2,1,1,0,11,-9,11
1570181522486608,-1,-1,1,1,-2,-13,-1,5
1570181522486608,1,0,1,0,-1,4,-1,4
1570181522507551,1,0,-2,0,-1,-2,3,9
1570181522507551,-1,0,-2,-1,2,3,3,1
1570181522513774,-1,-3,-2,-1,-1,4,0,0
1570181522513774,-2,-2,-1,-2,-2,-4,1,-4
1570181522521516,1,1,-1,1,-1,3,-3,4
1570181522521516,-2,-3,-1,-2,-5,-10,3,-16
1570181522530493,1,3,0,2,4,9,-4,0
1570181522530493,0,-1,0,1,0,0,2,0
1570181522545453,1,-1,0,-1,-1,-3,-4,-4
1570181522545453,-2,-3,-1,-3,0,0,1,2
1570181522546447,-1,-2,-1,-1,-2,-5,-1,-4
1570181522546447,0,-1,0,-1,1,-1,-6,0
1570181522567420,1,0,0,0,1,1,1,-1
1570181522567420,3,0,1,-1,0,-3,-6,14
1570181522569385,-1,-1,0,-2,-1,1,5,17
1570181522569385,-4,-2,-2,-2,-3,-9,3,-6
1570181522581353,1,1,0,1,-2,1,0,18
1570181522581353,0,2,-2,0,2,1,3,-1
1570181522590344,-1,-1,-1,-2,-4,-6,-3,-6
1570181522590344,0,-1,-1,0,-1,6,-2,0
1570181522605293,-4,-2,-1,0,-2,-1,0,-6
1570181522605293,-1,-1,0,-2,0,-1,1,-2
1570181522606824,-5,-2,-3,-2,-2,3,10,-8
1570181522606824,4,1,-3,-1,-3,-6,-9,-9
1570181522627236,0,0,-1,1,1,-1,-2,-5
1570181522627236,-3,0,-1,1,-3,3,0,-3
1570181522629225,0,-1,1,1,-1,0,-3,-3
1570181522629225,-2,-2,-1,-3,-1,3,1,-3
1570181522650622,0,0,-1,-1,-1,-2,-3,0
1570181522650622,-2,-1,0,-1,-2,-3,-1,1
1570181522652166,-1,0,-2,-2,0,-1,-2,1
1570181522652166,-3,-1,0,-3,-1,2,7,-8
1570181522666128,2,1,0,1,3,13,-11,13
1570181522666128,-1,-1,0,0,-1,-4,7,-4
1570181522667126,-1,-1,1,1,0,-3,-5,-9
1570181522667126,-1,0,-1,-2,1,2,1,0
1570181522688068,-2,-3,0,-3,-2,2,2,-5
1570181522688068,-1,-2,-2,0,0,2,-1,-5
1570181522689527,-1,0,-1,0,0,-1,-3,0
1570181522689527,-1,-1,1,0,0,1,-1,6
1570181522710016,-2,0,1,-3,-2,-2,2,-6
1570181522710016,0,1,-1,-1,-5,-13,-10,-8
1570181522712010,1,-1,-2,-2,2,10,4,2
1570181522712010,-1,-1,1,1,-2,-1,-1,2
1570181522724969,-2,-1,0,-1,0,-1,0,-3
1570181522724969,-3,-3,-1,-2,-1,-3,2,-5
1570181522726966,6,4,1,2,-1,-2,-7,14
1570181522726966,0,-2,-2,-2,0,2,0,2
1570181522748033,-1,-1,-2,-1,0,-5,-3,-6
1570181522748033,1,-1,-1,-1,-1,3,4,2
1570181522748907,2,-1,1,-2,0,-3,-14,21
1570181522748907,0,-1,-1,0,3,12,0,-6
1570181522769849,-1,-1,-2,-1,-5,-20,-4,-3
1570181522769849,2,1,-1,-1,1,6,3,7
1570181522771846,-2,-2,0,-1,-1,-2,6,-7
1570181522771846,0,0,-1,-1,-3,-6,-2,2
1570181522784819,1,0,-1,0,3,9,2,0
1570181522784819,0,0,-1,0,2,1,0,5
1570181522790794,-2,-2,-1,-1,-2,-2,4,-6
1570181522790794,-1,0,-2,1,1,-2,-2,3
1570181522807748,-2,-1,-1,-2,-3,-5,3,-3
1570181522807748,-4,-2,-1,-1,0,9,-4,-5
1570181522809743,3,1,-2,-1,-2,-1,4,7
1570181522809743,1,1,1,1,0,-2,0,17
1570181522829689,-1,-1,-1,-1,-1,2,4,-3
1570181522829689,13,4,3,1,0,-10,-34,21
1570181522831687,-1,-1,-1,0,2,1,2,-2
1570181522831687,-1,-1,0,-2,-3,0,-3,-5
1570181522844654,0,-1,0,-1,2,10,1,-2
1570181522844654,-1,0,0,-1,-1,-5,12,1
1570181522851766,-4,-3,1,0,-2,-4,-3,-13
1570181522851766,1,-1,-1,1,2,-3,-4,5
1570181522867594,-2,-1,-1,0,-2,-6,0,-2
1570181522867594,-2,-3,-2,-2,1,2,4,-9
1570181522869583,0,1,1,-2,-2,-3,0,-2
1570181522869583,-5,-1,-1,-2,-4,-5,2,-11
1570181522890534,1,-2,-1,-2,1,6,1,11
1570181522890534,-3,1,0,-1,-4,-2,2,-6
1570181522891524,0,0,-1,-2,0,-4,-1,-2
1570181522891524,3,0,1,1,-2,-5,-10,16
1570181522904489,-2,0,0,0,-1,-2,-3,-7
1570181522904489,-3,-2,-2,1,-1,-4,4,-3
1570181522911477,-1,1,0,0,-1,12,-4,0
1570181522911477,-2,-1,-1,0,2,9,3,-10
1570181522927512,-1,-1,0,-1,-3,-1,-3,0
1570181522927512,-3,-3,-1,-1,-1,2,2,-3
1570181522929482,-1,-2,-1,-1,-1,0,3,-1
1570181522929482,-2,1,0,-3,-1,-1,0,-4
1570181522957351,-9,-6,-4,-4,-2,-1,8,-19
1570181522957351,-3,-2,-1,-2,-2,-4,-2,-3
1570181522959342,1,-2,-3,-1,0,-1,-1,-2
1570181522959342,0,-1,-1,0,-1,-3,0,2
1570181522964329,1,1,0,-1,-2,-2,0,1
1570181522964329,-1,-1,0,-2,0,0,0,-2
1570181522971481,-5,-3,-3,-3,-2,-5,-6,-14
1570181522971481,0,-2,-3,-3,-1,1,3,-6
1570181522987467,-3,-1,0,1,-2,0,7,-16
1570181522987467,1,1,-1,1,0,-4,-9,2
1570181522989264,0,-1,-1,1,-2,2,1,2
1570181522989264,-1,0,0,-1,-1,-3,2,-7
1570181523010211,1,2,-2,-1,-1,-4,-2,4
1570181523010211,-2,-1,-1,0,2,5,3,-3
1570181523011209,-3,1,0,1,0,-3,-1,-3
1570181523011209,-1,0,0,0,0,-2,0,0
1570181523024173,2,-1,-2,0,-4,-8,-4,9
1570181523024173,-1,0,1,1,2,-2,1,-2
1570181523031506,1,0,-1,-1,1,0,0,3
1570181523031506,-5,-2,-2,-1,-1,0,-3,-11
1570181523047116,-1,0,1,0,1,2,-5,1
1570181523047116,-5,-3,-5,-2,-3,2,10,-13
1570181523049104,9,2,3,3,-2,-7,-19,23
1570181523049104,0,-2,-2,-2,0,2,1,3
1570181523070054,-1,-3,0,0,0,0,-4,0
1570181523070054,-2,-1,-1,-2,-3,-8,-4,-6
1570181523072042,1,0,1,0,6,19,10,-6
1570181523072042,-1,0,0,0,-1,0,-1,4
1570181523084236,0,0,2,0,0,1,-3,4
1570181523084236,0,0,-1,1,-1,-1,0,7
1570181523090994,-2,-1,-3,-1,-1,-5,0,-7
1570181523090994,2,-2,-2,-1,-3,-13,-3,4
1570181523108165,4,1,2,0,2,1,7,19
1570181523108165,3,0,1,0,-1,1,0,4
1570181523109268,-3,-3,-3,-3,-3,-2,5,-6
1570181523109268,2,2,2,1,0,-2,-9,7
1570181523129891,-2,-4,-4,-4,-4,-5,3,1
1570181523129891,-1,1,0,0,-2,-4,-1,0
1570181523132036,0,-1,-2,-1,0,-1,-1,-2
1570181523132036,-2,-2,-2,-3,1,4,6,-5
1570181523143853,-1,1,-1,0,0,1,-3,-3
1570181523143853,1,-1,-2,0,0,0,-3,-1
1570181523152827,-4,-1,-2,-3,-1,-1,2,-6
1570181523152827,-1,1,-1,0,-3,-6,0,-2
1570181523167789,0,0,0,-1,3,4,-4,-3
1570181523167789,-2,0,-1,-2,-2,6,-1,0
1570181523168783,-5,-3,0,0,-1,3,0,-20
1570181523168783,2,1,0,1,0,-6,-15,12
1570181523189738,1,2,0,2,5,19,2,10
1570181523189738,-1,0,-1,-1,-4,-14,0,-2
1570181523191722,-3,1,0,-1,-1,-4,0,-5
1570181523191722,-1,-2,-1,-2,-1,3,4,3
1570181523203934,-2,-1,-3,1,0,-2,1,-15
1570181523203934,7,3,1,1,4,10,-9,13
1570181523212665,1,-1,-1,-1,-2,-4,0,9
1570181523212665,-3,-1,0,-1,-4,-1,8,-10
1570181523234615,1,-1,0,-1,-1,-2,-4,0
1570181523234615,-3,-4,-2,-2,-1,0,5,-2
1570181523237680,-2,-1,0,0,-2,-4,-3,2
1570181523237680,-1,-1,0,0,2,8,2,-3
1570181523250571,-2,-2,-1,-1,-2,-4,-1,-3
1570181523250571,-1,-2,-2,0,1,0,-1,-3
1570181523251885,1,0,0,-2,2,1,0,3
1570181523251885,-4,-1,-3,0,-3,-6,1,-28
1570181523263568,4,2,0,3,1,8,-8,13
1570181523263568,-1,-4,0,-2,-4,-14,-4,-3
1570181523273505,1,-1,0,-1,0,-6,0,-6
1570181523273505,-3,-1,-1,-2,0,3,2,-4
1570181523287466,-1,-2,0,-2,-3,-5,-1,-6
1570181523287466,-1,0,0,0,2,6,3,7
1570181523295707,-1,-1,-2,-1,-2,-1,-1,2
1570181523295707,2,0,0,0,0,-3,-5,5
1570181523310430,-1,1,-2,-2,-2,-2,-2,-6
1570181523310430,-4,-2,-2,-2,0,3,9,-5
1570181523311402,0,0,0,1,-3,-6,-2,3
1570181523311402,3,-2,-1,0,4,9,-3,10
1570181523323837,-1,-1,1,-1,-2,-4,1,1
1570181523323837,-3,-3,-3,-1,1,1,0,-8
1570181523332351,0,-1,-1,-1,-1,-2,0,5
1570181523332351,-1,-2,0,0,-3,2,1,2
1570181523347317,-2,-1,-2,-1,-1,-3,-2,-1
1570181523347317,2,-1,1,0,-2,-5,-2,-1
1570181523349493,-4,-4,-1,-1,-1,7,-4,-9
1570181523349493,0,-1,0,-1,-6,-15,-5,4
1570181523370250,-2,0,-2,-3,-1,-3,2,-4
1570181523370250,0,0,0,-1,-1,-1,-3,7
1570181523371244,0,0,-1,0,1,-1,2,1
1570181523371244,-3,-2,-2,-3,0,7,3,-4
1570181523384207,-3,-2,-2,-2,-4,-12,-7,-12
1570181523384207,-2,1,-2,-1,-1,0,0,-7
1570181523393186,0,-2,-1,-2,0,5,3,2
1570181523393186,1,0,2,0,0,-1,-3,2
1570181523407147,1,-1,0,1,0,-4,-2,-1
1570181523407147,0,-4,-2,-2,-2,6,2,-5
1570181523409140,5,2,1,2,1,-7,-13,10
1570181523409140,3,0,-1,1,2,2,0,4
1570181523430550,-1,-1,-1,-2,-2,0,0,2
1570181523430550,-1,-1,0,-2,-4,-12,-1,-4
1570181523432201,-1,1,2,0,1,2,6,-1
1570181523432201,0,-1,-1,-1,0,0,3,-3
1570181523444052,0,1,1,1,-1,-2,3,19
1570181523444052,0,-1,0,1,0,12,0,3
1570181523453022,-3,-1,-1,-2,-5,-14,-1,-3
1570181523453022,2,1,0,0,3,8,-2,7
1570181523467983,-3,-3,-1,-2,2,9,5,-7
1570181523467983,-1,2,0,0,2,2,-3,0
1570181523470047,-2,-1,-1,-1,-3,0,0,1
1570181523470047,-1,0,0,-2,-1,-2,4,-6
1570181523490121,-1,-2,-2,0,-2,1,1,-1
1570181523490121,0,0,0,0,-2,-3,-1,2
1570181523491920,1,2,0,-1,0,-2,-4,-2
1570181523491920,-1,-1,-3,0,-2,8,1,1
1570181523503890,1,-1,-1,-1,-2,-11,-4,-2
1570181523503890,0,0,-1,-2,0,-1,-2,1
1570181523512862,-2,-2,-1,0,-1,5,5,-2
1570181523512862,0,0,2,-1,-1,-2,-4,2
1570181523527827,-3,-1,-2,-1,0,5,-3,1
1570181523527827,1,1,0,-1,1,-1,-5,-2
1570181523528820,0,-1,-3,-4,-4,-4,3,2
1570181523528820,-1,1,1,-1,-2,5,1,-2
1570181523549890,-5,-3,0,-1,0,-2,3,-16
1570181523549890,0,-1,0,0,-1,0,4,19
1570181523551761,-3,-2,-1,-1,-1,-1,0,-1
1570181523551761,1,0,0,0,-2,-8,-2,4
1570181523572712,-1,0,0,-1,-2,5,0,-3
1570181523572712,-2,-1,0,-1,0,4,2,-5
1570181523574698,-1,-2,-1,2,1,-4,-3,-3
1570181523574698,-3,-1,-3,-2,-3,1,8,-1
1570181523587677,3,2,-1,0,0,-7,-1,5
1570181523587677,0,0,-1,1,1,-3,-1,-7
1570181523589660,1,0,-1,0,3,0,-2,-1
1570181523589660,-2,-3,-3,-1,3,0,-7,-8
1570181523610601,1,-1,-1,0,-4,1,2,5
1570181523610601,-2,-1,0,-2,-1,-2,-5,-8
1570181523611600,-4,-3,-1,-2,-2,5,6,-30
1570181523611600,4,2,1,1,1,1,1,13
1570181523633080,2,3,4,1,-1,1,-11,7
1570181523633080,-2,0,0,0,1,-1,0,-2
1570181523634539,-8,-3,0,-2,-2,2,6,-15
1570181523634539,-2,-2,-1,-2,0,-5,-4,-1
1570181523647565,0,-1,-2,0,-1,1,0,-2
1570181523647565,0,-1,-1,-2,-2,11,0,5
1570181523649708,3,1,-2,-1,2,-14,-7,6
1570181523649708,0,0,2,3,-2,1,4,2
1570181523670510,0,-2,-1,-1,1,4,-2,-4
1570181523670510,-1,-1,-3,-1,-2,0,2,-6
1570181523671439,4,2,2,1,2,4,-18,26
1570181523671439,-2,0,-2,-3,-2,-5,0,-9
1570181523692382,1,-1,-1,-2,0,-5,3,0
1570181523692382,0,0,-1,0,0,1,0,6
1570181523694378,0,-2,-1,-1,-2,8,5,-1
1570181523694378,-4,-4,-3,-2,-2,-6,-2,-6
1570181523707344,1,2,1,1,-1,-4,-5,2
1570181523707344,-3,-2,-1,-3,0,17,2,-4
1570181523713788,1,0,-1,-1,-1,-11,-2,-4
1570181523713788,0,-1,0,-1,0,1,0,-1
1570181523730290,-7,-3,-2,-4,-1,0,14,-16
1570181523730290,2,1,1,2,0,-5,-2,4
1570181523731281,-1,-2,-2,0,1,11,1,2
1570181523731281,1,1,0,-2,-5,-4,-1,3
1570181523752484,-3,0,-3,0,0,1,-1,-3
1570181523752484,-2,-1,-1,1,-1,-10,-3,-3
1570181523754300,2,0,1,-1,1,5,3,5
1570181523754300,1,-1,0,1,0,-7,-3,-3
1570181523767186,0,0,-3,0,-1,0,2,6
1570181523767186,-1,0,-1,-3,-1,-1,1,7
1570181523774165,2,2,-1,-1,-2,-3,0,3
1570181523774165,-1,1,0,-1,1,3,-2,0
1570181523790124,0,-2,-1,-1,-1,-5,-3,-2
1570181523790124,-2,-2,-1,1,-1,1,0,0
1570181523792117,-2,-1,0,-1,-1,-1,0,-3
1570181523792117,-1,-2,-2,-1,2,22,3,3
1570181523813061,0,-1,1,0,1,-8,-2,6
1570181523813061,-2,1,0,-1,-2,-5,-1,-6
1570181523814162,-1,-1,-1,0,0,0,0,2
1570181523814162,-1,0,-1,1,0,1,0,-1
1570181523827024,1,0,0,-1,0,3,-3,4
1570181523827024,0,-1,-1,-2,-1,-2,0,-2
1570181523834004,-3,0,0,-1,-3,2,2,3
1570181523834004,-2,-2,-1,-1,0,-5,-2,-10
1570181523849969,0,-1,-1,0,-1,2,0,-2
1570181523849969,-2,-1,0,-1,-1,-6,-2,0
1570181523851956,-2,0,-1,-1,-2,0,0,1
1570181523851956,-3,-1,0,-1,-1,-5,0,-1
1570181523872899,2,-1,0,-1,-2,-1,-2,0
1570181523872899,0,0,-1,-2,1,2,-1,-2
1570181523873899,0,0,-1,2,-1,-2,-1,-3
1570181523873899,0,0,0,0,-1,-2,-1,4
1570181523886866,-1,0,-2,0,0,3,-1,-4
1570181523886866,1,-2,-1,-2,-1,-1,-1,0
1570181523893972,-2,-1,-2,-1,-1,0,-1,-3
1570181523893972,-2,-1,-1,-1,-2,-4,-2,-1
1570181523910799,0,0,0,0,1,0,0,0
1570181523910799,-2,-2,-1,-1,0,-3,-1,-4
1570181523911798,2,-1,0,-2,0,0,-1,0
1570181523911798,-1,0,-1,-2,4,10,0,2
1570181523932746,-1,-1,-3,-5,-11,-30,-8,0
1570181523932746,-2,0,-4,-1,3,14,2,0
1570181523933737,0,1,0,0,0,-2,3,8
1570181523933737,1,0,-1,-1,-1,0,1,-1
1570181523946714,-1,-1,-1,-1,1,8,1,11
1570181523946714,2,-1,-1,-2,-3,-7,-1,0
1570181523953689,-5,-1,-2,-1,-3,-5,-3,-11
1570181523953689,4,-2,-2,0,-2,-3,0,7
1570181523969641,-2,-1,1,1,1,2,1,-2
1570181523969641,-2,-1,0,1,0,-6,-3,-7
1570181523971638,2,0,0,-2,0,4,1,3
1570181523971638,-3,1,0,-1,-3,-5,-2,-7
1570181523992962,-5,-5,-3,-1,0,7,13,-16
1570181523992962,0,0,-2,0,-1,-2,-1,2
1570181523994611,-1,-1,-2,0,-1,0,0,-3
1570181523994611,-2,0,-1,1,-2,-4,-3,3
1570181524006591,1,2,1,0,0,3,1,0
1570181524006591,0,-2,0,1,-1,0,-1,-1
1570181524013560,1,-2,-1,-1,-2,-1,-2,0
1570181524013560,-3,0,-1,-3,0,-3,1,-3
1570181524037472,-1,0,1,0,3,3,-8,-17
1570181524037472,2,1,1,0,-1,-1,2,5
1570181524039458,0,-2,-3,-3,-2,-1,-3,0
1570181524039458,-1,-1,-2,-1,-2,-2,-1,-5
1570181524052422,1,0,-3,0,-1,3,-1,4
1570181524052422,-1,1,-2,-1,-3,-2,-4,-1
1570181524054417,-4,-3,1,-2,-2,-1,-2,-5
1570181524054417,5,-2,0,0,-2,-1,1,9
1570181524066436,-1,1,-2,-1,0,1,0,10
1570181524066436,-2,-2,-2,-1,-2,-2,0,-10
1570181524075363,1,1,-2,0,1,2,2,2
1570181524075363,-3,-1,-1,-2,-1,-1,4,-13
1570181524090318,3,0,1,0,0,0,-12,14
1570181524090318,0,-1,0,-1,0,0,0,2
1570181524091384,-1,-2,-2,0,-2,0,2,-3
1570181524091384,-2,-2,-1,1,1,-2,1,-2
1570181524112298,-1,-2,0,0,-2,-1,3,-7
1570181524112298,-1,0,0,-1,-2,0,-2,0
1570181524114254,1,-2,1,1,0,-1,-4,4
1570181524114254,-3,-1,-2,0,-1,-2,-4,-6
1570181524126225,-1,1,0,-1,-3,-3,-2,-9
1570181524126225,2,0,-1,-2,-1,-1,-1,4
1570181524135535,-2,1,-2,0,0,0,1,-3
1570181524135535,4,1,0,0,-1,-1,-2,5
1570181524150159,-2,-2,-1,0,-1,-1,-1,-5
1570181524150159,-2,0,0,-1,-2,-1,1,1
1570181524152155,2,1,-1,0,-1,-1,0,0
1570181524152155,-1,0,1,0,0,-1,-2,4
1570181524180122,0,-3,0,0,1,1,0,4
1570181524180122,0,-2,1,-2,0,0,1,0
1570181524182074,0,-1,1,-2,0,-2,2,4
1570181524182074,-2,-1,0,0,-1,0,-3,-1
1570181524186102,-1,-2,0,-2,-1,8,2,0
1570181524186102,-3,-2,-3,-3,-4,-15,-7,-12
1570181524195060,-1,0,1,1,0,-4,-3,2
1570181524195060,0,1,0,1,-3,-4,-2,2
1570181524210001,-1,1,-3,-1,1,4,0,-5
1570181524210001,2,-2,-2,0,1,5,2,7
1570181524211994,-2,0,-1,-1,-1,0,0,-3
1570181524211994,-1,0,0,0,-1,-3,0,-2
1570181524232989,-1,1,-1,0,0,-3,0,2
1570181524232989,0,1,-1,0,0,2,0,0
1570181524233936,-1,-1,-1,1,-1,0,0,-2
1570181524233936,-6,-4,-3,-3,1,5,10,-19
1570181524245948,4,1,2,-2,-1,-6,-2,20
1570181524245948,-1,0,-1,0,3,5,2,6
1570181524254878,0,-1,1,-1,0,-1,-1,-6
1570181524254878,-2,1,-1,-1,-3,-1,0,-2
1570181524269840,-2,-1,-1,1,-1,-3,1,-7
1570181524269840,-1,-1,0,-1,-2,-1,0,0
1570181524271833,1,0,0,-2,0,1,3,7
1570181524271833,0,-1,1,-1,0,0,-4,3
1570181524292897,-1,-1,1,-1,0,-2,-2,-3
1570181524292897,1,-1,0,0,-2,1,-2,3
1570181524293888,-4,0,-1,-1,-4,-13,-6,-9
1570181524293888,-3,-3,-2,-1,1,0,5,-5
1570181524305855,1,0,0,1,0,-2,-1,6
1570181524305855,-5,-3,-2,-2,-2,-1,7,-34
1570181524314894,5,0,-1,-1,1,4,-4,8
1570181524314894,5,1,1,-1,0,1,-8,12
1570181524329848,-4,-2,-4,-2,-2,-2,-1,-8
1570181524329848,-1,0,0,3,0,-1,2,-1
1570181524331847,-3,0,-1,-2,-1,2,3,-5
1570181524331847,1,-2,1,-1,0,-4,-2,7
1570181524351973,-3,1,-1,-1,1,7,1,-9
1570181524351973,3,0,0,0,0,-2,-6,10
1570181524352793,-2,-1,0,0,0,2,0,-1
1570181524352793,0,0,-1,-1,0,-1,-2,3
1570181524374817,1,1,-1,-2,-1,0,1,-1
1570181524374817,-2,-1,0,1,0,8,-1,-5
1570181524375187,-2,0,1,0,-2,-8,10,14
1570181524375187,0,0,0,0,1,-2,0,0
1570181524389872,1,0,0,-1,-1,-2,0,-1
1570181524389872,1,1,0,-1,2,-2,-5,9
1570181524389872,-1,-1,-1,-2,1,0,-3,-8
1570181524389872,-1,0,-1,-2,-3,2,-1,-4
1570181524412171,2,2,1,0,-1,-5,1,5
1570181524412171,-1,-3,-1,-2,1,4,3,0
1570181524413121,-1,0,-1,0,0,2,-7,-10
1570181524413121,-2,-1,0,0,-1,2,7,-2
1570181524434326,0,0,1,2,-5,-4,-9,4
1570181524434326,-1,1,0,0,-4,-7,0,-1
1570181524435520,1,1,0,0,0,-4,-3,-2
1570181524435520,0,-2,0,0,-2,-2,-4,0
1570181524451199,-4,-4,-1,-2,1,17,12,-11
1570181524451199,0,-1,-3,-1,-2,-16,-13,8
1570181524452073,-2,-2,-1,-1,-1,0,-2,-3
1570181524452073,1,1,0,2,1,4,2,3
1570181524472175,-3,-3,-2,-4,1,2,5,-6
1570181524472175,0,-1,-1,-2,-2,3,0,3
1570181524473056,-2,1,-2,-1,1,2,-1,-4
1570181524473056,-1,-2,-2,-1,-1,-3,-6,-2
1570181524494343,1,0,-3,0,0,-5,-3,2
1570181524494343,-1,1,1,-3,-1,1,-1,-6
1570181524495346,1,0,1,-1,1,0,-1,6
1570181524495346,-2,0,-1,1,-1,3,3,0
1570181524509320,2,0,1,1,0,-4,-5,6
1570181524509320,0,-2,-1,2,0,2,3,-1
1570181524510300,0,-1,-1,-1,-1,-3,-1,-3
1570181524510300,-1,1,0,-3,0,3,0,2
1570181524531803,3,1,0,1,-2,-1,-11,4
1570181524531803,-2,-2,-2,-1,-1,2,13,2
1570181524532693,1,-1,-1,0,-1,-5,-6,12
1570181524532693,2,0,0,3,2,8,-4,-7
1570181524555046,0,0,0,0,-2,-1,2,2
1570181524555046,-2,-1,0,0,2,1,2,-5
1570181524555046,-1,1,-1,0,-2,1,0,1
1570181524555046,-2,-2,-2,-3,-2,-4,1,4
1570181524569062,-2,-2,0,-1,-1,-2,0,-2
1570181524569062,0,0,0,0,0,-1,-5,-3
1570181524569955,-1,0,0,0,6,8,4,-3
1570181524569955,-3,-3,-2,-1,-2,8,0,3
1570181524591897,-2,-1,-1,-2,-3,-19,-5,-2
1570181524591897,0,0,-2,1,2,6,1,3
1570181524593123,3,-1,2,0,-1,4,-1,-2
1570181524593123,-1,2,1,1,3,3,0,-11
1570181524622814,1,-2,-1,-1,-1,2,-1,7
1570181524622814,16,-1,-2,-1,8,7,3,24
1570181524623811,4,-1,-1,1,8,-3,3,9
1570181524623811,6,-3,-4,-7,-25,-10,-2,12
1570181524629795,0,2,3,2,-21,-18,0,0
1570181524629795,-23,-1,0,0,-5,-12,-12,-42
1570181524629921,9,-5,6,5,4,4,2,15
1570181524629921,6,1,-12,-9,-2,-7,-1,7
1570181524652477,-3,0,0,7,13,9,-1,-13
1570181524652477,15,5,11,5,2,1,4,20
1570181524652770,-16,-3,-10,-4,-9,-2,2,-5
1570181524652770,-15,3,4,-7,4,-2,-5,-22
1570181524674675,-14,-15,-5,-1,-5,0,-6,-13
1570181524674675,8,40,-9,-6,5,1,2,4
1570181524674675,2,-18,17,7,6,4,1,-3
1570181524674675,6,-31,-10,7,5,2,6,8
1570181524688684,-2,30,23,4,-1,3,-2,-8
1570181524688684,-35,-46,-28,-1,-9,-7,-6,-13
1570181524696624,-7,24,14,-14,-17,-5,-9,-34
1570181524696624,-2,-8,2,4,9,1,0,12
1570181524712572,17,-1,-18,-8,12,6,4,4
1570181524712572,-9,0,-5,-6,-5,-3,-7,-18
1570181524713790,-6,-4,-16,-7,4,2,0,14
1570181524713790,1,-6,10,-4,-11,-6,-1,11
1570181524734577,-17,-18,-28,-11,-7,-5,-3,-1
1570181524734577,22,30,27,14,4,0,3,11
1570181524735514,0,-20,3,16,9,6,1,-13
1570181524735514,16,44,30,10,32,13,1,-1
1570181524748669,-7,-23,-22,-5,-11,-3,2,1
1570181524748669,-4,-6,12,-10,-37,-15,5,2
1570181524756457,8,5,0,-10,-7,-5,-7,-2
1570181524756457,5,35,-7,3,16,12,-11,-3
1570181524771418,-1,-17,-5,5,40,15,1,-14
1570181524771418,-9,-41,-22,-13,-42,-21,-9,-29
1570181524772414,15,23,11,1,-14,-7,14,-7
1570181524772414,-3,19,0,0,-9,-11,0,-20
1570181524794763,-12,8,19,3,8,11,5,-3
1570181524794763,-1,-10,-3,0,11,3,-4,10
1570181524795352,-9,-21,-27,-9,2,2,-1,4
1570181524795352,2,15,0,7,48,23,2,4
1570181524810225,18,5,9,2,-26,-5,3,21
1570181524810225,-5,1,29,3,-18,-13,-5,8
1570181524817244,10,35,-2,-2,9,2,1,9
1570181524817244,-21,-44,-4,-8,-69,-35,-9,-10
1570181524832198,10,9,5,4,22,14,4,1
1570181524832198,-3,-1,-9,-1,27,10,0,-22
1570181524832198,0,2,-7,1,10,10,2,-44
1570181524832198,-13,-39,-6,11,81,29,1,-49
1570181524862276,-11,8,-7,-21,-122,-67,-14,-75
1570181524862276,20,21,8,-2,7,-3,3,-32
1570181524863114,7,10,6,1,2,-18,0,-3
1570181524863114,3,6,1,2,-1,-8,2,22
1570181524869098,1,-8,13,13,56,42,25,90
1570181524869098,-33,-16,-24,-5,-2,0,-29,-29
1570181524877087,-6,-17,-7,-10,-40,-20,-11,36
1570181524877087,31,41,-4,-9,-16,-1,1,40
1570181524892038,-2,-36,8,7,30,10,0,29
1570181524892038,-13,9,3,20,98,53,16,38
1570181524893037,-15,-17,7,-4,-78,-30,-5,29
1570181524893037,-10,-19,-16,-10,-52,-28,-7,1
1570181524914492,8,21,5,-2,11,-4,-3,2
1570181524914492,27,10,-5,2,15,11,6,31
1570181524915261,-24,-33,-6,1,35,16,4,-1
1570181524915261,4,23,6,4,-5,-2,4,15
1570181524928164,7,5,9,8,7,5,-1,-5
1570181524928164,20,7,5,-1,-19,2,11,26
1570181524937333,8,5,-5,-1,1,2,5,21
1570181524937333,-17,-21,-10,-12,-23,-9,-1,-2
1570181524952098,2,6,-6,3,25,9,-3,-1
1570181524952098,-5,-5,2,2,18,4,1,6
1570181524953095,16,14,0,-6,-38,-18,-10,0
1570181524953095,-15,-20,9,2,-1,3,1,-9
1570181524974039,0,6,-6,-8,-5,-4,1,6
1570181524974039,-9,-9,-1,-1,-9,-6,3,12
1570181524975038,11,6,2,4,26,16,6,14
1570181524975038,6,5,12,12,20,-3,-9,6
1570181524989001,-11,0,-8,-7,-11,3,3,20
1570181524989001,0,0,-5,-9,-34,-13,-2,14
1570181524997010,-18,-9,-3,7,40,17,-6,-24
1570181524997010,-4,-27,1,1,-3,-1,-2,-27
1570181525012099,24,36,-11,-12,-35,-17,-6,-22
1570181525012099,-14,-28,9,-3,-10,-8,0,-20
1570181525012941,-7,4,10,14,43,16,-4,-34
1570181525012941,12,7,0,2,-32,-17,-6,-21
1570181525034879,-12,-9,-2,-4,-7,-7,-3,-17
1570181525034879,10,18,-7,-7,-9,-2,1,-4
1570181525035611,-1,-20,-2,1,-3,1,1,0
1570181525035611,5,2,-5,0,37,16,4,11
1570181525048848,-2,0,5,0,0,-2,-7,-16
1570181525048848,14,5,-4,1,-14,-6,-7,-13
1570181525057362,-8,-1,4,0,4,4,1,-2
1570181525057362,-13,-3,-7,-7,-16,-3,2,-9
1570181525071905,6,-4,-3,-2,-5,-6,-2,0
1570181525071905,0,6,4,4,7,1,2,3
1570181525072776,-5,-4,-5,-2,5,0,-4,-8
1570181525072776,-5,-2,2,-1,8,0,0,1
1570181525094717,1,1,-4,-6,-11,0,1,5
1570181525094717,-1,-11,1,6,20,3,3,5
1570181525094717,0,13,4,-2,-23,-8,2,16
1570181525094717,-8,-11,-5,0,5,4,-3,-18
1570181525108681,0,-1,-4,1,14,3,1,1
1570181525108681,-1,-12,-8,-11,-29,-6,0,1
1570181525116658,5,0,-6,-5,2,-3,1,9
1570181525116658,6,9,8,4,4,3,3,12
1570181525139602,-6,4,5,9,16,5,-5,-13
1570181525139602,13,5,-6,-7,-11,-2,5,13
1570181525140596,-4,3,-4,-1,15,3,-3,-13
1570181525140596,4,1,-4,-5,-32,-9,-2,4
1570181525154561,-8,-5,7,7,13,4,0,-7
1570181525154561,-9,-6,-11,-4,16,-1,-4,-6
1570181525155556,-4,7,12,5,-18,-5,-5,-15
1570181525155556,-5,2,1,1,13,5,-1,1
1570181525177499,-4,-13,-11,-6,-4,0,3,7
1570181525177499,-8,-1,-5,-3,-14,-8,-5,-9
1570181525178589,2,3,1,1,5,1,0,-1
1570181525178589,17,3,1,-1,-2,-3,5,15
1570181525191510,-12,-12,-11,-14,-16,-8,-11,-16
1570181525191510,5,4,9,9,5,0,-2,5
1570181525192459,3,-1,-2,4,9,3,-2,-18
1570181525192459,1,-2,-3,-9,23,13,5,9
1570181525214399,3,-5,1,-2,-19,-5,2,16
1570181525214399,-16,-1,1,-1,-16,-6,-9,-41
1570181525215681,14,-3,-12,-11,-2,8,9,15
1570181525215681,10,5,5,8,1,-4,-9,23
1570181525229358,-5,6,10,7,14,7,2,7
1570181525229358,-10,-12,-21,-21,-14,2,-2,-21
1570181525237405,-18,19,28,19,-15,-12,-15,-27
1570181525237405,-3,-11,8,4,-10,-2,3,-16
1570181525252298,10,7,18,19,23,3,-1,-2
1570181525252298,16,14,5,5,6,7,11,28
1570181525252298,-9,-2,-8,-3,-3,-8,-5,-14
1570181525252298,-19,-3,-5,-4,-2,-6,-8,-3
1570181525291193,4,6,-3,-5,-12,-8,-1,1
1570181525291193,-7,-16,2,3,6,-1,0,3
1570181525291193,-10,2,-13,-13,8,4,0,-2
1570181525291193,7,-16,-15,-9,-20,-9,2,3
1570181525293187,22,32,-7,-4,0,3,3,10
1570181525293187,33,-6,31,32,25,3,4,19
1570181525297183,12,-5,-14,-22,-34,-7,3,15
1570181525297183,-2,15,28,31,12,6,3,-4
1570181525312136,-1,-14,-19,-30,-5,5,2,-7
1570181525312136,25,30,29,38,21,6,15,-8
1570181525313203,-31,-19,-9,-5,4,1,-3,-13
1570181525313203,26,8,-8,-9,-1,1,3,3
1570181525334077,-2,1,-4,-2,3,2,-2,-13
1570181525334077,9,10,-1,-12,-5,-4,-1,-2
1570181525335185,41,1,16,17,17,8,12,27
1570181525335185,-17,1,-11,-9,-17,-3,6,0
1570181525349039,-15,-12,2,7,2,-4,-10,-7
1570181525349039,-6,1,-14,-17,-9,-5,-7,2
1570181525357123,-12,0,-1,8,17,6,0,-5
1570181525357123,-10,4,-2,0,3,1,1,4
1570181525371982,17,-28,1,-3,-26,-6,5,8
1570181525371982,-57,-11,-15,-12,-10,-6,-25,-7
1570181525373014,31,17,8,0,-4,-1,5,16
1570181525373014,-4,-1,4,2,15,3,-10,-36
1570181525393923,-13,5,-5,3,-4,-4,-2,-8
1570181525393923,-21,-10,13,12,15,8,14,21
1570181525394923,-8,0,-4,-6,-9,-12,-27,-42
1570181525394923,56,19,0,-6,2,8,27,75
1570181525408877,-61,-26,-9,-2,-16,-13,-31,-89
1570181525408877,14,11,1,-3,3,2,1,12
1570181525416958,-15,-19,-8,-2,-11,0,2,-6
1570181525416958,27,7,1,0,-3,-7,-3,1
1570181525431818,10,1,-2,-4,0,4,13,39
1570181525431818,23,11,2,-5,-4,-2,0,11
1570181525432907,12,5,-1,-2,8,8,19,38
1570181525432907,-29,-18,-12,-3,-11,-15,-36,-80
1570181525454997,21,11,8,4,12,5,6,28
1570181525454997,-15,-8,3,6,9,2,-5,-14
1570181525454997,23,11,-4,2,14,6,11,29
1570181525454997,7,12,-6,-12,-29,2,23,65
1570181525477695,-21,-36,-1,1,2,-9,-23,-53
1570181525477695,12,2,-3,-12,-22,-8,-5,-10
1570181525478971,5,8,-3,-3,3,-1,13,40
1570181525478971,-29,-11,3,9,18,5,-14,-47
1570181525491657,5,17,7,9,10,6,7,15
1570181525491657,9,-11,-9,-8,-17,-8,3,14
1570181525492656,0,-13,-10,-6,-4,-3,-2,-3
1570181525492656,-27,-5,-6,-6,-3,-1,-3,-6
1570181525514601,20,22,14,11,17,7,9,26
1570181525514601,18,-8,-12,-10,-6,1,-1,-7
1570181525515592,-19,9,1,-6,-13,-4,-3,-1
1570181525515592,-7,-17,-3,-1,1,-1,-5,-18
1570181525537532,1,-2,-7,-2,-1,0,22,59
1570181525537532,-3,2,1,0,0,-5,-17,-46
1570181525538535,46,9,10,9,13,6,7,24
1570181525538535,-56,-14,-5,-4,-9,-9,-10,-27
1570181525551716,-6,-5,-6,-2,1,-2,-7,-19
1570181525551716,-14,8,4,0,3,2,6,10
1570181525552494,0,-8,-3,-2,-6,-4,1,2
1570181525552494,12,7,8,5,2,3,2,9
1570181525574434,4,1,2,1,0,1,-3,-5
1570181525574434,3,-4,-8,-1,-4,-3,0,8
1570181525575432,-14,-1,9,5,2,-1,-16,-43
1570181525575432,-1,-1,-3,2,13,3,14,28
1570181525597379,-1,1,0,-2,-4,0,2,-7
1570181525597379,2,-3,-6,-6,-13,-2,-1,-2
1570181525598375,-22,-15,-9,-2,2,-4,0,-6
1570181525598375,20,8,4,1,6,4,-2,6
1570181525612335,-5,0,3,4,3,2,-4,-9
1570181525612335,-10,-1,-5,-4,-13,-6,3,2
1570181525612649,-10,2,6,11,12,3,-8,-15
1570181525612649,17,2,0,-5,-10,3,3,7
1570181525634423,-6,-1,-2,-4,-5,-6,-5,-16
1570181525634423,17,6,1,0,8,5,13,21
1570181525635492,-31,-14,-10,-6,10,-3,-5,-13
1570181525635492,7,2,3,2,1,-2,-5,-1
1570181525657631,0,2,-1,0,-8,-2,-4,4
1570181525657631,-5,-2,2,3,8,1,1,6
1570181525658220,12,2,-2,-1,-9,-1,2,2
1570181525658220,-7,-6,-9,-5,12,3,-5,-14
1570181525672177,7,10,14,7,-11,-2,3,9
1570181525672177,-10,-7,-10,-6,6,3,-1,-7
1570181525673172,8,11,22,13,6,-1,-5,-1
1570181525673172,-15,-8,-8,-10,-21,-5,-3,-9
1570181525695118,5,-2,-11,-2,11,5,6,7
1570181525695118,20,13,11,9,5,3,-4,11
1570181525696109,-42,-24,-12,-13,-21,-4,-1,-26
1570181525696109,5,1,-6,-1,5,-3,0,13
1570181525718308,-6,-6,-7,-9,-9,-3,-4,-6
1570181525718308,5,-1,-1,3,1,-2,-5,-2
1570181525718308,4,-5,-14,-5,-4,3,10,8
1570181525718308,2,6,12,5,6,0,2,4
1570181525732020,-3,-5,-5,3,-1,-5,-5,-16
1570181525732020,-12,-7,-9,-12,1,5,0,-6
1570181525733014,29,7,3,3,13,9,5,41
1570181525733014,-8,6,9,3,-14,-4,-2,-17
1570181525753957,11,13,17,11,10,4,3,13
1570181525753957,1,1,0,-2,-4,-1,7,-19
1570181525754955,-15,-11,-18,-12,-14,-11,-21,1
1570181525754955,-9,-6,-7,2,-2,-6,-10,-8
1570181525777890,-22,-11,4,-4,-4,-2,5,-5
1570181525777890,6,27,-10,-9,10,3,-2,-15
1570181525778890,1,-30,17,12,-2,8,8,2
1570181525778890,18,13,5,7,7,5,4,15
1570181525791890,-5,1,0,-2,-4,-2,-1,-6
1570181525791890,-13,-14,-20,-15,3,2,0,8
1570181525792851,-1,23,15,18,4,-3,-1,-22
1570181525792851,37,5,-10,-8,0,2,8,17
1570181525814801,-22,-8,13,14,10,5,-5,-16
1570181525814801,-10,-7,4,4,5,3,2,13
1570181525815407,-5,1,-9,-14,-6,2,-1,-9
1570181525815407,18,4,3,21,5,-2,-1,4
1570181525844961,11,8,12,0,5,2,3,6
1570181525844961,1,6,-8,-16,-7,-2,-2,-2
1570181525845710,-9,-16,16,17,8,1,-3,-13
1570181525845710,14,-16,-15,-8,3,3,5,1
1570181525851935,-13,-1,-7,-8,-3,0,-6,-9
1570181525851935,0,-4,7,5,-25,-13,-2,-2
1570181525852741,-12,7,-14,-14,-7,-5,-3,-7
1570181525852741,-11,0,-8,-9,-1,-2,-3,0
1570181525874636,20,7,4,4,18,4,3,15
1570181525874636,-13,-2,9,5,-8,-6,-1,9
1570181525874636,15,0,-11,-6,-2,-1,7,7
1570181525874636,-4,-1,8,1,1,-2,-16,-22
1570181525897574,-14,-2,-4,-2,-6,-1,11,22
1570181525897574,6,-9,-6,4,8,-5,-17,-29
1570181525898770,13,13,-5,-9,-12,-3,9,38
1570181525898770,-31,-16,-5,-9,-13,-2,1,-9
1570181525911532,28,0,-10,-3,-5,-5,-18,-37
1570181525911532,25,14,11,10,8,1,10,25
1570181525912661,-15,-2,3,1,6,1,-10,-18
1570181525912661,-6,1,-1,-2,5,3,8,12
1570181525934478,2,10,-4,-6,-10,6,25,63
1570181525934478,4,-13,5,6,-5,-8,-25,-70
1570181525935470,4,1,-8,-11,-6,-6,-9,-8
1570181525935470,-7,-2,-2,0,2,3,6,13
1570181525957607,9,-2,-6,-4,-1,-3,-9,-18
1570181525957607,-15,1,2,1,8,7,18,49
1570181525958790,-18,-8,-7,-3,-7,-5,-5,-7
1570181525958790,-9,1,5,-5,-12,-5,1,-3
1570181525972371,15,3,-1,0,-1,0,-7,-22
1570181525972371,-3,-6,-4,-1,1,0,3,11
1570181525972609,11,3,3,3,6,3,3,3
1570181525972609,-7,-3,-2,0,7,5,11,31
1570181525994506,-1,-6,-6,-7,-12,-11,-20,-42
1570181525994506,-5,-5,-1,-1,-2,2,4,10
1570181525995310,25,6,3,2,9,1,5,6
1570181525995310,-12,-2,-3,0,-5,-2,-2,0
1570181526017256,-8,-3,0,-3,3,-1,4,9
1570181526017256,-13,-4,-1,1,-1,-1,-3,-14
1570181526018248,27,7,2,0,-2,0,3,8
1570181526018248,-6,2,2,0,3,-1,5,14
1570181526032210,-8,-9,-9,2,16,6,7,8
1570181526032210,-3,-2,4,-4,-28,-10,-16,-32
1570181526032210,-1,0,1,4,1,-1,-3,-2
1570181526032210,11,2,3,1,-1,-1,-2,-8
1570181526054197,-4,-2,-6,-5,-4,-1,7,27
1570181526054197,-3,-3,-4,-1,9,5,1,-3
1570181526055152,-8,-1,-1,0,-2,2,4,7
1570181526055152,-6,-1,1,-1,8,-1,-6,-9
1570181526078091,4,-1,2,-1,-12,-5,-3,-4
1570181526078091,1,1,-4,1,1,2,3,4
1570181526078327,-11,-1,-1,-7,-14,-3,-3,-2
1570181526078327,-3,-4,0,2,12,-2,-7,-17
1570181526091199,0,-3,-3,-4,-2,-1,-3,-4
1570181526091199,1,4,6,9,11,5,2,6
1570181526099073,-1,4,1,-2,-9,1,1,-6
1570181526099073,-5,-2,4,0,-7,-1,-7,-18
1570181526113996,-4,-2,-1,2,1,0,1,5
1570181526113996,-9,-6,-6,-4,2,1,6,14
1570181526115404,-1,-2,-2,3,7,-2,-6,-10
1570181526115404,4,5,1,-1,4,0,-2,-6
1570181526137929,11,-1,0,1,-6,0,-2,-1
1570181526137929,1,-2,-1,0,9,-1,2,7
1570181526137929,-6,-5,-6,-5,-7,1,0,-3
1570181526137929,9,1,-2,-4,-12,0,3,8
1570181526151012,-1,1,1,0,6,4,2,-2
1570181526151012,-1,3,4,1,2,-1,-3,-2
1570181526159870,1,0,1,2,10,0,-2,-2
1570181526159870,-1,-4,-8,-7,-18,-4,0,5
1570181526174829,-3,1,4,1,3,2,-3,-11
1570181526174829,-5,-1,-1,0,-9,-3,3,-8
1570181526175852,7,0,2,1,-2,-5,-21,10
1570181526175852,-8,-6,-11,-4,7,4,0,-21
1570181526197809,-5,11,20,12,0,-3,0,5
1570181526197809,2,-4,-7,-7,-4,1,-2,9
1570181526198766,1,-2,0,0,-2,1,6,-2
1570181526198766,2,0,-5,4,7,2,-6,-12
1570181526211735,8,4,7,2,3,-2,2,7
1570181526211735,-8,-10,-16,-11,-13,-4,-3,-24
1570181526219811,-5,-2,-1,-4,-1,0,3,0
1570181526219811,6,-3,-1,-2,-3,-3,0,18
1570181526234671,-2,-3,-9,3,19,1,0,-7
1570181526234671,-1,15,8,5,-11,-2,-1,4
1570181526234671,-10,-18,-29,-17,-8,-7,-7,-25
1570181526234671,-2,11,42,13,-4,-1,-1,11
1570181526257610,0,-1,-5,-4,3,0,2,-4
1570181526257610,-15,-15,-16,-10,7,4,2,4
1570181526258721,17,13,5,2,3,5,-1,26
1570181526258721,-11,2,11,11,3,-5,-6,-34
1570181526271612,3,-1,3,2,-4,-2,-1,12
1570181526271612,2,-1,-3,-3,-4,0,-2,-15
1570181526279548,8,0,-3,-1,-1,-1,4,16
1570181526279548,3,3,-19,-13,-2,0,2,-12
1570181526294509,0,-3,-8,-5,-9,-4,-8,-4
1570181526294509,-21,-30,10,7,5,-4,-6,-34
1570181526295511,0,3,3,5,4,1,5,11
1570181526295511,0,1,2,6,9,2,-2,6
1570181526317449,4,5,-12,-13,-18,-1,1,2
1570181526317449,3,4,7,7,5,1,-1,5
1570181526318446,-11,-8,3,1,-5,-9,-8,-25
1570181526318446,9,0,-15,-20,-5,2,-12,26
1570181526331514,-15,-12,6,3,-1,0,2,-5
1570181526331514,-16,-5,-13,-17,-4,-6,-6,-11
1570181526339389,16,14,24,13,7,4,2,14
1570181526339389,-19,-25,-18,-2,-4,-3,-1,-20
1570181526354353,9,2,-19,-22,-8,-3,-2,-2
1570181526354353,26,23,31,26,9,3,-2,3
1570181526355351,-18,-18,-17,-6,-2,3,5,-10
1570181526355351,5,7,4,3,0,1,6,8
1570181526377405,-10,-17,-24,-26,-8,0,0,-6
1570181526377405,36,30,26,30,15,8,13,12
1570181526378286,-13,9,10,3,2,-4,-10,-23
1570181526378286,8,-6,-4,-6,-13,-5,1,-3
1570181526400377,-12,-2,6,7,4,2,-4,6
1570181526400377,12,5,-10,-8,10,3,2,14
1570181526401228,-1,-2,5,5,-7,-4,2,-1
1570181526401228,-2,0,-1,-7,-8,-2,-4,-4
1570181526414241,12,8,-2,2,-1,-3,1,5
1570181526414241,-20,-6,0,-6,-6,-3,7,7
1570181526415187,0,-2,-6,-4,5,4,18,-1
1570181526415187,-1,-4,-3,0,6,-2,-46,-11
1570181526437672,18,0,4,3,-2,1,12,23
1570181526437672,-27,-8,-3,-3,-4,-3,-16,-18
1570181526438127,-5,-3,-6,-4,-1,0,5,3
1570181526438127,1,6,7,8,3,5,27,40
1570181526460069,7,11,7,12,6,-2,-11,-28
1570181526460069,-1,-8,-13,-9,-3,-2,-3,-3
1570181526461141,0,6,0,-3,3,3,10,15
1570181526461141,19,9,3,2,3,4,18,35
1570181526474032,-17,-16,-6,-3,-4,0,-18,-50
1570181526474032,-17,0,-6,-9,-7,-2,15,21
1570181526475031,-6,-2,-2,4,3,-3,-12,-26
1570181526475031,9,4,1,1,1,-1,2,-12
1570181526497971,-11,-10,-4,-1,-1,-4,7,16
1570181526497971,-1,-6,-6,2,1,1,0,6
1570181526497971,15,4,2,1,0,-2,-17,-22
1570181526497971,-30,-11,-9,-5,-1,1,4,-4
1570181526520038,6,21,24,14,4,1,2,12
1570181526520038,-6,-17,-8,-2,2,0,-5,-7
1570181526520905,9,2,-1,-4,-4,0,3,11
1570181526520905,2,-2,-6,1,-7,-4,-6,-22
1570181526534867,10,12,11,0,0,2,9,23
1570181526534867,5,4,0,-1,6,5,0,11
1570181526534867,-4,1,6,-3,-12,-4,-2,-3
1570181526534867,3,5,-3,1,4,0,4,-3
1570181526564785,-1,-4,-3,3,10,4,1,5
1570181526564785,6,2,2,-4,-15,-5,-2,5
1570181526565784,-5,-7,-6,-4,3,0,-3,-11
1570181526565784,-5,-1,-1,0,-3,-2,2,2
1570181526579749,14,2,2,3,6,4,9,19
1570181526579749,-14,-2,3,4,0,-7,-10,-32
1570181526580836,-10,-3,-4,-1,0,1,4,14
1570181526580836,5,3,6,1,-2,2,-1,-6
1570181526594706,-2,-8,-6,-2,-1,-3,-1,-4
1570181526594706,7,6,-2,-2,-2,1,2,7
1570181526595103,6,5,7,1,-4,1,1,11
1570181526595103,-5,-11,-9,-4,0,-3,9,24
1570181526617644,-7,-2,2,3,0,-4,-16,-46
1570181526617644,7,-1,-6,-3,2,1,4,20
1570181526618643,-4,-7,-8,-7,-2,-1,-3,-11
1570181526618643,-3,-4,0,2,-2,-1,1,-4
1570181526640447,3,9,-5,-4,-5,-1,10,0
1570181526640447,-1,7,11,3,-1,-2,-22,-3
1570181526640588,-28,-20,-7,-2,3,-2,-7,-19
1570181526640588,-3,-2,-3,-3,-1,-1,-2,-8
1570181526654556,-4,-5,2,2,-8,-3,0,1
1570181526654556,8,5,1,0,1,-1,3,-5
1570181526655593,5,4,2,2,0,0,3,3
1570181526655593,8,4,4,2,-1,-1,-15,6
1570181526678484,-7,-7,-5,-1,-1,-3,-5,-6
1570181526678484,4,-2,-6,-3,-2,1,6,4
1570181526678484,-1,1,1,1,1,-1,-3,8
1570181526678484,2,-2,-1,-1,-3,-3,1,-8
1570181526700423,-3,-1,5,0,2,1,0,7
1570181526700423,0,3,6,1,0,-1,-1,-1
1570181526700423,0,-3,-4,-2,-1,-1,4,0
1570181526700423,-4,1,2,1,0,1,0,-9
1570181526714389,2,-3,-5,-3,-1,2,6,-3
1570181526714389,-1,-3,-4,0,-2,-3,-11,-1
1570181526715389,1,5,0,-1,0,0,-1,6
1570181526715389,0,-1,3,-1,1,-1,4,-4
1570181526737329,-6,-5,-3,0,-3,0,-1,-5
1570181526737329,5,-1,-5,-3,-1,-1,6,4
1570181526738617,7,2,0,2,0,0,1,2
1570181526738617,-3,-2,1,1,2,-1,-5,-9
1570181526760263,-2,-4,-4,-2,-2,-1,-4,11
1570181526760263,0,1,-1,-1,-1,-2,2,0
1570181526761358,-5,1,1,1,0,-2,-4,1
1570181526761358,5,-1,-2,-1,0,0,2,4
1570181526774229,-5,-1,0,0,1,-1,-1,11
1570181526774229,0,0,0,-2,0,0,3,11
1570181526775227,3,1,0,1,0,0,0,7
1570181526775227,-3,2,2,-1,-1,1,1,13
1570181526797168,-9,0,-1,1,-1,-2,-4,3
1570181526797168,3,-3,-2,0,-1,-2,1,1
1570181526798166,11,2,-2,0,-2,1,2,24
1570181526798166,-11,0,0,1,0,-1,1,-2
1570181526820107,5,0,0,1,-1,0,-4,-8
1570181526820107,-4,-2,-3,0,-1,-2,2,-4
1570181526821101,-7,-2,0,-1,0,-2,9,1
1570181526821101,-17,-8,3,3,4,3,-7,15
1570181526834066,61,17,-9,-8,-8,-2,0,10
1570181526834066,-10,-10,-6,-6,-4,-3,-2,-11
1570181526842049,-26,-11,-3,-1,-1,2,3,-8
1570181526842049,19,10,7,5,1,-1,2,-5
1570181526858014,13,7,6,4,2,-1,-7,18
1570181526858014,6,1,-3,-2,-1,1,-2,4
1570181526859002,3,4,0,-3,0,0,-2,-1
1570181526859002,-6,-1,-4,-5,-3,-2,0,-14
1570181526879950,-3,-4,3,2,1,2,0,-17
1570181526879950,-20,-1,-3,-1,-4,-1,0,-25
1570181526881940,-12,-12,-8,-4,3,1,-4,-23
1570181526881940,8,6,8,9,6,3,2,-20
1570181526902923,-15,-5,-9,-8,-7,0,3,-17
1570181526902923,4,-10,-12,-7,8,0,-3,-5
1570181526903882,28,16,11,21,3,3,0,-7
1570181526903882,1,-13,-7,-17,1,-14,-8,-13
1570181526917889,-1,-4,-19,-25,-5,-4,-5,-10
1570181526917889,19,18,17,12,3,6,7,21
1570181526918842,-37,-24,-5,-6,-1,-5,-5,24
1570181526918842,26,9,0,8,-6,-4,2,31
1570181526939814,-26,-21,-9,-6,-3,-6,1,7
1570181526939814,54,18,2,-1,-2,3,-5,18
1570181526941779,38,14,-3,-7,-5,-1,0,-2
1570181526941779,-5,1,-5,1,1,-2,3,-1
1570181526954093,-61,-10,4,4,-3,-6,-6,-38
1570181526954093,-86,-38,-14,-4,-2,-3,-2,-35
1570181526962722,17,-17,-2,3,-1,2,2,-7
1570181526962722,0,12,3,-2,-8,0,-2,-11
1570181526977682,-68,-27,-8,0,-1,-1,-3,-23
1570181526977682,11,14,5,1,0,-2,-2,9
1570181526978683,19,24,8,-3,-7,-3,-2,2
1570181526978683,12,8,-1,0,-8,-2,-2,-18
1570181526999628,1,5,17,17,0,5,7,21
1570181526999628,20,1,2,1,-9,-4,2,20
1570181527001618,-36,-38,-23,-11,1,-4,-13,-34
1570181527001618,2,2,1,-3,-6,4,7,3
1570181527013594,2,6,4,3,3,-3,-9,5
1570181527013594,70,44,16,20,15,5,12,6
1570181527022562,-48,-22,0,-8,-8,-10,-3,8
1570181527022562,25,-21,-18,-3,-14,-11,-5,-16
1570181527037526,25,11,7,-2,-1,11,17,4
1570181527037526,9,7,5,1,4,-14,-10,-59
1570181527039570,11,13,1,-11,-1,4,4,-31
1570181527039570,-58,-14,6,13,13,9,1,-36
1570181527060469,86,41,3,-2,0,-5,-18,22
1570181527060469,-22,-27,-4,8,-4,4,6,24
1570181527061460,6,16,7,9,10,4,8,7
1570181527061460,-12,-6,-5,-11,-3,-1,-4,1
1570181527073427,1,-11,-2,-2,-3,-3,-3,34
1570181527073427,-18,0,-4,-5,10,6,-1,0
1570181527082407,-2,0,-1,-2,-9,-6,-7,-27
1570181527082407,0,2,-1,-1,3,-1,-5,-29
1570181527097366,-2,5,3,8,3,-2,5,20
1570181527097366,-9,-9,-2,-8,-9,-8,-4,29
1570181527099358,28,14,0,4,-15,9,16,36
1570181527099358,-57,-28,-10,-14,13,8,9,31
1570181527120302,-8,3,6,9,2,-13,-5,-16
1570181527120302,-24,-11,-3,-2,0,-17,5,-19
1570181527121299,25,5,-1,-6,-7,-11,-12,2
1570181527121299,19,9,7,5,-9,-3,-3,21
1570181527133316,-13,-14,-4,-2,7,7,1,4
1570181527133316,3,-6,-2,-4,-4,11,4,35
1570181527143241,5,8,5,7,5,3,3,0
1570181527143241,1,7,3,4,2,-12,0,-36
1570181527157395,-4,-8,-8,-7,1,25,3,17
1570181527157395,6,4,-3,-7,-10,-8,-4,-73
1570181527164190,11,8,4,5,13,6,-8,54
1570181527164190,9,2,3,-3,-1,9,-7,28
1570181527180180,16,5,-1,-2,-5,-12,-6,-8
1570181527180180,-11,-3,-4,-4,-5,-1,0,7
1570181527182142,-2,0,-1,0,6,22,-4,102
1570181527182142,8,2,-1,0,-2,-20,-4,118
1570181527194151,1,-4,-2,4,1,1,13,127
1570181527194151,-9,-6,-1,-2,1,12,-5,124
1570181527203079,-10,-7,-1,1,-1,-4,6,-14
1570181527203079,7,1,-1,-1,0,4,-7,-57
1570181527217383,-14,-7,-3,-1,1,-3,-15,-128
1570181527217383,-3,-3,-2,0,0,2,0,-112
1570181527224023,-1,2,1,0,1,-6,1,-118
1570181527224023,14,3,0,0,-1,2,2,-85
1570181527240006,-9,-3,1,-1,-2,0,3,-98
1570181527240006,6,-1,-1,-1,-1,-5,0,-47
1570181527241976,-3,2,3,2,0,-1,-1,-45
1570181527241976,0,-1,0,0,-3,0,5,-40
1570181527253945,-5,-7,-5,-3,1,21,9,-59
1570181527253945,0,2,1,-1,-13,-32,-12,-66
1570181527262919,-2,0,-1,-2,-3,-10,-5,-57
1570181527262919,-5,-1,-4,-2,-6,3,-6,-43
1570181527277074,16,5,4,5,1,-18,-20,74
1570181527277074,-4,0,-1,-1,3,5,-3,-21
1570181527283864,-1,-3,-3,-1,-1,-1,-1,-5
1570181527283864,3,2,0,0,-5,-5,-8,18
1570181527299823,-6,-2,-1,-1,0,3,10,17
1570181527299823,-5,-2,-1,-3,3,8,3,40
1570181527301816,-9,-4,-1,-3,-1,-8,-9,32
1570181527301816,4,1,1,-1,3,7,11,64
1570181527322801,-5,-3,-1,-2,-3,-7,1,31
1570181527322801,1,-1,0,2,2,12,4,70
1570181527324056,-3,-2,-2,-2,-2,0,2,61
1570181527324056,-1,-1,-1,-1,2,4,2,48
1570181527336801,-3,-1,0,-1,-1,-3,0,14
1570181527336801,-1,0,1,0,-3,-4,-6,6
1570181527343744,1,0,0,0,-1,-3,1,-10
1570181527343744,0,-2,-1,0,1,3,2,-19
1570181527359693,-3,0,-1,-1,-2,-5,-4,-35
1570181527359693,0,0,0,-1,1,3,5,-13
1570181527361694,1,-1,1,1,0,-3,1,-19
1570181527361694,-1,-1,1,0,0,1,0,-9
1570181527382601,-4,0,1,-1,-5,-2,4,-21
1570181527382601,-1,-1,-2,0,1,3,-2,3
1570181527384595,-3,-3,-3,-1,0,-6,0,-11
1570181527384595,-2,-1,0,-2,-3,0,-1,-13
1570181527396951,0,-1,-2,-1,2,2,-1,1
1570181527396951,-4,-4,-3,-2,-3,-1,0,-15
1570181527403696,2,0,1,-1,-3,-2,-2,-2
1570181527403696,1,0,-1,0,0,0,-2,-3
1570181527420550,-4,0,-2,-3,-1,0,5,5
1570181527420550,-1,1,0,0,0,-4,-1,-4
1570181527421496,4,0,0,1,0,2,6,26
1570181527421496,0,-2,-2,-2,-2,0,-1,2
1570181527442472,-3,-1,2,-1,0,5,-1,-10
1570181527442472,2,0,0,0,2,1,3,10
1570181527444440,-2,1,0,0,1,3,-1,-6
1570181527444440,-2,0,-2,-1,0,3,5,-2
1570181527457400,0,-2,-1,-1,-1,-3,0,-2
1570181527457400,0,1,2,1,-3,-1,-6,7
1570181527463387,0,0,-3,-1,1,6,1,-4
1570181527463387,-2,-3,-2,-2,-2,-2,0,2
1570181527480515,0,0,-1,-2,-3,-3,-7,-3
1570181527480515,-3,-1,-1,-1,3,3,1,2
1570181527481548,0,-2,-1,-3,-5,-5,0,-6
1570181527481548,1,2,1,3,1,-2,-5,7
1570181527502284,-1,-2,-2,-1,2,-4,2,0
1570181527502284,-1,-1,-2,-4,-1,6,18,23
1570181527504276,-2,-1,-2,-1,0,0,-6,6
1570181527504276,-5,-3,-3,-2,0,0,-6,-10
1570181527517244,1,-1,3,1,0,1,0,-1
1570181527517244,-1,-1,-1,-1,-2,-4,-4,-6
1570181527524221,-1,1,0,0,-1,0,-1,-6
1570181527524221,0,-2,-1,-2,0,-1,2,-1
1570181527540181,0,0,-1,-1,-4,-5,-4,-10
1570181527540181,-1,-1,0,-2,1,4,-3,0
1570181527541326,-1,0,1,-2,0,3,3,-11
1570181527541326,-1,0,-1,1,2,-1,-3,-6
1570181527562191,-4,-3,-3,0,2,-1,14,-15
1570181527562191,0,1,-1,2,2,8,-6,-2
1570181527564115,-2,0,-2,-2,-5,-12,0,-4
1570181527564115,-1,0,0,-2,-3,-10,-4,3
1570181527576086,0,0,0,-1,0,6,3,2
1570181527576086,1,1,1,-1,-3,-6,0,8
1570181527585058,-18,-2,-1,1,6,9,-5,-17
1570181527585058,17,-1,-3,0,-2,0,6,32
1570181527600021,-1,-1,0,-2,-3,-6,-7,6
1570181527600021,3,0,1,0,-1,2,0,-5
1570181527602013,0,0,2,0,-1,-1,-2,-6
1570181527602013,-6,-2,0,-2,-1,-3,-2,-18
1570181527622961,1,0,-1,0,0,-3,-4,2
1570181527622961,-3,-1,-2,-2,0,-1,0,-10
1570181527623956,1,-1,-1,-1,-1,-4,1,1
1570181527623956,0,1,0,0,-1,2,-1,-3
1570181527635925,2,0,-1,0,-1,4,-1,1
1570181527635925,-4,-1,-1,0,-1,-4,-4,-6
1570181527645071,3,-1,0,-1,-1,-3,-1,2
1570181527645071,-1,0,1,0,0,2,-1,-1
1570181527660037,-3,0,-1,1,0,-2,-2,-4
1570181527660037,-1,-1,-1,-1,-3,-4,0,1
1570181527661881,2,0,0,-1,0,1,-1,8
1570181527661881,-3,0,1,-1,-1,0,2,-3
1570181527682802,-5,-3,-2,-2,-2,-2,-1,-16
1570181527682802,5,0,-1,0,-1,-2,-9,15
1570181527683795,-3,1,0,0,-2,-4,-6,-26
1570181527683795,4,-2,0,0,1,1,0,10
1570181527696758,-1,-2,0,-1,-2,0,0,-2
1570181527696758,-1,0,-1,-1,1,0,0,-3
1570181527704086,0,-1,-2,-2,-2,4,3,8
1570181527704086,-4,0,0,0,-1,-2,-3,-9
1570181527719702,3,1,1,1,1,2,-1,7
1570181527719702,-1,-1,-1,-1,-1,-1,2,-1
1570181527721694,2,0,1,-1,-1,-3,-1,11
1570181527721694,-3,-1,-1,0,1,0,2,-3
1570181527742751,2,0,0,0,2,-4,-1,8
1570181527742751,-2,-1,-1,-1,-2,8,8,-6
1570181527744632,3,0,-1,0,2,-2,-3,8
1570181527744632,-2,-1,-2,-2,0,2,-1,1
1570181527756605,2,0,-1,0,0,-2,-1,-1
1570181527756605,-3,-1,-2,-1,-1,-4,-2,-6
1570181527765580,0,-2,-2,0,1,11,2,4
1570181527765580,0,0,-1,-2,-4,-6,2,-1
1570181527780569,-1,-2,1,0,-1,-3,-3,3
1570181527780569,0,0,-1,-1,-1,-3,-2,-4
1570181527781588,0,-1,-2,1,0,3,3,3
1570181527781588,-3,0,-1,-1,0,-4,-6,-14
1570181527802575,-7,-1,0,-1,-2,1,1,-8
1570181527802575,2,1,0,1,-2,2,-1,-1
1570181527804473,-2,-1,-1,-1,-1,-7,-3,-2
1570181527804473,-2,-2,1,-2,0,0,0,-3
1570181527816581,-3,0,-1,1,-3,-3,-1,0
1570181527816581,-1,0,-1,1,1,0,0,2
1570181527825415,2,0,-1,-1,-1,-2,2,2
1570181527825415,-2,1,0,1,0,0,-1,2
1570181527840375,2,-1,0,-3,1,2,1,7
1570181527840375,-3,-3,-2,-3,-1,-4,-2,-1
1570181527841373,1,1,0,0,-2,-1,1,-3
1570181527841373,0,-2,-2,-1,-1,1,8,8
1570181527862322,-1,-1,-1,1,-3,-3,-4,-1
1570181527862322,-1,-1,-1,-1,0,-1,1,-3
1570181527864313,-6,-2,-2,-2,-2,-3,-5,2
1570181527864313,2,2,1,3,1,2,-2,0
1570181527876286,-1,0,-3,-1,-2,1,0,0
1570181527876286,-2,-2,-2,-1,-1,-4,9,3
1570181527893236,-1,-1,-2,-2,-4,-5,-2,8
1570181527893236,1,0,-2,-1,3,8,1,5
1570181527900273,0,-2,0,-1,0,0,0,-3
1570181527900273,0,1,0,0,-1,-3,-25,-2
1570181527901269,0,-1,-4,-2,0,-2,7,-2
1570181527901269,-5,-1,-1,-3,-2,-4,2,-5
1570181527922165,1,3,0,0,-1,0,3,3
1570181527922165,-2,-2,-1,0,1,1,3,-4
1570181527924153,-1,-1,3,1,-1,2,1,-5
1570181527924153,-1,0,0,-1,-2,-3,-4,-6
1570181527936123,-2,-2,-2,-2,0,4,3,3
1570181527936123,-2,1,1,0,-3,-4,0,-2
1570181527945095,-1,1,0,-1,0,-2,-5,-8
1570181527945095,-1,0,0,-2,-1,1,2,1
1570181527960057,0,-2,-3,-2,-3,-2,-3,3
1570181527960057,3,1,0,-1,-1,1,1,2
1570181527962050,1,-1,-1,-1,0,-2,-7,5
1570181527962050,-4,-4,-3,-2,-4,0,-1,-3
1570181527982996,-1,0,-1,0,-1,-1,-2,-5
1570181527982996,2,0,1,1,0,-1,-2,10
1570181527984183,-2,0,0,0,-1,2,2,-2
1570181527984183,1,1,0,-2,-1,-3,-1,-1
1570181527995963,1,-1,0,-1,-1,-3,-1,1
1570181527995963,-1,0,-1,-3,-1,1,4,-8
1570181528006072,0,0,0,-1,-2,0,1,3
1570181528006072,-1,-1,0,1,-2,-7,-6,-12
1570181528019898,0,0,-1,-1,-1,3,6,7
1570181528019898,-1,-1,1,0,0,-7,-1,0
1570181528021891,0,-1,0,1,1,1,0,-2
1570181528021891,1,0,-2,1,0,-4,-3,6
1570181528042879,0,0,-1,-1,0,-1,-2,-5
1570181528042879,-3,-1,-1,0,-2,1,-1,-5
1570181528043831,1,0,-1,0,1,-2,1,3
1570181528043831,-4,-1,-1,-1,0,3,2,-7
1570181528055801,0,0,0,0,0,-1,-2,-1
1570181528055801,0,-1,-1,-2,-2,0,1,1
1570181528065015,0,0,2,-1,-1,2,0,-2
1570181528065015,3,1,0,0,0,1,0,9
1570181528080103,-5,-1,1,0,0,-1,-1,-4
1570181528080103,2,0,-1,-3,0,-2,-1,1
1570181528081733,2,-1,-2,1,0,-2,1,2
1570181528081733,-1,0,-1,-1,-1,0,1,0
1570181528102673,2,0,-2,0,1,-2,-1,1
1570181528102673,6,1,1,1,0,1,-13,13
1570181528104668,-1,-1,-1,1,-1,-2,-1,-3
1570181528104668,-2,-1,0,-1,-1,-1,1,-1
1570181528116638,-2,-1,-2,0,-1,-1,0,-2
1570181528116638,-4,-3,-2,-1,-1,1,4,-9
1570181528125613,0,0,-1,-1,-1,0,-3,-1
