timestamp,emg1,emg2,emg3,emg4,emg5,emg6,emg7,emg8
1570180071105204,2,-1,-2,0,-1,0,1,6
1570180071105204,0,0,-1,-1,-2,-2,-2,-1
1570180071106203,2,-1,-1,0,-1,-2,-8,4
1570180071106203,-1,0,-1,-1,0,-1,1,-5
1570180071109365,-4,-1,-2,-2,-1,1,9,-16
1570180071109365,3,2,1,1,2,0,-10,4
1570180071110196,-1,-1,-2,-3,-2,0,1,0
1570180071110196,-3,-3,-1,0,-1,0,-2,-1
1570180071117169,-2,-1,1,0,0,-1,-2,-2
1570180071117169,-3,-1,-1,-1,-1,-1,4,3
1570180071132182,0,-1,-1,2,0,0,0,-10
1570180071132182,-1,0,-3,-3,-3,-1,1,-2
1570180071140115,-2,-1,-1,-2,1,0,-4,-1
1570180071140115,-1,0,-1,-1,-2,1,1,-2
1570180071147136,1,-1,-2,-1,-1,-1,-1,7
1570180071147136,-1,-1,0,-1,-1,-1,0,3
1570180071155068,0,0,-1,0,0,0,-3,1
1570180071155068,0,-2,0,0,0,-1,-1,-3
1570180071178456,-1,0,-1,-1,0,-2,1,-6
1570180071178456,3,0,-1,0,0,0,2,14
1570180071181107,1,0,0,-1,-2,-1,-2,3
1570180071181107,-1,-2,-2,-2,-2,0,-2,-5
1570180071192533,-1,0,0,0,-1,1,0,-1
1570180071192533,0,0,0,2,0,-3,-3,-4
1570180071232861,-2,0,0,0,0,-2,-1,-2
1570180071232861,-5,-2,0,-2,-2,0,5,-1
1570180071232958,5,2,-2,0,0,0,-3,-2
1570180071232958,-2,-2,0,-1,0,-1,0,-4
1570180071236885,0,-1,0,0,-1,0,-1,5
1570180071236885,1,-2,1,-1,1,-1,-1,-1
1570180071237848,-2,-1,-2,-2,-2,0,0,-4
1570180071237848,-1,1,-1,0,-1,0,-3,0
1570180071243173,-1,0,-1,-1,-1,0,-2,-2
1570180071243173,0,1,1,1,-1,-1,-1,-1
1570180071251026,-1,-1,-2,-2,0,-2,-3,-2
1570180071251026,1,-2,-1,0,-2,-1,-1,0
1570180071266046,1,-2,-1,1,-1,1,2,-2
1570180071266046,-4,-1,-1,-2,1,0,-4,-4
1570180071273986,1,0,1,1,2,0,4,16
1570180071273986,0,0,0,-2,2,-1,4,10
1570180071280765,-1,-1,-1,-1,1,-1,-1,-5
1570180071280765,2,0,-1,1,-1,-1,3,-1
1570180071304665,2,0,1,0,-1,-3,-13,9
1570180071304665,-1,-2,-3,0,-2,-1,-3,0
1570180071305821,0,0,0,-2,0,-2,1,2
1570180071305821,-1,-1,-2,1,-1,0,0,-5
1570180071317774,-4,-1,-1,-1,-1,-1,4,-5
1570180071317774,1,0,-1,-1,-1,0,0,-3
1570180071326692,-2,1,-1,-1,-1,-3,-4,-5
1570180071326692,0,0,-2,-1,-2,-2,-1,-1
1570180071342567,-2,-1,0,0,0,1,0,-3
1570180071342567,-2,-1,0,-1,0,-1,-2,-3
1570180071343649,0,-1,-1,-1,1,1,1,-2
1570180071343649,0,-2,1,-1,-2,-2,-2,4
1570180071364826,-2,-1,0,1,0,-1,1,-7
1570180071364826,0,0,0,0,-1,-2,0,0
1570180071365520,-1,-1,0,0,0,0,-2,-2
1570180071365520,0,0,0,-1,-1,1,0,2
1570180071378470,-1,-3,-1,-1,-2,-2,-1,-5
1570180071378470,-3,-3,-1,-2,-1,-3,-5,-17
1570180071387445,-2,1,-1,0,-2,0,1,-1
1570180071387445,1,-1,-2,0,-1,0,0,3
1570180071401449,-2,-1,0,-1,-1,1,2,-2
1570180071401449,1,-1,-2,-1,-2,0,-1,-3
1570180071408388,2,0,-1,0,1,-1,0,5
1570180071408388,-5,-2,0,-1,1,1,-3,-8
1570180071424574,1,1,-1,-1,1,0,0,1
1570180071424574,-2,-1,0,0,0,-1,-1,0
1570180071426342,1,0,0,-2,0,-1,-1,2
1570180071426342,-2,0,0,-1,0,0,1,1
1570180071447292,1,0,-1,0,-3,-1,1,0
1570180071447292,-3,-1,0,-1,-1,0,0,0
1570180071448285,-2,-2,0,-1,-2,1,-1,5
1570180071448285,2,-1,-1,-1,0,-1,-2,1
1570180071462245,-3,-1,1,-1,-2,-2,0,0
1570180071462245,1,1,2,-1,-3,0,2,5
1570180071463243,-2,-2,-1,0,-2,0,0,-2
1570180071463243,0,0,0,-1,-1,0,-2,0
1570180071484388,-1,-2,-2,-1,0,-1,2,-3
1570180071484388,5,3,0,2,3,-1,-20,14
1570180071486286,3,1,-1,0,0,-1,-1,3
1570180071486286,-2,-1,-2,-1,-1,-1,1,-5
1570180071507128,-2,-2,-1,0,-1,-2,-1,3
1570180071507128,1,-2,-2,-1,-1,0,6,-4
1570180071508125,-2,-3,-1,0,-1,0,-2,-3
1570180071508125,1,1,2,1,-1,-1,-2,8
1570180071522347,-2,1,0,-1,0,0,0,-2
1570180071522347,-3,-1,-1,-2,-1,-1,2,-14
1570180071523087,-2,0,-1,0,0,-3,0,0
1570180071523087,-1,-2,-3,-2,-1,-1,2,-4
1570180071544829,0,-2,1,-1,-1,-1,-1,-2
1570180071544829,-1,-1,-1,0,1,-1,1,0
1570180071546022,0,0,-1,1,0,-1,-1,-1
1570180071546022,-2,1,-2,-1,-1,1,-2,-5
1570180071565972,-4,-2,-2,-2,-1,1,4,-5
1570180071565972,1,1,1,-1,0,2,-2,8
1570180071566973,-2,-1,0,-1,-1,1,0,-4
1570180071566973,3,1,1,1,-2,-2,-7,13
1570180071581036,0,-2,0,0,-1,0,-1,1
1570180071581036,-4,-2,0,-1,0,0,3,-4
1570180071587917,0,0,0,-2,0,-2,-3,2
1570180071587917,-4,0,-1,0,-1,1,-2,-6
1570180071604042,-1,0,-1,-1,1,-2,-4,-5
1570180071604042,-1,-1,-2,0,0,0,3,-1
1570180071604866,-4,-1,0,-1,-2,-1,4,-6
1570180071604866,3,-2,0,0,0,-2,0,3
1570180071625810,-4,0,0,0,-1,0,-3,-7
1570180071625810,1,0,0,-2,-2,-2,3,3
1570180071633799,-1,-1,-1,-1,0,-1,-2,-18
1570180071633799,0,0,-1,0,0,1,1,-3
1570180071640973,1,-1,-1,-1,1,0,-2,2
1570180071640973,0,-2,-1,0,-1,-1,-1,0
1570180071647757,-3,0,0,-1,-1,0,0,2
1570180071647757,2,-2,-3,-1,1,0,3,9
1570180071663909,-1,2,1,1,0,1,-1,-3
1570180071663909,-2,1,0,-1,0,-1,2,0
1570180071664716,0,-1,-1,-1,0,-2,-2,2
1570180071664716,-2,-1,0,-1,0,0,1,-3
1570180071686646,-1,-2,-1,-1,-2,1,0,1
1570180071686646,-2,-1,-2,-1,0,0,1,-3
1570180071686646,2,-2,0,0,-1,-1,-1,3
1570180071686646,1,2,1,0,1,-2,-9,13
1570180071700694,3,0,-1,-1,1,-2,0,5
1570180071700694,-1,-2,-2,0,-1,0,-1,0
1570180071707626,-2,-1,-3,0,0,-2,-6,-1
1570180071707626,-2,0,-2,0,-1,-2,3,-4
1570180071723855,-1,-1,-2,0,-1,-1,1,-1
1570180071723855,-2,-1,-2,0,0,0,-1,-2
1570180071724555,4,-1,1,-2,-1,-2,4,6
1570180071724555,-1,-1,0,-1,-1,-2,-1,-8
1570180071746485,-1,-2,-2,0,-1,-1,-1,-4
1570180071746485,-1,0,-1,0,-2,0,1,-1
1570180071746485,-1,-1,-2,0,1,-1,0,-1
1570180071746485,0,-1,-1,0,0,2,5,10
1570180071760639,-1,1,-1,1,-2,1,-2,1
1570180071760639,-1,0,-1,-2,0,0,0,2
1570180071768477,-1,1,0,0,-1,0,0,2
1570180071768477,-1,0,0,-2,-2,-2,-2,-6
1570180071783727,-1,1,-1,0,0,-1,1,-1
1570180071783727,-2,-1,0,1,-2,0,-1,0
1570180071784832,-2,1,-1,-1,0,0,0,-1
1570180071784832,-2,-3,-1,-2,1,1,5,-5
1570180071806653,3,1,1,-2,-1,-1,-2,-4
1570180071806653,-2,-2,-1,-1,0,-2,-3,-5
1570180071807323,1,-3,0,0,0,0,-2,1
1570180071807323,-2,-2,0,0,-3,-2,0,-5
1570180071820317,2,-1,1,-1,-1,-2,0,11
1570180071820317,3,-1,-2,-2,0,0,2,5
1570180071828267,-2,1,1,1,0,-2,-2,-6
1570180071828267,2,2,-1,-1,1,-1,-11,10
1570180071844329,-3,-2,-2,0,-1,-1,-1,-4
1570180071844329,-2,-1,-1,-1,-1,-1,0,-3
1570180071844329,0,-2,-2,-2,-1,0,0,5
1570180071844329,-2,-1,-2,-2,0,-1,-1,-18
1570180071866463,0,1,1,1,-1,-2,-2,1
1570180071866463,-1,0,0,0,0,-1,-3,-1
1570180071867228,-2,-1,0,0,-1,2,1,-8
1570180071867228,3,0,-1,0,-1,-1,1,-2
1570180071880284,1,1,-2,-1,0,2,3,13
1570180071880284,-1,0,-2,0,2,-1,1,-5
1570180071896164,0,1,-1,1,-1,-1,-2,2
1570180071896164,-2,-2,-1,0,1,-1,-1,-3
1570180071904064,0,-1,-1,0,0,-1,-3,-3
1570180071904064,0,0,0,-1,-2,-2,-2,1
1570180071904064,-1,1,-2,-1,0,-1,-1,-3
1570180071904064,4,-3,-2,-1,-1,-1,2,11
1570180071926054,-2,-1,0,0,0,-1,-1,-7
1570180071926054,-4,0,-1,0,-2,-1,0,-4
1570180071927363,0,0,0,-2,-2,-1,3,2
1570180071927363,0,1,1,-1,1,0,0,-1
1570180071941052,-1,-1,-1,-2,-1,0,1,-1
1570180071941052,2,0,-1,-1,-1,0,-2,-1
1570180071948018,-1,-2,-1,-2,-1,0,-3,3
1570180071948018,-2,-2,-1,0,-3,-1,-1,-5
1570180071963908,1,0,1,-1,0,0,0,0
1570180071963908,-1,-2,-1,0,-1,-1,-2,1
1570180071964902,0,-2,-1,0,1,0,0,0
1570180071964902,-1,-2,-1,-1,1,0,-1,-2
1570180071985845,-2,-1,-1,-1,-1,-3,-2,-4
1570180071985845,0,0,-1,0,2,-1,0,-4
1570180071986844,2,0,0,-1,-2,-1,0,7
1570180071986844,-3,0,-2,0,0,-1,-1,-9
1570180072000805,2,0,0,0,1,1,0,5
1570180072000805,0,-2,-1,0,-1,-2,0,1
1570180072007787,-3,0,1,1,0,0,-1,1
1570180072007787,2,0,1,-1,-2,-2,-1,2
1570180072024019,-8,-3,-3,-2,-2,0,8,-35
1570180072024019,3,-1,0,-1,-2,-1,-3,1
1570180072024741,0,0,-1,0,-1,0,1,-2
1570180072024741,-4,-1,-1,1,-2,-1,-2,-3
1570180072045684,5,-1,0,0,-4,-1,2,10
1570180072045684,-1,-1,-2,-1,1,-1,2,1
1570180072046838,-1,0,-1,-1,0,-1,-2,-7
1570180072046838,-1,-1,-1,0,0,0,-1,-6
1570180072060645,0,0,1,-1,-1,-1,-4,3
1570180072060645,-1,-1,-2,-1,0,2,0,1
1570180072067627,0,-1,-2,-2,-1,0,-1,1
1570180072067627,-1,-2,-1,-1,-2,0,1,-1
1570180072083595,-1,1,-1,1,0,-1,-4,1
1570180072083595,2,0,0,-2,-1,0,3,15
1570180072084581,-1,-2,-2,2,-2,-1,-1,-8
1570180072084581,0,0,0,-1,0,-1,-2,-1
1570180072106526,0,1,-1,0,0,-2,-2,2
1570180072106526,0,-1,1,0,0,-1,1,-2
1570180072106526,-1,-3,-1,-2,-1,0,-2,0
1570180072106526,-2,-1,-1,-1,-1,1,-1,1
1570180072120488,0,-2,0,0,0,-1,-3,2
1570180072120488,-2,-1,0,-1,-1,0,-2,-6
1570180072127468,2,0,-2,0,-1,-1,2,4
1570180072127468,6,1,3,1,1,0,-5,29
1570180072143430,0,-1,-1,-2,1,1,0,2
1570180072143430,-2,-1,0,-3,0,0,1,-6
1570180072144642,1,0,0,-1,-2,0,-3,5
1570180072144642,-3,1,-1,-1,-1,-1,3,-12
1570180072166364,-1,1,-1,0,-1,0,-2,0
1570180072166364,-3,-2,-2,1,-1,-1,-3,-5
1570180072167361,-3,-2,0,0,-1,1,0,-9
1570180072167361,-1,-1,-1,-1,0,0,1,-1
1570180072180326,-1,-1,0,0,0,1,0,0
1570180072180326,2,2,-1,1,-2,-3,-2,-5
1570180072188432,-2,-2,-1,-2,0,-2,0,-4
1570180072188432,0,-2,-3,0,0,-1,-1,-2
1570180072211240,0,-1,0,0,-1,0,-2,0
1570180072211240,2,2,-1,-1,0,1,1,2
1570180072212241,0,0,1,0,0,-1,-1,0
1570180072212241,-2,-1,-1,0,1,-2,-1,-1
1570180072226290,0,-1,-1,-1,-2,0,1,-1
1570180072226290,-2,-1,0,1,0,-2,1,-4
1570180072227204,-1,-1,-2,-1,-1,-2,-3,-10
1570180072227204,4,1,2,0,-1,0,-11,11
1570180072249182,0,-1,0,0,0,-2,-2,-1
1570180072249182,-1,0,-2,-3,-1,-1,-2,-3
1570180072249182,2,0,-4,-1,1,-1,-2,3
1570180072249182,-3,-1,0,-1,0,-2,2,-6
1570180072271290,-3,0,1,-1,-1,-2,-4,-9
1570180072271290,0,-1,-1,-1,1,-1,3,4
1570180072272359,1,1,-1,-1,-1,1,2,1
1570180072272359,-1,-2,-2,-1,-1,1,2,-3
1570180072286047,-2,-1,-2,-1,1,1,-1,-4
1570180072286047,-1,-1,-1,0,0,0,1,-3
1570180072287045,-1,-1,0,-1,0,0,1,0
1570180072287045,-1,-2,-2,-2,-1,0,2,-3
1570180072309133,-1,0,0,0,-2,-1,-4,7
1570180072309133,0,-1,1,-1,-2,-2,-2,-7
1570180072309133,-2,-1,-2,-1,-1,2,3,-3
1570180072309133,4,2,0,2,0,-1,-9,22
1570180072331116,0,-2,0,-1,-1,0,2,2
1570180072331116,-2,-2,-1,1,0,0,-1,0
1570180072331978,-2,0,0,-2,-2,-1,1,1
1570180072331978,-5,-2,-2,0,-2,1,4,-14
1570180072345995,-3,-3,-3,0,0,0,0,-1
1570180072345995,0,2,0,0,-1,-3,-4,2
1570180072346889,-2,-1,-1,0,-1,-2,-3,-1
1570180072346889,2,0,0,-2,-1,-1,0,1
1570180072368995,1,1,0,-2,-2,-2,1,2
1570180072368995,-1,-3,-1,-1,-1,0,0,-3
1570180072369825,-1,-1,-1,0,1,-1,-3,-1
1570180072369825,-2,0,-2,-2,0,0,4,-8
1570180072390882,0,-1,0,0,-1,1,0,-3
1570180072390882,-1,-1,-1,0,-1,-1,2,-5
1570180072391759,-1,-1,0,1,0,0,-1,-3
1570180072391759,-2,-2,1,0,0,-1,-1,-2
1570180072406765,-1,0,0,0,0,-3,0,-1
1570180072406765,-1,-3,-2,-1,0,1,0,4
1570180072406765,2,0,1,-1,0,1,-1,2
1570180072406765,-2,-1,-2,-1,-1,-1,1,-5
1570180072428850,-1,0,1,2,-2,0,1,-2
1570180072428850,6,2,0,1,0,-1,-10,38
1570180072429661,-2,0,-1,-1,-1,-1,-1,1
1570180072429661,-3,-1,-1,0,-3,-2,1,-4
1570180072451662,1,0,-1,-1,0,1,-1,8
1570180072451662,-1,0,1,-1,-2,-1,-2,-10
1570180072451662,-1,1,1,-1,-1,1,-1,1
1570180072451662,-2,0,-1,-1,-1,0,-1,1
1570180072466692,-2,-2,-1,-1,-2,-1,-1,-6
1570180072466692,-2,0,-1,-1,-1,0,4,-6
1570180072467559,0,0,-3,-1,-2,-2,1,0
1570180072467559,-1,-3,-1,0,-1,-1,0,-4
1570180072488913,-1,0,-2,-1,0,-2,0,0
1570180072488913,0,-1,-1,-1,0,-1,1,-5
1570180072489502,0,-2,0,-1,0,-1,-1,0
1570180072489502,1,0,0,1,0,-1,1,3
1570180072511494,0,0,0,-1,0,-1,-2,-1
1570180072511494,-1,-1,-1,-1,-1,0,-3,-2
1570180072511494,-1,-1,-2,-1,0,0,1,-2
1570180072511494,-1,0,-1,0,-1,-2,-2,-4
1570180072525607,-2,-1,0,0,0,0,0,-1
1570180072525607,-1,0,-1,0,-2,-1,-1,-3
1570180072533603,4,1,0,0,-1,-2,-16,16
1570180072533603,0,-1,-1,-1,-1,0,1,8
1570180072548478,0,0,-2,-1,1,-1,1,1
1570180072548478,2,0,2,0,-1,1,-8,4
1570180072550361,-2,-1,-2,-1,-1,0,4,-2
1570180072550361,3,0,-1,-1,0,-1,1,4
1570180072571375,0,-1,0,-2,-1,-1,-3,-4
1570180072571375,0,0,-1,0,-1,0,3,2
1570180072572281,-2,-2,0,-1,0,-3,2,-5
1570180072572281,-2,0,-1,-1,-2,0,-2,-5
1570180072585299,-1,-1,-1,-1,0,1,4,0
1570180072585299,0,1,-1,-2,-1,-3,-1,-7
1570180072594293,0,-1,-1,0,0,0,1,-2
1570180072594293,-5,-2,-2,-3,-2,-1,11,-16
1570180072609232,3,-1,0,-2,1,1,-1,3
1570180072609232,1,-1,-1,-1,-1,0,6,17
1570180072609232,0,-1,0,1,-2,1,0,2
1570180072609232,0,0,-2,-2,-1,0,-2,-3
1570180072631123,-1,0,-1,0,0,-1,-5,3
1570180072631123,-3,0,0,-1,1,1,0,-11
1570180072632118,-3,-2,-1,-1,-1,-2,5,-3
1570180072632118,1,-2,0,0,0,1,-1,4
1570180072645082,-1,-1,1,1,-1,-3,-1,-9
1570180072645082,0,-3,-1,-2,0,-1,-1,1
1570180072654249,-2,-1,1,-2,-2,0,-1,-1
1570180072654249,1,1,1,-2,1,-3,-7,-2
1570180072669066,0,1,-3,-1,0,0,-2,1
1570180072669066,-4,-1,0,-2,0,1,0,-13
1570180072669066,1,0,-1,0,0,-1,2,7
1570180072669066,-2,-1,-1,-1,0,0,-2,-5
1570180072691186,-7,-3,-2,-3,-3,0,12,-22
1570180072691186,1,0,-1,0,-2,-1,-4,-1
1570180072691965,-1,0,-1,0,0,-1,-1,-1
1570180072691965,-1,-2,0,1,-2,-1,-7,-10
1570180072705923,-1,-1,-1,-1,0,-3,1,2
1570180072705923,-4,-1,-1,-2,-1,-2,0,-3
1570180072713944,1,-1,0,-2,-2,0,2,-1
1570180072713944,-3,-2,-2,-2,-1,-1,4,-3
1570180072728912,2,0,1,1,-1,0,-8,2
1570180072728912,1,-1,-1,0,0,-2,0,0
1570180072736160,0,-1,-1,0,0,-1,-2,-2
1570180072736160,1,0,0,1,0,1,1,3
1570180072750807,0,-1,-2,0,0,1,-1,4
1570180072750807,1,0,0,-1,-1,0,-1,6
1570180072751800,-1,-1,-1,0,-2,-1,0,-10
1570180072751800,-1,1,-1,2,0,-1,-3,-3
1570180072765962,4,-1,0,-1,-1,-2,2,8
1570180072765962,1,1,0,0,0,-1,-15,4
1570180072773907,3,-2,-2,-1,0,-1,-2,-2
1570180072773907,0,2,-1,0,0,0,1,8
1570180072788734,-4,-1,-3,-2,-1,1,-1,-2
1570180072788734,-2,-2,-2,1,0,-1,5,-5
1570180072789695,-3,0,-1,0,0,0,-1,-7
1570180072789695,2,0,-2,-1,-2,-1,-1,3
1570180072811688,3,3,1,2,-1,-3,-6,9
1570180072811688,-1,-2,-2,-1,-2,0,3,-1
1570180072811688,0,0,-1,0,0,-1,-3,2
1570180072811688,-3,-3,-2,1,-1,-1,2,-2
1570180072825936,-4,-1,-1,-2,1,-1,4,-3
1570180072825936,-2,0,-1,-1,-2,-1,0,-6
1570180072833891,1,-2,0,-2,-1,-2,-5,-10
1570180072833891,0,0,0,-1,0,0,0,1
1570180072848537,-4,-2,-2,-2,-1,2,12,-13
1570180072848537,2,0,-1,0,1,1,2,20
1570180072849547,-3,0,-1,0,0,0,2,2
1570180072849547,-3,-3,-1,-1,1,-3,-2,-4
1570180072871546,0,-2,-1,-1,-1,-1,2,0
1570180072871546,-1,0,-1,-2,-1,-1,5,-7
1570180072871546,2,0,0,-2,-1,1,0,5
1570180072871546,0,0,-1,0,-1,-2,-1,2
1570180072894730,-1,0,-1,1,0,-2,-5,2
1570180072894730,-2,0,-1,-2,-2,-1,-2,-3
1570180072895415,-1,-1,0,0,-1,-1,0,0
1570180072895415,0,1,0,-1,-1,0,-2,2
1570180072908381,-1,-2,1,-2,0,0,-4,-1
1570180072908381,-1,-3,-2,0,0,2,4,-5
1570180072909381,3,1,2,3,-1,-2,-8,7
1570180072909381,-1,-1,0,0,-2,0,-2,-3
1570180072931488,0,-1,-2,0,-1,-2,-4,8
1570180072931488,0,-1,-3,-1,-1,-1,-1,-13
1570180072932316,-3,-2,-3,-2,0,2,4,-5
1570180072932316,9,3,1,1,1,1,-14,33
1570180072962234,-3,0,0,0,0,-1,-6,-5
1570180072962234,0,-1,1,-1,0,-1,0,3
1570180072963231,-1,0,-1,1,-1,-2,1,-2
1570180072963231,-3,-2,-1,-2,-3,-2,3,-13
1570180072969230,0,-1,-2,-1,-2,-1,2,-2
1570180072969230,1,1,1,0,1,-2,-3,5
1570180072970223,-2,-2,0,-1,0,0,0,0
1570180072970223,-1,-3,-1,-2,-1,0,2,-5
1570180072991363,0,1,-1,-1,-1,-1,-3,0
1570180072991363,-1,-1,0,0,-2,0,0,-9
1570180072992164,1,0,-2,-2,-1,0,2,10
1570180072992164,-4,1,-1,1,1,-2,-3,-9
1570180073022267,0,-1,0,-2,-2,0,1,0
1570180073022267,0,-1,0,0,-3,-1,-2,-10
1570180073023218,0,-2,-1,0,0,0,1,-1
1570180073023218,-1,-1,-2,-2,-1,0,1,0
1570180073029087,8,2,1,-1,1,-1,-8,32
1570180073029087,-3,0,-2,-1,0,0,4,-1
1570180073029087,3,3,2,0,-1,0,-4,5
1570180073029087,-1,-1,-1,0,0,-3,3,-11
1570180073051994,-1,-1,0,1,0,1,-1,-9
1570180073051994,1,-1,-1,0,-2,-1,0,5
1570180073051994,-6,-1,-4,-1,-1,1,-1,-4
1570180073051994,-2,0,-4,-3,-1,-1,5,0
1570180073082123,-2,-2,1,0,-1,0,-1,-7
1570180073082123,-1,-1,-3,-1,1,0,-1,-1
1570180073082915,-1,-2,-2,-2,-1,-2,2,-5
1570180073082915,1,-1,1,0,-1,-1,-1,2
1570180073089085,-2,-1,-1,0,-1,0,2,-8
1570180073089085,-2,-1,0,0,1,-1,-2,1
1570180073089893,0,-2,-1,-1,0,-1,-2,-8
1570180073089893,-2,0,0,-2,1,0,-2,-3
1570180073110869,-2,-1,-1,-2,-1,-2,5,1
1570180073110869,0,-2,-1,-1,-3,0,-1,1
1570180073111845,-1,0,0,-4,1,0,1,0
1570180073111845,0,-1,-1,0,1,-1,-3,5
1570180073134772,-1,-2,-2,0,-1,-1,-2,-8
1570180073134772,-3,-2,-4,-1,0,0,7,-1
1570180073134772,-3,-2,0,-1,-2,-2,1,-8
1570180073134772,-1,-1,0,-1,-1,1,-1,-1
1570180073148903,0,-1,-2,-1,0,-2,0,2
1570180073148903,0,-2,0,0,-2,-1,-1,-1
1570180073149732,0,0,0,0,-1,-1,2,6
1570180073149732,-4,-2,-2,-1,-1,-2,0,-4
1570180073171730,0,-1,-1,2,-1,-3,-2,4
1570180073171730,0,1,0,-1,0,1,-1,5
1570180073171730,3,1,0,0,0,-1,-16,13
1570180073171730,-1,0,-1,-1,-2,0,-2,-1
1570180073194919,0,0,1,0,-1,0,0,0
1570180073194919,0,0,-1,-1,0,-3,-2,-4
1570180073195611,-2,0,-1,-1,-1,-1,1,-3
1570180073195611,-1,-2,-2,0,-1,1,3,0
1570180073208764,-1,0,-1,0,-2,-2,-5,-3
1570180073208764,0,-1,0,0,1,-1,-3,0
1570180073209578,-1,-2,-2,-1,0,-1,1,-2
1570180073209578,0,-1,-1,-1,0,1,0,0
1570180073231797,-3,-2,-2,-2,-1,2,4,-7
1570180073231797,0,0,0,-2,-2,-1,-2,6
1570180073231797,-1,-2,0,0,0,-1,0,2
1570180073231797,0,-1,-1,1,-2,1,-2,0
1570180073254451,-1,-1,-2,-2,0,-1,2,-2
1570180073254451,-2,0,0,0,0,-1,-1,-3
1570180073255527,-2,-1,0,-1,-3,0,-1,-10
1570180073255527,0,0,0,-1,-1,-1,-1,0
1570180073268347,2,0,-2,-2,-1,-1,-3,-1
1570180073268347,-2,1,0,0,-1,1,-2,-7
1570180073269238,2,1,-1,0,1,3,5,17
1570180073269238,2,0,-1,-1,0,-1,0,0
1570180073299382,-1,-1,-1,-1,0,0,-1,-4
1570180073299382,-1,-1,1,-1,0,-2,-3,-1
1570180073300290,-1,-1,-1,0,-1,-2,2,-3
1570180073300290,-1,1,-1,-2,0,0,0,1
1570180073314329,1,0,0,0,0,0,-1,6
1570180073314329,-1,-2,-1,1,0,-1,3,-3
1570180073315125,-1,0,0,1,0,-1,-2,-4
1570180073315125,1,-1,0,0,0,-1,-1,4
1570180073329191,-2,-1,0,-2,1,-1,0,-8
1570180073329191,2,0,-2,-2,-1,-1,-2,3
1570180073329191,-1,-3,-2,-2,0,0,2,-8
1570180073329191,-2,2,-2,0,-1,-2,-1,1
1570180073351023,5,-1,0,1,-3,1,-2,7
1570180073351023,-1,-1,-2,0,-1,0,0,0
1570180073352168,1,1,-2,-1,-1,1,1,3
1570180073352168,0,-2,1,-1,-1,-2,-1,-3
1570180073375009,-2,0,0,-1,-1,-3,-1,-3
1570180073375009,-2,0,-1,-1,-1,-1,0,-1
1570180073375009,-1,1,-3,0,-1,-2,0,-1
1570180073375009,-10,-5,-3,-3,-2,2,12,-34
1570180073389116,5,3,1,0,1,-2,-9,18
1570180073389116,0,-1,-1,-1,0,0,-1,1
1570180073389920,-3,0,0,0,-1,-2,-1,-4
1570180073389920,1,-1,-1,0,-1,-1,3,-2
1570180073411234,-3,-1,0,-1,-2,0,1,-6
1570180073411234,-1,-2,-1,-2,0,0,0,-1
1570180073411867,2,-1,0,0,-2,-2,-1,1
1570180073411867,2,1,1,-1,1,-2,-3,8
1570180073434799,0,-2,-2,-1,0,1,3,1
1570180073434799,2,2,1,0,1,0,-4,6
1570180073434799,-2,-1,0,0,-1,0,0,-7
1570180073434799,3,-1,0,-1,-1,-1,-4,5
1570180073448926,-1,-1,-1,-2,-2,0,2,-2
1570180073448926,-4,-2,-2,-2,0,-1,1,-5
1570180073449763,0,1,-2,0,-2,1,0,3
1570180073449763,-2,1,0,-2,-1,-2,-4,-2
1570180073471755,-2,0,0,0,0,-1,-1,1
1570180073471755,1,0,0,0,0,-1,-1,-8
1570180073471755,4,-1,-1,0,0,-1,-1,8
1570180073471755,1,2,-1,-1,-1,-1,-4,6
1570180073494949,-4,-1,-1,-2,-1,-2,0,-11
1570180073494949,-1,-1,1,0,0,0,2,2
1570180073495637,-1,1,0,-1,0,-2,-1,1
1570180073495637,0,-2,0,0,0,-2,-1,0
1570180073507608,-1,-2,-1,1,-1,0,1,2
1570180073507608,1,-1,-1,-1,-1,2,-3,-7
1570180073516579,-6,-3,-1,-1,0,0,12,-18
1570180073516579,1,0,-1,1,1,-1,-4,5
1570180073531543,0,1,1,1,0,-1,-4,3
1570180073531543,-1,0,-2,0,-2,-1,-3,2
1570180073531543,0,1,1,-1,0,1,0,-1
1570180073531543,0,-1,-1,-1,0,1,0,-1
1570180073554703,-1,-3,-1,0,-1,0,1,0
1570180073554703,-1,1,-1,0,-2,-2,3,-1
1570180073555484,-3,-1,-2,-1,-2,0,-7,-4
1570180073555484,0,-1,-3,-1,-3,-2,1,4
1570180073568443,1,0,-2,-3,0,-1,-2,0
1570180073568443,1,-2,-3,0,0,-2,1,5
1570180073576485,3,-1,-3,0,0,-1,0,7
1570180073576485,0,2,0,1,-2,2,-8,4
1570180073591585,-2,-2,-1,-1,-1,0,2,-4
1570180073591585,4,-2,-2,-2,1,0,2,10
1570180073592379,2,1,2,1,-1,0,-4,3
1570180073592379,-2,-2,-1,0,-1,1,2,-4
1570180073614573,1,0,-2,0,-2,-1,3,-1
1570180073614573,3,1,1,1,-1,-1,-16,10
1570180073615316,-2,-2,-2,-1,-1,0,-1,0
1570180073615316,0,0,1,0,1,-1,3,2
1570180073628332,-1,0,-1,0,0,0,0,-2
1570180073628332,-2,-3,-2,0,-2,-1,2,-6
1570180073636261,-2,-2,0,-1,0,-1,1,0
1570180073636261,-1,0,2,0,-1,-2,-2,-3
1570180073651352,1,-1,-1,-1,1,-1,-1,2
1570180073651352,0,0,-1,-1,0,-2,2,-5
1570180073652216,-4,-1,0,1,-1,-1,-4,-3
1570180073652216,-1,-1,-2,-1,-1,-1,2,-3
1570180073674330,1,2,-1,-1,-2,-1,0,-1
1570180073674330,0,-1,-2,-1,-1,0,0,-1
1570180073675156,1,0,-1,-1,-2,1,-1,3
1570180073675156,-3,-2,-2,0,-1,-2,0,-5
1570180073688157,0,-1,-2,0,1,-1,0,-2
1570180073688157,-2,0,0,0,0,1,0,-7
1570180073696260,-1,-1,0,-1,0,-1,-3,-2
1570180073696260,1,-1,-3,-1,0,2,3,2
1570180073711149,-2,0,1,0,-1,-1,-2,-5
1570180073711149,-2,0,2,0,-2,-1,2,-2
1570180073712058,2,1,-1,-1,0,-1,-1,-3
1570180073712058,2,0,0,0,-1,0,-1,2
1570180073734006,1,0,0,0,-1,3,2,14
1570180073734006,0,-1,0,-1,-2,-2,1,-6
1570180073735036,6,0,0,0,1,-4,-16,16
1570180073735036,-3,-3,-1,-2,0,-1,-2,-4
1570180073748097,-2,-1,-1,0,-1,-1,0,0
1570180073748097,-1,-1,-1,0,-1,0,0,-10
1570180073756483,0,1,-1,0,-1,0,4,0
1570180073756483,-3,-1,0,-1,0,-1,-1,-1
1570180073771039,-2,-3,0,-3,0,-2,-3,0
1570180073771039,-1,1,-2,-2,0,0,1,1
1570180073771898,-5,-2,-1,-1,0,0,3,-13
1570180073771898,5,0,0,-1,1,1,2,3
1570180073794841,0,0,1,-1,-2,0,3,2
1570180073794841,0,0,0,1,-1,-1,-1,2
1570180073795622,0,-1,0,-2,0,-2,3,0
1570180073795622,1,0,0,0,-1,1,-4,2
1570180073817089,0,-1,-1,0,0,0,-3,-3
1570180073817089,-1,-2,-1,-1,-1,-1,1,4
1570180073817775,-3,-1,-1,-1,-1,-2,-2,-9
1570180073817775,-5,-2,0,-1,-2,-1,-1,-4
1570180073830783,0,0,-2,-2,2,0,3,2
1570180073830783,0,-1,-1,-2,0,0,0,0
1570180073831736,-2,-1,-1,-1,-1,2,-1,-2
1570180073831736,2,0,0,-1,-1,-1,0,3
1570180073854674,1,-1,-2,-1,-2,-1,-1,-2
1570180073854674,-2,0,0,-1,-2,0,-1,-1
1570180073854674,-1,-1,-2,-1,-2,-1,6,-2
1570180073854674,4,0,0,-1,1,-2,-11,11
1570180073876616,0,-1,0,0,-1,-1,-3,-4
1570180073876616,-1,-1,0,1,-1,-1,-1,0
1570180073877616,-1,-2,-1,0,0,0,1,-7
1570180073877616,0,-3,-1,0,-1,1,3,-2
1570180073891605,-2,-1,-1,-1,0,-1,-1,-2
1570180073891605,2,0,0,-1,0,0,-4,5
1570180073891605,-3,1,-1,-2,0,-1,-2,-3
1570180073891605,-1,1,-1,-1,0,0,3,-1
1570180073914566,-1,-1,-1,0,-2,1,-3,2
1570180073914566,1,0,1,1,0,-2,0,-6
1570180073915514,0,1,1,-1,0,1,-2,3
1570180073915514,-5,-1,-1,1,0,0,1,-7
1570180073936464,1,0,-1,1,-1,-1,1,-2
1570180073936464,-1,0,-2,-1,0,-2,-1,-9
1570180073938034,0,1,-1,0,-1,-3,0,9
1570180073938034,-2,-1,-3,-2,0,-1,1,-1
1570180073951417,-3,0,-1,-1,0,0,0,-2
1570180073951417,0,-2,-1,-1,0,-1,-1,0
1570180073952414,0,-2,-2,-1,-3,-1,-1,-2
1570180073952414,0,-1,1,0,0,0,1,-2
1570180073974490,-1,-1,-2,-1,-1,-1,0,-2
1570180073974490,-2,-1,-2,0,0,1,4,4
1570180073975353,2,0,-1,-1,-2,0,-5,1
1570180073975353,-2,0,0,0,-2,0,-1,1
1570180073997293,-6,-1,-1,-1,0,-1,11,-19
1570180073997293,-2,0,-1,-1,-1,0,-3,1
1570180073997293,-2,-1,0,-1,1,-1,1,2
1570180073997293,1,-1,-1,0,-2,-1,-1,-4
1570180074011259,2,-2,-2,-1,0,-1,0,5
1570180074011259,-1,-2,1,1,-2,1,0,0
1570180074012328,0,1,0,0,-1,-1,2,-1
1570180074012328,1,-1,0,-1,1,-2,1,-2
1570180074034195,-1,-1,0,0,0,-1,-5,-2
1570180074034195,-2,-1,-1,0,-1,0,-2,3
1570180074035195,1,-3,-1,-1,-2,0,-2,6
1570180074035195,-2,1,0,-1,-1,-1,-1,-3
1570180074057135,0,0,-1,0,0,-1,-1,0
1570180074057135,-3,-2,-3,-3,-1,0,0,-5
1570180074058226,-2,-1,0,0,0,1,0,-2
1570180074058226,-1,0,-2,0,1,-1,0,1
1570180074071163,-3,0,0,0,0,-2,-6,-3
1570180074071163,0,0,-1,-1,0,-1,1,2
1570180074072093,-3,0,-1,-1,0,-2,-2,-6
1570180074072093,0,-1,0,-1,0,-1,0,2
1570180074094034,0,-1,-1,-1,-1,2,0,-1
1570180074094034,-1,-1,0,-2,-3,-1,4,5
1570180074096028,2,-1,0,-1,1,0,1,0
1570180074096028,-1,0,1,1,0,0,-1,-4
1570180074116972,2,1,0,-2,0,-1,-2,13
1570180074116972,0,1,1,0,0,-1,0,-3
1570180074117970,0,-2,-1,0,-1,0,-1,1
1570180074117970,-3,-2,-1,-1,-1,-1,1,-5
1570180074129938,-1,0,1,-1,-1,-1,2,-6
1570180074129938,1,-1,-1,-1,0,1,-3,3
1570180074138913,-2,-2,-1,-2,-3,0,-1,-5
1570180074138913,-4,-2,-1,-2,-1,-3,-6,-19
1570180074153874,0,1,0,0,-1,-1,-3,-1
1570180074153874,0,0,0,-1,0,-1,-1,0
1570180074155868,-1,-1,-2,-1,-1,-1,-1,1
1570180074155868,1,0,0,0,-2,-1,0,1
1570180074176617,-1,-1,-1,0,0,0,1,2
1570180074176617,-1,-3,-3,-1,-1,-1,-2,-12
1570180074178542,-2,-2,0,0,-1,-2,-2,-6
1570180074178542,0,-2,-1,-1,0,-1,-1,6
1570180074190630,-2,-1,1,-1,1,0,-2,-3
1570180074190630,-1,0,-1,0,-1,0,0,5
1570180074199485,1,1,-3,-3,-1,-2,0,2
1570180074199485,2,0,-2,-2,-1,0,-7,16
1570180074214832,-1,0,-1,-1,-1,-1,-2,1
1570180074214832,0,0,0,-1,-2,0,0,0
1570180074216150,-1,1,0,0,1,0,-3,3
1570180074216150,-3,-1,-2,0,-1,1,3,-4
1570180074236882,-1,0,0,0,-1,-2,0,-2
1570180074236882,-2,0,-1,0,-1,-2,-3,1
1570180074237877,-2,0,0,0,0,-1,5,-4
1570180074237877,3,0,-1,-1,-1,1,2,14
1570180074250964,0,1,0,0,-1,-1,1,4
1570180074250964,-1,-2,-2,-2,1,0,1,-8
1570180074259941,1,-1,-1,0,-2,0,1,8
1570180074259941,-5,-1,-2,-2,-2,-1,1,-3
1570180074274351,0,0,-2,-1,0,-1,-3,0
1570180074274351,0,0,-1,-1,-1,-1,-4,4
1570180074275867,0,-1,-1,-3,0,-1,-2,-5
1570180074275867,-2,0,-2,0,-2,-3,0,-3
1570180074297062,-1,-1,0,0,-1,3,0,-5
1570180074297062,-2,0,1,1,0,0,3,-1
1570180074299058,-3,0,-2,0,-1,0,0,-4
1570180074299058,2,0,-2,0,-1,-2,2,-2
1570180074310211,-6,-4,0,-2,-1,1,13,-15
1570180074310211,-1,-1,0,-2,-1,-2,-2,-1
1570180074319228,1,-1,1,1,0,-1,-1,-3
1570180074319228,-2,-2,1,-1,1,0,-3,0
1570180074334836,0,-1,-2,-2,-1,0,-3,0
1570180074334836,-1,0,-2,-2,1,1,-2,-1
1570180074335841,-1,0,-2,0,0,-1,1,8
1570180074335841,-1,0,-2,-1,-1,0,2,-10
1570180074357172,1,-2,-2,1,-3,-1,-2,2
1570180074357172,0,0,-1,-1,0,0,0,2
1570180074358980,-2,-1,-1,1,-2,2,-1,-1
1570180074358980,-4,-1,0,0,-1,-2,-6,-18
1570180074370175,4,1,0,0,0,-2,-2,10
1570180074370175,-2,-1,-1,1,0,-1,-3,-1
1570180074379110,-1,-2,0,-1,0,-2,2,-1
1570180074379110,-2,0,0,0,0,-1,0,-2
1570180074394355,2,2,0,1,-1,-3,-5,2
1570180074394355,-1,0,0,0,-1,-1,4,-2
1570180074396348,7,0,1,-1,1,-2,-16,17
1570180074396348,0,0,-1,-1,0,0,2,3
1570180074416554,0,1,0,-1,1,-3,-2,3
1570180074416554,2,1,0,1,-1,-1,-3,6
1570180074418433,-3,0,0,0,-2,0,4,0
1570180074418433,3,0,-1,-1,-1,-1,-1,-4
1570180074430445,-2,-1,-1,-1,-1,1,-1,-1
1570180074430445,-5,-2,-2,-2,-2,1,2,-6
1570180074439236,-1,-1,0,0,1,1,2,0
1570180074439236,-2,-1,-1,0,-1,-2,1,-2
1570180074454647,-2,-1,-1,-1,1,1,5,8
1570180074454647,-1,-3,0,-1,0,1,-3,-3
1570180074456258,-1,-1,-2,0,0,0,-1,-5
1570180074456258,1,0,-1,-1,0,0,-1,8
1570180074477283,0,-2,-2,-1,-1,-1,-4,-5
1570180074477283,0,-1,-1,-1,0,-1,-1,-1
1570180074478273,2,1,0,0,-2,0,2,2
1570180074478273,-3,0,-1,-1,-3,0,-2,-2
1570180074490273,-1,-2,-1,-1,-1,-1,-1,-5
1570180074490273,-7,-4,-2,-2,-1,0,16,-3
1570180074500483,-2,0,0,0,-1,-4,-5,-11
1570180074500483,0,-1,0,-1,-1,0,3,2
1570180074514172,0,1,1,0,-1,-1,-3,-3
1570180074514172,-2,-1,0,1,0,-1,-5,-10
1570180074516166,-2,-2,-3,-2,0,1,6,0
1570180074516166,3,1,0,1,1,-1,-6,9
1570180074537290,-1,-1,-1,-2,-1,0,-1,-3
1570180074537290,0,-3,-1,0,-1,-2,-5,-1
1570180074538275,1,-2,-1,-1,-2,-2,2,1
1570180074538275,-4,1,0,0,0,1,-1,-5
1570180074550077,0,0,-2,-2,-1,-2,1,-1
1570180074550077,1,1,2,-1,0,0,-4,5
1570180074559283,0,-1,-2,-2,0,-1,-2,6
1570180074559283,-2,-1,0,1,-2,-2,2,0
1570180074574010,-2,-1,-2,-1,1,-1,-3,-4
1570180074574010,1,2,-1,0,0,-1,-8,10
1570180074576007,-3,-1,-1,0,-1,-1,2,-6
1570180074576007,1,-2,-2,-2,0,0,0,0
1570180074596952,0,-1,-1,1,-1,-2,-4,-6
1570180074596952,-2,-1,-1,0,-1,-2,3,-7
1570180074597946,0,0,0,1,-1,0,-1,-1
1570180074597946,-4,-2,-2,-2,-1,-1,-1,3
1570180074610911,1,-1,0,1,0,-1,3,3
1570180074610911,1,-1,-1,-2,-1,0,-1,2
1570180074618947,-1,0,-1,-1,-1,0,0,-2
1570180074618947,-1,-2,0,-1,-1,2,2,-6
1570180074633903,4,1,2,0,1,-3,-8,7
1570180074633903,0,0,-1,0,0,0,0,0
1570180074636128,-1,0,-1,-1,1,0,-2,0
1570180074636128,1,-1,-1,-1,-1,1,-2,3
1570180074656790,-3,0,-1,-1,-1,-1,1,-5
1570180074656790,1,-1,0,0,0,-2,-1,1
1570180074658786,-2,-1,0,-1,-1,0,1,-4
1570180074658786,5,2,-1,2,0,-3,-13,15
1570180074670754,-5,-2,-2,-1,0,1,2,7
1570180074670754,0,1,-1,-1,0,0,-1,-3
1570180074679727,-2,-1,-1,-1,1,-1,1,-7
1570180074679727,0,-2,0,-1,-1,-1,4,1
1570180074694687,1,-1,-2,0,0,0,4,15
1570180074694687,0,-1,-1,-2,-1,-1,-2,5
1570180074695685,-1,-1,0,-1,-1,-1,-1,2
1570180074695685,-2,0,0,0,-1,-2,0,-7
1570180074716629,3,0,0,-1,-3,-2,-5,-1
1570180074716629,-3,-2,-1,0,0,0,0,-5
1570180074718630,1,-1,-1,-1,-1,-1,-1,2
1570180074718630,-1,-2,-1,0,-1,0,0,-7
1570180074730592,-3,-3,-2,0,0,1,-1,-8
1570180074730592,2,0,-1,1,-1,-1,-2,-2
1570180074739613,-1,-1,-1,-2,0,0,0,-2
1570180074739613,-2,-1,0,-1,0,0,2,0
1570180074754529,-3,-1,0,-3,-2,-1,1,-6
1570180074754529,0,0,-1,-1,0,0,1,3
1570180074755525,-3,-3,-1,-1,-1,0,-3,-2
1570180074755525,1,-2,-2,-2,-1,0,0,-1
1570180074776469,-1,-1,-1,-1,0,1,0,-5
1570180074776469,-1,0,1,0,-1,-1,0,-1
1570180074778464,0,0,-1,0,-1,-1,0,-1
1570180074778464,0,0,0,-1,2,-1,1,2
1570180074799411,-2,-1,1,0,-1,-2,-1,-5
1570180074799411,0,1,-1,0,0,1,1,4
1570180074801403,-1,0,0,0,-1,-1,-4,3
1570180074801403,-4,-2,-1,0,-1,-2,-1,-17
1570180074814368,-2,-2,-1,-1,-1,0,0,-4
1570180074814368,2,-1,0,0,0,0,-3,0
1570180074815398,-3,-2,-1,0,0,-2,3,-7
1570180074815398,-1,-1,-1,0,-2,-2,-1,-4
1570180074836308,-1,-1,-3,-2,0,0,-1,4
1570180074836308,-1,0,1,-1,2,0,-5,0
1570180074838304,2,0,1,-1,-1,1,-2,-2
1570180074838304,-1,1,-1,-1,0,0,1,2
1570180074859247,0,0,0,1,1,-2,-2,-3
1570180074859247,-2,-2,0,-1,-2,1,2,-3
1570180074861242,2,-1,-1,-1,0,-1,0,5
1570180074861242,-2,-1,0,-1,1,0,-1,2
1570180074874207,-2,-2,-1,-1,-2,0,0,-2
1570180074874207,-3,-1,-4,-1,-2,-1,0,-4
1570180074876201,-3,-1,-1,-1,1,-1,-1,1
1570180074876201,-1,-2,0,-1,-2,1,2,2
1570180074897146,-2,1,1,1,0,0,-3,-7
1570180074897146,0,-2,-1,-1,0,-1,0,5
1570180074898143,1,0,-1,-1,0,-1,-1,2
1570180074898143,-3,-2,-2,0,-1,0,13,-14
1570180074919188,0,1,-1,0,1,-1,-3,1
1570180074919188,-2,-2,-1,-2,-1,-2,-3,-10
1570180074921082,0,1,-2,0,-1,0,0,-2
1570180074921082,0,-2,-1,-1,-2,-1,-1,-1
1570180074934047,2,0,1,-1,-1,-2,1,0
1570180074934047,-1,-1,0,-2,0,-1,-2,-1
1570180074940032,-2,-1,-2,-2,-1,-1,-1,-4
1570180074940032,1,0,-1,0,1,0,-2,8
1570180074955988,1,-2,-1,-1,-1,-2,-5,-10
1570180074955988,3,2,0,1,1,-3,-10,10
1570180074964965,1,-1,0,-1,-1,1,2,9
1570180074964965,1,1,-2,-1,0,-1,-4,6
1570180074979678,-3,-1,0,0,0,0,1,-1
1570180074979678,-1,-2,-2,-1,-1,1,5,-2
1570180074980922,-2,-3,0,-1,-2,0,-4,-4
1570180074980922,2,0,0,-1,-1,-2,-3,6
1570180074993888,-3,-2,-2,-4,-2,0,1,-2
1570180074993888,0,0,-1,-1,-1,0,0,0
1570180074999871,-2,-1,1,0,-1,-1,0,-3
1570180074999871,-1,-1,-1,-1,-1,2,-2,2
1570180075016826,0,1,-2,2,-1,0,1,1
1570180075016826,0,0,0,0,-2,-1,0,-2
1570180075018820,-4,-2,-2,0,-1,0,10,-16
1570180075018820,0,1,0,0,0,1,1,14
1570180075038772,1,-1,-1,0,-1,0,2,2
1570180075038772,-1,-1,-1,-1,0,-1,0,3
1570180075040762,-2,-1,-3,0,-2,-1,-1,-8
1570180075040762,-1,0,-1,-1,-1,-1,-2,-6
1570180075053763,-1,0,-1,-1,0,0,1,-1
1570180075053763,-4,1,-1,0,-3,0,3,-2
1570180075060837,1,1,-1,1,-2,-3,-5,2
1570180075060837,-1,-2,-1,-1,0,-2,-4,-6
1570180075077198,-1,-1,-2,-3,0,0,-3,2
1570180075077198,-2,-1,-2,2,0,-1,-1,-2
1570180075078660,0,-2,2,-2,0,0,-4,6
1570180075078660,-1,-1,-1,-1,-2,0,-2,-2
1570180075099605,1,0,1,0,-2,0,-1,5
1570180075099605,-4,-1,-2,-1,0,1,0,-8
1570180075100602,1,1,0,-1,0,-1,-2,1
1570180075100602,-1,0,-1,1,-1,0,0,-3
1570180075113567,-2,-2,-2,-1,-2,-1,0,2
1570180075113567,1,0,-2,-1,-1,-1,-2,1
1570180075120549,2,0,0,1,-1,-1,-2,3
1570180075120549,-1,-1,1,-1,0,-3,-3,-8
1570180075136506,-1,0,-1,-2,-1,0,-2,-13
1570180075136506,-1,0,-1,0,-1,-2,0,3
1570180075138500,-3,-1,-1,-1,-2,-1,-2,-1
1570180075138500,2,-1,-1,-2,-1,0,0,1
1570180075159529,-4,-1,-2,0,0,0,8,-14
1570180075159529,1,-2,0,-2,-1,-4,-11,-9
1570180075160442,-2,0,-1,-1,0,0,-1,-1
1570180075160442,-1,-1,-1,1,-1,0,0,1
1570180075173529,-3,-2,-1,0,1,-1,-1,0
1570180075173529,0,-1,0,0,0,0,2,-1
1570180075180416,-1,-3,-2,-1,-1,-1,1,1
1570180075180416,0,0,-1,0,-2,-1,-2,0
1570180075197342,1,-1,-1,1,-1,0,-3,4
1570180075197342,-3,0,1,0,-1,0,0,-2
1570180075198358,0,-1,0,-1,-2,-2,-1,2
1570180075198358,-1,1,2,1,0,0,1,0
1570180075219285,2,-1,1,-1,0,-1,-2,4
1570180075219285,-1,0,-1,0,-2,-2,4,8
1570180075221279,-1,2,-2,-1,1,-1,-1,-13
1570180075221279,-3,-1,-2,-2,-2,-1,-1,-3
1570180075233317,-1,0,0,1,0,-2,-1,2
1570180075233317,1,0,1,1,-1,-2,1,4
1570180075240229,-1,0,-2,-2,0,0,0,1
1570180075240229,-1,0,-1,-1,1,0,0,0
1570180075256186,2,-1,-2,-2,-1,-1,-3,3
1570180075256186,-2,0,-3,-2,-1,2,2,-2
1570180075264165,-1,1,0,0,-2,-1,0,4
1570180075264165,0,-2,-1,-1,2,-3,-5,4
1570180075279125,-1,0,0,0,-1,1,1,5
1570180075279125,-1,-3,-2,-1,-1,-1,0,-4
1570180075281119,7,2,0,0,-1,-2,0,9
1570180075281119,-2,0,0,0,-1,-2,0,-5
1570180075293189,-2,-1,-1,-2,-1,-3,-11,-6
1570180075293189,1,1,1,0,0,0,1,7
1570180075302063,-4,0,-1,0,-1,1,-2,-2
1570180075302063,1,-1,0,-1,1,0,-2,4
1570180075317023,-1,0,-2,-1,-1,1,3,-3
1570180075317023,-2,0,0,-2,0,-1,-1,-2
1570180075318022,-2,-3,-1,0,-2,1,1,-1
1570180075318022,-1,-2,-1,-1,-3,0,2,-7
1570180075339055,0,0,1,0,-1,-1,0,1
1570180075339055,0,0,1,-2,0,-1,-2,0
1570180075340964,-1,0,1,0,-1,-2,0,-3
1570180075340964,-1,-1,-2,0,0,1,0,-2
1570180075353048,1,-1,-1,1,0,-1,0,4
1570180075353048,3,0,-1,-1,-2,-1,-2,4
1570180075361903,1,-1,-2,-1,1,-1,-2,-1
1570180075361903,-1,-2,-2,-1,-1,-1,-2,-4
1570180075376864,2,0,0,-1,-1,0,1,3
1570180075376864,0,-3,-2,-1,0,2,3,0
1570180075378858,-4,-1,-1,0,0,0,-1,-4
1570180075378858,-3,-1,0,-2,1,-1,-2,-12
1570180075398804,0,1,1,0,-1,2,2,-1
1570180075398804,-1,0,-2,0,0,-1,-2,0
1570180075400799,0,-1,-2,-2,-1,-1,0,1
1570180075400799,-3,-1,-3,-1,-1,0,1,7
1570180075412767,-1,0,-1,-2,0,-2,-2,-6
1570180075412767,-1,0,0,-1,-1,0,0,-3
1570180075421960,-1,-1,1,0,1,1,5,5
1570180075421960,2,0,1,0,-1,-1,-3,2
1570180075436802,-1,-2,-1,0,-1,0,-1,-1
1570180075436802,0,0,0,-1,-2,-1,-1,4
1570180075438698,-1,0,-2,0,-1,-1,-3,-7
1570180075438698,0,-1,0,0,0,0,1,3
1570180075458649,0,-1,-1,-1,0,0,1,2
1570180075458649,-3,0,0,-2,-1,-1,0,-7
1570180075466747,-1,-2,-1,0,-1,-1,0,0
1570180075466747,-1,-2,-2,-1,0,0,0,-4
1570180075472607,-2,-1,-1,-1,-2,-2,-2,1
1570180075472607,-2,0,-1,-1,1,-1,0,-2
1570180075481583,1,0,-1,0,0,0,-3,-1
1570180075481583,1,2,0,-1,0,-1,-1,1
1570180075496543,-1,-2,-1,-1,-1,0,-1,3
1570180075496543,2,-1,1,-2,-3,1,-3,-12
1570180075498539,0,0,0,1,-1,-1,-3,-1
1570180075498539,0,-1,0,-1,-2,-2,2,-1
1570180075519545,-1,1,0,0,0,-2,-1,-2
1570180075519545,-1,-2,-1,0,-1,-1,0,4
1570180075521476,0,-1,0,-1,0,0,-2,-2
1570180075521476,-2,0,-2,-2,-3,0,0,-3
1570180075532448,-2,-1,0,-1,0,-2,-4,-20
1570180075532448,1,0,-1,1,1,-1,0,4
1570180075541423,-2,-3,0,-2,0,-1,1,-4
1570180075541423,4,3,2,2,1,-3,-16,16
1570180075556388,-4,-2,0,0,-1,-2,-3,-6
1570180075556388,3,-1,-1,-2,0,-1,3,6
1570180075558378,1,-1,-1,-2,-1,0,0,3
1570180075558378,-2,0,-1,-1,-1,-1,3,-7
1570180075579572,-1,-1,0,1,1,0,0,5
1570180075579572,0,-1,0,0,-1,-2,-5,-1
1570180075581317,-1,-1,-1,-1,0,1,2,1
1570180075581317,3,-1,-2,-2,-1,0,-2,3
1570180075593505,1,1,0,0,1,1,2,11
1570180075593505,-4,-2,-1,0,-1,-1,1,-9
1570180075602261,0,0,0,-1,-2,-1,-2,0
1570180075602261,-3,-2,-1,0,-2,-1,3,-5
1570180075617221,0,0,-2,-1,1,0,0,2
1570180075617221,-2,-2,0,-1,0,0,-2,-2
1570180075618220,0,1,-1,-1,-1,2,1,6
1570180075618220,0,0,0,-1,-1,-1,0,0
1570180075639167,-1,-2,1,0,-2,-1,-1,0
1570180075639167,0,1,-2,0,-1,0,1,2
1570180075641164,-1,-2,-1,0,-2,0,-1,-6
1570180075641164,2,0,0,1,1,2,6,17
1570180075653126,-1,-1,0,0,-1,-2,-1,-2
1570180075653126,-1,-1,-2,0,1,1,0,-3
1570180075662103,-3,-2,1,-1,-2,-1,-2,-4
1570180075662103,-1,-1,-1,-1,1,-1,0,-6
1570180075677067,0,-2,-1,-1,-2,0,1,3
1570180075677067,0,-1,1,0,-1,-1,-1,3
1570180075678116,-1,-1,0,-1,0,-3,0,-5
1570180075678116,-2,0,0,0,-1,-1,-1,5
1570180075699126,-4,-2,-2,-3,-2,0,9,-9
1570180075699126,1,-1,-1,-1,-2,0,0,-1
1570180075700999,-2,0,-1,1,0,0,-3,-3
1570180075700999,-1,-2,-1,-1,1,-2,-2,-1
1570180075722053,0,-1,-2,-1,-2,0,0,0
1570180075722053,-2,0,0,-2,-1,-1,-1,-2
1570180075723554,2,0,0,-1,0,0,2,2
1570180075723554,-3,-2,-1,-1,-2,2,2,-11
1570180075737334,1,0,2,0,-2,-2,-3,1
1570180075737334,2,0,0,-1,0,0,0,-2
1570180075737900,-1,0,-2,2,-1,-1,-2,2
1570180075737900,0,-1,-1,-1,1,-2,-2,-5
1570180075758846,-1,0,1,-1,0,-1,-3,-1
1570180075758846,-1,0,1,0,0,0,-3,2
1570180075760838,-2,-1,-1,-1,1,0,0,-1
1570180075760838,0,0,-1,0,-2,0,-3,-2
1570180075782022,3,1,0,-1,-1,2,2,17
1570180075782022,-2,-1,-1,2,0,-1,0,-1
1570180075783940,0,0,-2,-1,0,0,-2,0
1570180075783940,-1,-1,0,1,-1,0,0,-2
1570180075796747,0,0,0,-1,1,-2,-3,-4
1570180075796747,-2,-1,-1,-1,-1,-1,0,-1
1570180075798738,3,1,0,0,-1,-1,-3,8
1570180075798738,-2,-2,-3,-4,-1,0,3,-12
1570180075819681,-2,-2,-1,-2,0,0,-1,-3
1570180075819681,-3,1,2,0,0,-3,-5,-14
1570180075820679,-1,0,-1,2,1,-1,-7,4
1570180075820679,3,0,0,-1,-1,1,5,8
1570180075841623,-2,0,-3,0,-1,1,-2,-3
1570180075841623,-1,0,1,0,-3,0,-3,1
1570180075847816,-3,-3,-1,-3,0,0,2,-7
1570180075847816,-1,-1,-1,1,1,-2,-2,-1
1570180075857007,0,-1,-2,1,-1,-1,-1,-6
1570180075857007,0,-1,-1,-1,0,1,2,6
1570180075858576,-1,0,-2,0,-3,-1,0,-1
1570180075858576,1,0,-1,-1,-2,1,-1,1
1570180075879521,-1,-1,0,-2,0,-1,-2,-2
1570180075879521,1,0,0,-1,0,0,3,17
1570180075880516,1,-2,-1,-2,1,-2,1,-1
1570180075880516,-2,-1,-1,0,0,-2,-4,-2
1570180075901620,0,-1,-1,0,-1,0,1,4
1570180075901620,-1,-2,-2,-1,-3,-1,-1,-7
1570180075903592,-2,-1,-1,-2,0,0,2,-1
1570180075903592,0,1,-1,1,-1,-2,0,4
1570180075916431,-2,0,-1,-1,-3,-3,-1,-19
1570180075916431,3,-1,-1,-1,-2,-2,-14,8
1570180075923402,0,-2,0,1,-2,-1,-2,0
1570180075923402,0,-1,0,0,0,0,-1,-5
1570180075939388,-1,-1,1,-1,-1,-1,-2,4
1570180075939388,0,-2,-2,-1,0,0,4,-3
1570180075941356,-4,-1,-1,-1,-1,-1,0,-7
1570180075941356,-3,-1,-1,-1,-1,-2,-4,6
1570180075962560,2,-2,-1,-1,0,1,3,6
1570180075962560,0,-2,-1,0,-1,-2,3,-1
1570180075963301,1,-1,-1,0,-1,1,-1,5
1570180075963301,-4,-2,-2,-3,0,-1,0,-8
1570180075976351,0,0,-3,1,0,1,-1,-3
1570180075976351,0,0,-3,0,0,-1,2,1
1570180075983243,-1,-1,0,0,0,-2,1,-3
1570180075983243,0,-1,0,0,-1,0,-3,-3
1570180075999395,1,0,0,-1,-2,-1,0,2
1570180075999395,0,-1,0,-2,1,0,-1,-1
1570180076001195,-2,-1,1,-1,-2,-1,-5,-16
1570180076001195,-1,0,-1,0,-1,0,-1,3
1570180076022139,0,0,0,-1,-1,-2,-2,-8
1570180076022139,-3,0,-1,1,-1,0,1,-5
1570180076023137,0,0,0,-1,-2,0,1,4
1570180076023137,2,-1,1,-1,1,0,0,-1
1570180076036148,-2,-1,-1,-1,1,0,-2,-2
1570180076036148,-1,-2,-1,-2,-2,-1,8,-4
1570180076044144,3,1,-2,0,-1,-1,0,5
1570180076044144,-1,-1,-1,-1,0,0,0,0
1570180076059048,-4,-1,0,0,0,-1,-2,2
1570180076059048,2,-1,-2,-1,1,0,1,5
1570180076074009,-1,0,-1,-1,0,-2,0,2
1570180076074009,1,-1,0,0,-1,-3,1,0
1570180076082121,-1,-1,0,-1,-1,1,3,-1
1570180076082121,-2,0,0,0,1,0,-1,-5
1570180076082977,-1,-1,-1,0,0,0,-3,0
1570180076082977,0,1,-1,-1,-1,0,-1,1
1570180076095949,-1,-1,-1,0,0,-1,0,2
1570180076095949,1,1,0,-1,0,-1,-3,-13
1570180076102926,-3,-3,-1,-2,-1,-1,-5,-8
1570180076102926,-1,0,-1,-1,1,0,1,-1
1570180076119884,1,0,-2,-2,-1,0,-2,0
1570180076119884,2,1,-2,-2,0,-1,0,6
1570180076120878,0,-2,0,-2,0,0,1,-2
1570180076120878,-3,-2,-1,-1,-2,-1,0,-3
1570180076141865,0,0,-2,0,-1,1,-1,2
1570180076141865,-3,-1,-1,0,0,-2,-3,-1
1570180076143814,1,1,-1,1,-1,0,2,0
1570180076143814,2,0,0,-3,-1,0,0,3
1570180076155875,-1,-2,-2,-2,1,2,-1,3
1570180076155875,-1,-3,0,-2,-1,0,-2,-1
1570180076162763,1,-1,0,1,1,-1,1,5
1570180076162763,0,-2,-1,-2,0,-1,1,-6
1570180076179808,-2,-1,0,-1,-2,-2,10,-9
1570180076179808,-1,0,-1,-1,-1,0,0,0
1570180076180717,-3,0,0,0,-1,-1,1,-4
1570180076180717,1,-1,0,0,1,-1,0,12
1570180076202657,0,0,-1,-1,-1,-1,-2,-4
1570180076202657,0,0,0,2,0,-1,-2,-2
1570180076203655,5,0,-2,-1,-1,2,4,20
1570180076203655,-2,-1,-2,0,-1,-1,2,-8
1570180076215631,2,0,2,-1,-1,-2,-2,1
1570180076215631,-1,-1,-3,-2,-2,-1,1,0
1570180076224601,-4,-1,-4,-1,-1,0,0,-7
1570180076224601,0,-1,2,0,-1,0,-3,-2
1570180076239559,3,-2,-2,0,-1,0,-1,4
1570180076239559,0,-1,0,0,0,0,-2,-1
1570180076240616,-1,0,0,-1,0,-2,1,-2
1570180076240616,-1,1,-1,-2,-2,1,-2,-2
1570180076261506,1,-1,0,1,-2,-1,-1,-1
1570180076261506,0,-1,1,0,-1,-1,2,0
1570180076263495,-3,-1,-2,0,1,-1,5,-13
1570180076263495,0,-1,1,-2,-1,-1,-2,3
1570180076275468,-1,0,-1,0,1,-1,-2,-2
1570180076275468,-2,-1,-2,0,0,1,4,1
1570180076284440,0,-2,-1,-2,-2,0,-2,1
1570180076284440,-1,1,-1,-1,0,-3,-2,-1
1570180076299405,-1,0,-1,-1,-1,-2,1,6
1570180076299405,-3,1,0,-2,-1,-2,0,-3
1570180076301394,-3,0,1,1,-1,1,-2,-5
1570180076301394,3,-1,-1,0,-2,0,1,5
1570180076322339,-4,-1,-2,-1,-3,-4,-5,-15
1570180076322339,1,-1,-1,0,0,-1,-2,-1
1570180076323335,2,0,0,-1,1,1,-2,-1
1570180076323335,-2,-1,-2,0,-1,0,0,-1
1570180076335371,-1,-1,1,0,-1,-1,-3,-2
1570180076335371,-1,0,-2,-1,-1,-1,-2,-2
1570180076344284,0,1,-1,0,-1,-1,-3,4
1570180076344284,-2,-3,-2,-1,-1,-1,4,-6
1570180076359244,2,0,0,1,0,1,2,9
1570180076359244,-1,-1,-2,-1,0,0,-2,-3
1570180076361234,1,0,0,-2,-2,0,0,5
1570180076361234,-1,-2,-1,-1,-1,0,-2,-6
1570180076382177,-1,1,-1,0,0,1,-1,2
1570180076382177,1,0,0,0,-2,-2,-3,3
1570180076383176,-1,-1,-2,-1,0,-1,0,0
1570180076383176,-1,0,0,1,-3,-1,-3,2
1570180076395294,0,-2,0,-1,-1,-1,-1,0
1570180076395294,-5,-2,-1,-1,-1,2,12,-18
1570180076404196,0,-2,0,-2,0,-2,-6,0
1570180076404196,-1,0,-1,-1,-1,-1,0,2
1570180076419078,0,-1,0,0,0,-1,1,-1
1570180076419078,-1,0,-1,-2,-2,-1,0,1
1570180076421109,0,1,0,-1,-1,1,0,1
1570180076421109,-2,0,-1,-1,0,0,-1,-3
1570180076442132,-4,-2,-2,-4,-2,-3,-6,-19
1570180076442132,0,-1,1,1,0,0,-2,4
1570180076443020,2,1,-1,1,-1,-4,-1,5
1570180076443020,0,0,0,-1,0,-1,-3,-3
1570180076456051,1,-2,-2,-1,-1,-1,-1,5
1570180076456051,1,-1,0,-2,1,-1,-3,2
1570180076463966,-1,1,0,0,-1,0,-2,1
1570180076463966,-5,0,-1,0,0,0,0,-5
1570180076478922,1,0,-1,0,-1,0,3,9
1570180076478922,1,0,0,-1,0,1,-1,2
1570180076480913,1,0,0,-1,-2,-2,0,0
1570180076480913,-1,-1,-1,0,-2,-2,-3,-2
1570180076501858,0,0,-1,-1,0,3,1,2
1570180076501858,1,-1,-1,-1,-1,0,-1,4
1570180076503851,-2,-1,0,-1,-2,-1,-1,-5
1570180076503851,1,-1,1,-1,0,-1,0,1
1570180076515825,-3,0,-2,0,-1,-1,-1,4
1570180076515825,0,1,-1,-2,1,-2,-2,-2
1570180076524797,-1,0,-1,-1,-1,-1,-1,-2
1570180076524797,3,0,-1,1,-1,-1,-2,5
1570180076539756,-1,0,-1,0,0,-1,2,2
1570180076539756,-4,-2,0,-2,-2,-2,-3,-9
1570180076540753,5,-1,-2,0,0,1,3,18
1570180076540753,-5,-2,-3,-4,-1,1,10,-10
1570180076561703,0,-1,1,-1,0,-2,-2,-4
1570180076561703,0,1,0,0,0,-2,-2,-1
1570180076563693,-2,-1,-1,-2,-1,-1,-4,-5
1570180076563693,-1,0,0,-1,-1,-1,0,0
1570180076575668,1,2,0,1,1,0,-2,-2
1570180076575668,1,-1,-2,-1,-1,-1,-1,10
1570180076584664,0,0,-2,0,-1,1,2,-3
1570180076584664,0,0,0,0,0,0,-2,3
1570180076599639,-1,-3,0,-3,-1,-2,-4,-7
1570180076599639,-2,0,-3,2,-2,1,-1,-2
1570180076600684,1,-1,0,-1,-3,2,-1,-3
1570180076600684,0,-1,-1,0,-1,1,-3,3
1570180076629516,-5,-1,-2,-1,0,1,8,-6
1570180076629516,-2,0,-1,-1,-2,1,1,6
1570180076631514,-1,0,0,0,1,-1,-1,-10
1570180076631514,3,-1,0,-1,-1,-3,-5,8
1570180076635847,-3,-3,-1,0,-2,-3,3,-10
1570180076635847,0,-1,0,-1,0,-1,3,7
1570180076644480,1,-1,-1,-1,0,-1,1,2
1570180076644480,-1,-2,0,1,0,0,0,-4
1570180076659436,1,1,-1,1,-1,1,-3,1
1570180076659436,2,-1,-1,0,-1,0,-2,-3
1570180076661431,0,-3,0,-1,0,-1,-1,1
1570180076661431,-2,-1,0,1,0,1,0,-3
1570180076682379,2,0,0,-1,0,-2,-2,5
1570180076682379,0,0,0,0,-1,-2,-4,-3
1570180076683675,-3,-1,-1,-1,-2,-1,-1,1
1570180076683675,0,0,-3,-1,-1,-1,-2,2
1570180076704319,1,1,-2,-2,1,0,-2,1
1570180076704319,-2,-1,-1,-1,-1,-1,0,-3
1570180076706781,-5,-2,-1,-1,0,0,-3,-7
1570180076706781,-6,-6,-3,-2,-2,-1,16,-7
1570180076719275,1,0,0,0,-3,1,-1,2
1570180076719275,-4,-1,-1,-1,-2,0,1,0
1570180076721359,0,-1,-1,0,-2,0,-4,-3
1570180076721359,0,-1,-1,-2,0,0,-3,-3
1570180076742220,-2,-2,0,-1,0,-1,-1,0
1570180076742220,3,0,0,1,1,-4,-7,2
1570180076743212,0,-1,-2,0,0,0,6,2
1570180076743212,2,1,0,1,-1,2,-3,4
1570180076764160,0,-1,1,-2,0,-1,-1,2
1570180076764160,1,-1,-1,-1,0,1,-2,-3
1570180076766151,0,-2,0,1,1,-2,-2,0
1570180076766151,0,0,0,1,0,-1,-6,-5
1570180076779116,2,0,-1,2,-1,0,0,5
1570180076779116,-4,-1,-1,-1,-2,-1,0,-5
1570180076781112,6,1,1,0,0,-2,-11,20
1570180076781112,1,-1,1,0,1,-1,0,4
1570180076802055,-3,-2,-1,0,0,0,0,-5
1570180076802055,1,0,-1,-3,0,0,-1,3
1570180076803051,-6,0,-1,0,-2,-3,1,-21
1570180076803051,7,2,1,-1,-1,-1,-10,13
1570180076823999,-2,0,-1,0,-1,0,-5,-1
1570180076823999,0,-1,-1,0,-2,-1,3,-1
1570180076826060,0,2,1,0,0,0,-2,-2
1570180076826060,-1,-1,-2,0,-1,-1,3,0
1570180076838956,0,0,1,-1,-1,-1,-2,-1
1570180076838956,-1,-1,-1,-2,-1,-1,-1,-3
1570180076844943,-3,-1,-1,-3,0,0,2,-3
1570180076844943,-3,0,-1,-1,-1,1,-2,-6
1570180076861897,1,0,-2,-3,0,0,1,5
1570180076861897,-5,-2,0,1,0,0,11,-9
1570180076863892,-4,-2,-1,0,-1,1,-2,-4
1570180076863892,3,1,1,0,-1,-2,2,3
1570180076884835,2,-2,-2,0,1,-1,-2,6
1570180076884835,2,-2,-1,-2,-1,-1,-2,-8
1570180076885893,0,-1,0,0,-1,1,6,12
1570180076885893,-2,0,-1,-1,0,-1,-1,-2
1570180076906828,-1,-1,-2,0,-1,0,4,-6
1570180076906828,2,-2,1,-1,0,-2,0,6
1570180076908769,0,1,-2,0,-1,-2,0,-2
1570180076908769,3,2,2,0,1,-1,-13,6
1570180076922124,0,-1,0,0,0,0,-2,5
1570180076922124,-3,-1,-2,-2,0,0,1,-2
1570180076923732,1,-1,0,-1,-1,1,-2,2
1570180076923732,-4,-2,-2,-2,0,-1,2,-6
1570180076944674,-3,-1,0,1,-1,0,2,-2
1570180076944674,2,0,-1,0,0,-1,-3,3
1570180076945669,-3,-1,-1,0,-2,-1,1,-7
1570180076945669,-1,-1,1,0,0,-1,-1,3
1570180076959117,-1,-1,-1,1,0,0,2,-2
1570180076959117,0,-1,-1,-1,1,0,0,0
1570180076965623,0,1,0,-2,-3,-1,0,3
1570180076965623,-2,-1,-1,-1,-1,-1,4,-6
1570180076981578,-1,0,-2,-1,-2,-1,-4,-1
1570180076981578,-2,0,0,-1,-2,0,-3,-2
1570180076983570,-1,0,0,0,1,0,-1,-4
1570180076983570,-1,-1,-2,-2,-2,-1,1,2
1570180077004678,-1,0,-1,-1,-1,-3,1,0
1570180077004678,1,1,1,0,-1,0,-4,2
1570180077006511,-2,-1,-1,-1,-1,1,0,-4
1570180077006511,-2,-2,0,0,-1,0,-1,-3
1570180077018475,-1,0,1,-1,0,2,-1,-2
1570180077018475,-3,-3,-3,-2,-1,-1,2,-6
1570180077025457,1,0,-1,0,-1,-1,-3,0
1570180077025457,0,0,-1,-1,0,0,0,-2
1570180077041445,-5,-3,-1,-3,-2,0,4,-13
1570180077041445,-2,-2,2,0,0,-1,-1,-2
1570180077043408,7,1,1,-1,0,-3,-14,18
1570180077043408,-1,0,0,-1,-1,-2,-1,-2
1570180077064352,-2,0,1,-2,-1,-2,1,-2
1570180077064352,-1,0,-1,0,-1,-1,-1,1
1570180077066357,-1,-2,-3,-2,-2,0,2,-16
1570180077066357,2,-2,-3,-2,0,1,4,4
1570180077078315,-2,2,2,0,-1,0,-4,4
1570180077078315,0,0,-1,-1,-1,1,1,-1
1570180077085299,-4,-3,-1,-1,1,-1,0,-4
1570180077085299,-1,-1,-3,-3,-1,0,-2,2
1570180077102259,2,1,0,0,0,1,1,0
1570180077102259,2,0,0,-2,0,-1,-3,5
1570180077103249,-2,-1,0,-2,-1,1,4,0
1570180077103249,-4,-3,-1,-1,-2,-1,0,-7
1570180077124261,1,-1,1,-1,0,-1,-3,7
1570180077124261,0,0,-2,1,0,0,-3,-1
1570180077126189,0,0,0,0,1,-2,1,0
1570180077126189,-2,0,0,0,-1,0,-1,-5
1570180077138233,-2,-1,-1,0,0,-2,-1,-1
1570180077138233,3,1,1,1,0,-1,-15,15
1570180077146308,-1,-1,-1,-1,0,1,4,1
1570180077146308,-3,-2,0,-1,1,0,5,-4
1570180077162093,1,-1,0,1,-1,-3,-3,4
1570180077162093,-2,-1,-2,1,-1,-2,2,-4
1570180077164087,0,-3,-1,-1,-2,-1,0,-2
1570180077164087,-2,-1,-1,-1,-1,-2,-1,3
1570180077184035,3,1,-1,0,0,0,-1,1
1570180077184035,-3,1,-1,-1,-1,1,3,-1
1570180077186028,-3,1,0,0,-2,-2,-1,0
1570180077186028,1,0,-1,0,-2,-1,-2,-6
1570180077197995,-1,-2,-1,1,-1,-1,1,-2
1570180077197995,-3,-1,-1,-1,1,1,-1,-2
1570180077207246,-1,0,-1,0,1,0,-1,2
1570180077207246,2,0,0,0,0,0,-3,-1
1570180077222260,-1,-2,-1,-2,-1,0,-2,-2
1570180077222260,2,0,0,-2,-2,-1,3,2
1570180077222929,-7,-4,-2,-2,-1,-2,5,-17
1570180077222929,2,1,0,1,-2,-2,-11,9
1570180077243973,-1,0,-2,0,-1,0,0,0
1570180077243973,0,-1,-1,-2,-2,-1,2,-6
1570180077245958,-1,0,-1,1,0,-1,2,-1
1570180077245958,0,1,0,-1,1,0,1,-3
1570180077257836,-3,-1,-2,-1,1,-2,-1,0
1570180077257836,0,-2,0,0,-1,0,-1,-2
1570180077266811,0,0,0,0,-1,1,-2,-1
1570180077266811,-2,0,1,0,0,-1,0,4
1570180077289750,3,2,0,0,-1,0,-1,-1
1570180077289750,-2,-1,-1,-1,1,0,1,-5
1570180077290747,-2,-4,-2,-1,0,0,3,-3
1570180077290747,0,0,1,1,-1,-3,-1,-6
1570180077304711,-3,-2,0,0,0,-1,0,-2
1570180077304711,-2,1,2,-1,-1,0,-2,-1
1570180077305881,3,0,-2,-1,-1,0,-1,10
1570180077305881,0,-2,-2,-1,-2,0,-1,1
1570180077317681,2,0,0,-3,1,0,0,2
1570180077317681,-1,-1,-2,-1,-2,-1,2,-2
1570180077326652,0,1,0,-1,0,-2,-3,1
1570180077326652,-3,1,-2,1,1,0,2,-1
1570180077341611,0,0,-1,0,0,-1,-2,1
1570180077341611,-2,0,-2,-1,1,0,0,-2
1570180077343607,4,1,1,0,0,-1,-15,17
1570180077343607,0,0,-1,-1,-1,1,0,2
1570180077364557,0,0,0,-1,-2,-2,-5,-2
1570180077364557,0,0,0,-2,0,1,-2,1
1570180077366168,-1,0,0,0,1,2,2,-3
1570180077366168,0,-2,-1,0,0,-2,1,9
1570180077377557,-3,-2,0,1,1,-1,-1,-7
1570180077377557,0,-3,0,-1,-2,-1,2,1
1570180077387496,1,-1,0,0,-1,0,0,1
1570180077387496,-2,-1,0,-1,-1,-2,-2,-8
1570180077409480,-2,0,0,-1,-1,0,1,-11
1570180077409480,3,0,-1,-1,-1,-1,-2,6
1570180077411449,-2,-2,-1,0,0,-1,0,-9
1570180077411449,-1,-1,-1,-3,0,1,0,0
1570180077424487,6,0,1,1,-1,-3,-4,15
1570180077424487,0,-1,-1,-1,0,-2,0,-3
1570180077426561,-1,1,-1,0,-1,-2,-1,-1
1570180077426561,-2,-1,-1,0,0,0,2,0
1570180077438359,4,0,-3,1,0,-1,-11,17
1570180077438359,-2,-1,-1,0,-2,-1,-1,-2
1570180077447328,1,0,-2,-2,-1,-1,1,3
1570180077447328,1,-1,2,-2,-1,-1,-1,-2
1570180077462288,-1,0,1,1,0,1,-1,-12
1570180077462288,2,-1,1,0,0,-1,2,12
1570180077463985,-2,0,0,0,0,0,0,-2
1570180077463985,0,0,-2,0,-1,1,1,0
1570180077484433,0,-1,-2,-2,-2,0,3,-12
1570180077484433,-4,-2,-2,-1,-1,-1,-2,-10
1570180077486413,0,0,-2,-2,0,0,2,4
1570180077486413,-2,0,0,-1,0,-1,0,4
1570180077498471,-1,0,-1,-1,-1,-1,4,4
1570180077498471,0,-1,-1,-1,-1,-1,-3,-4
1570180077507215,0,-1,-1,-3,0,0,0,-3
1570180077507215,-4,-3,-4,0,-1,-2,6,-17
1570180077522292,-3,-2,-2,-3,-2,1,3,-2
1570180077522292,1,1,1,1,0,0,1,2
1570180077523281,-2,-1,0,0,-1,0,1,-1
1570180077523281,-2,0,0,0,0,-1,1,-6
1570180077544928,-3,-2,0,-1,0,0,5,-3
1570180077544928,-3,-1,-3,0,0,-2,3,-5
1570180077545926,-1,-1,0,0,-1,-1,-3,-3
1570180077545926,3,0,-1,0,-1,0,-3,5
1570180077557895,1,-1,-1,-2,0,-2,-1,-3
1570180077557895,-1,0,0,0,-2,1,1,11
1570180077574382,0,-1,-1,1,-1,0,0,2
1570180077574382,-1,-1,-1,0,1,-1,-3,0
1570180077582201,-1,0,-1,-1,0,-2,2,1
1570180077582201,-2,-1,-1,0,-1,-2,-2,-7
1570180077583196,-3,-1,1,0,0,-1,0,-5
1570180077583196,2,-1,-2,0,0,-1,-3,6
1570180077604552,-3,-1,0,-1,0,0,-2,-3
1570180077604552,-2,-2,-1,-1,-1,1,10,-10
1570180077605584,0,-2,0,0,-1,-2,0,1
1570180077605584,-3,-1,-1,-1,-1,0,-1,-4
1570180077627353,-1,-1,1,-1,-2,-2,-3,0
1570180077627353,-2,0,-1,-3,1,-1,-1,0
1570180077628349,0,0,0,-2,-2,0,-2,0
1570180077628349,-4,-3,1,-1,-1,0,6,-10
1570180077641453,-5,-1,-2,0,-1,0,7,-7
1570180077641453,2,0,-1,0,0,0,-5,-3
1570180077643380,3,1,1,-1,-2,0,0,9
1570180077643380,-1,1,0,0,1,-3,-5,2
1570180077664151,0,0,-2,0,-3,1,0,2
1570180077664151,1,0,-2,-1,0,0,-3,-13
1570180077666141,-2,0,0,2,0,-2,-1,-5
1570180077666141,2,1,-1,-1,0,-1,-1,3
1570180077687131,-1,0,1,0,0,0,-1,4
1570180077687131,-3,0,0,0,-1,-2,-4,0
1570180077688398,2,-2,-3,0,-1,1,5,6
1570180077688398,-1,0,-1,-1,0,1,-1,3
1570180077702337,-1,-1,1,0,-3,-2,-3,-6
1570180077702337,1,-1,1,0,0,1,-3,5
1570180077703331,-2,0,-1,-1,-2,-2,1,-4
1570180077703331,0,0,-2,1,-1,0,-1,1
1570180077723930,-2,0,0,-1,0,-1,0,-2
1570180077723930,1,-2,-1,-2,0,0,3,-1
1570180077725926,-1,-1,0,0,1,-2,-4,-4
1570180077725926,1,0,0,1,-2,0,-1,1
1570180077746912,0,0,-1,-2,-1,-1,-2,2
1570180077746912,0,0,1,0,0,-3,-2,3
1570180077747908,-2,1,1,-2,0,0,-2,-1
1570180077747908,4,-2,-1,-2,0,-3,-3,7
1570180077761875,-3,-3,-2,1,1,-2,-1,-2
1570180077761875,-3,-1,-1,-1,-1,-1,0,-1
1570180077767861,4,0,-1,-1,0,0,0,12
1570180077767861,-3,-1,0,0,0,-1,0,-11
1570180077784381,-2,-3,0,-1,-1,0,-2,3
1570180077784381,4,3,0,-2,0,-1,-2,0
1570180077786371,-4,-1,-1,1,-2,-1,0,-4
1570180077786371,1,4,3,-1,0,-1,0,0
1570180077807316,6,1,0,-2,-1,-1,0,2
1570180077807316,-2,0,-2,-3,0,1,1,0
1570180077808313,-8,-7,-3,-2,-1,0,0,-8
1570180077808313,3,5,5,5,0,0,-2,3
1570180077821280,13,18,3,-3,0,0,0,4
1570180077821280,-8,15,-13,-4,-3,-3,-3,-2
1570180077828259,-3,-20,2,-3,0,1,2,4
1570180077828259,16,-14,-15,0,2,0,-1,-2
1570180077843218,-1,-16,-2,2,-2,1,0,4
1570180077843218,-11,2,0,7,4,2,4,10
1570180077852197,16,13,4,-3,1,-1,0,-3
1570180077852197,-34,-10,-4,0,1,1,0,0
1570180077867155,14,26,8,0,0,0,2,2
1570180077867155,9,-10,3,1,1,0,0,6
1570180077868152,22,3,-4,1,-3,0,1,1
1570180077868152,-11,-10,0,1,2,-1,1,-1
1570180077880119,-11,-7,-11,-6,0,-1,-2,-1
1570180077880119,10,3,2,-2,-4,-1,-1,-4
1570180077890094,-7,18,7,0,0,-1,0,-1
1570180077890094,-33,-36,-15,-11,-6,0,-4,-5
1570180077904054,1,2,3,0,2,-1,-3,-3
1570180077904054,2,14,13,8,6,1,0,-3
1570180077906082,-12,-9,-12,-7,-5,-1,-2,-3
1570180077906082,50,22,5,-2,-5,-4,-2,4
1570180077927163,-20,-15,-2,0,-1,-1,0,-5
1570180077927163,-15,-26,-4,-6,-5,-1,-2,-2
1570180077928002,0,-17,3,0,-3,-3,-2,-7
1570180077928002,-16,10,-4,-1,3,0,1,-4
1570180077939959,12,33,12,5,-2,-1,-1,2
1570180077939959,15,-7,17,6,-3,-1,-3,-4
1570180077948986,-25,-38,-21,1,2,-1,-2,-7
1570180077948986,6,6,18,0,0,1,1,1
1570180077963894,-1,-13,-21,-7,0,-2,-3,-3
1570180077963894,3,20,-7,-9,1,1,1,4
1570180077965890,-2,7,4,1,-2,0,1,-1
1570180077965890,6,1,13,9,1,-3,-1,0
1570180077986832,3,8,-5,-5,-2,1,1,-1
1570180077986832,-9,-9,-4,-4,-6,-2,-6,-3
1570180077988830,-6,2,-4,0,-1,-1,-5,-2
1570180077988830,11,11,3,5,1,-1,-1,2
1570180078010113,0,-5,-4,-3,-3,-2,-2,-1
1570180078010113,-4,-13,-13,-7,-5,-2,-1,0
1570180078010769,0,10,-8,-4,4,0,-1,-1
1570180078010769,0,0,3,-1,0,-2,-1,1
1570180078023856,-6,-9,-4,-3,-1,0,1,1
1570180078023856,-1,11,13,6,1,-3,0,0
1570180078025730,4,-11,3,-2,1,-1,1,4
1570180078025730,-4,12,-3,0,-17,-1,-2,-3
1570180078046698,-7,-10,14,18,15,0,1,-2
1570180078046698,9,4,3,-4,-7,2,3,5
1570180078048693,-7,0,7,7,4,1,-3,-2
1570180078048693,-11,-18,-26,-11,-4,3,2,-2
1570180078060813,4,-5,-8,0,22,1,1,1
1570180078060813,3,5,5,6,3,-1,1,0
1570180078069636,-9,6,-5,-4,16,0,-2,-2
1570180078069636,19,-4,9,2,-8,-1,-1,4
1570180078084597,-9,-10,-9,-4,0,0,0,1
1570180078084597,-1,-6,-9,-4,-18,-5,1,3
1570180078085802,21,24,16,9,13,3,3,6
1570180078085802,-14,-17,-11,-10,-11,-2,-5,-9
1570180078106639,-5,0,3,1,-17,-3,-1,1
1570180078106639,-6,-7,14,15,19,6,0,-2
1570180078108536,-3,-8,-6,-7,11,-1,2,4
1570180078108536,7,12,-12,-11,-12,-1,1,2
1570180078120612,-8,-15,-1,1,1,-3,-10,-17
1570180078120612,-20,-7,-4,-7,2,0,-1,-3
1570180078129477,24,24,1,-1,-31,-5,-1,11
1570180078129477,2,10,9,5,18,2,2,4
1570180078144436,-3,-7,0,-8,-19,0,3,6
1570180078144436,4,1,-11,-4,-4,0,3,13
1570180078146474,5,14,2,7,9,-1,-5,-5
1570180078146474,-12,-22,-11,-16,-13,-2,-3,-12
1570180078166380,-5,2,14,10,2,0,-1,-3
1570180078166380,18,-4,-7,3,10,-1,1,12
1570180078168381,-13,-11,-6,-5,-3,0,3,-8
1570180078168381,5,15,13,7,-6,-1,0,6
1570180078180938,-8,-5,-15,-3,14,1,1,4
1570180078180938,-6,0,-5,-7,0,2,-2,-14
1570180078189317,-23,-19,1,-8,-33,-4,-1,-4
1570180078189317,15,10,7,8,11,-1,-2,-1
1570180078205281,15,7,5,4,24,3,5,19
1570180078205281,-3,-6,-2,1,-5,-4,-5,-7
1570180078206274,-7,6,8,7,-4,1,-5,-15
1570180078206274,-22,-16,-8,-10,-14,2,4,-4
1570180078227223,20,2,-13,-5,-4,-5,-5,-11
1570180078227223,-1,6,10,2,-7,0,2,10
1570180078228216,6,-3,-13,-12,-2,-7,-3,-2
1570180078228216,-15,-10,-10,0,1,0,1,0
1570180078240194,3,10,12,0,-2,1,-1,-2
1570180078240194,-4,4,-5,-5,3,-1,-5,-20
1570180078250156,-7,2,8,10,-3,0,-1,-3
1570180078250156,11,12,-3,-7,3,-4,-5,-6
1570180078264345,-10,-28,-5,-8,-26,1,3,2
1570180078264345,0,6,11,9,22,1,-6,-6
1570180078266113,-2,-7,-7,6,18,1,-3,-9
1570180078266113,5,4,1,7,10,1,3,3
1570180078287076,3,6,8,-2,-14,-2,-4,-26
1570180078287076,-6,-12,-5,0,2,-2,1,-19
1570180078293137,9,4,-3,-6,-9,1,-3,-17
1570180078293137,6,11,8,10,19,0,-3,7
1570180078300024,-19,-4,0,-4,-14,-3,-4,-1
1570180078300024,-10,-3,-6,-2,-4,1,1,3
1570180078309997,39,6,-8,-8,2,-1,3,22
1570180078309997,-15,-10,-3,-9,-18,-2,0,0
1570180078323966,0,11,10,17,24,2,-1,6
1570180078323966,0,-8,-4,-10,-19,-2,-3,1
1570180078325956,-5,-4,-4,-2,3,1,2,3
1570180078325956,11,0,-1,12,8,0,-2,-11
1570180078346898,0,5,8,-11,-11,-1,1,-13
1570180078346898,1,-1,-7,-6,-10,-1,0,-34
1570180078348892,-1,4,8,20,40,7,9,-16
1570180078348892,12,6,3,-6,-11,-3,-3,-28
1570180078360894,-5,-3,-7,9,14,0,0,3
1570180078360894,7,4,-5,-3,1,2,-3,-27
1570180078369836,7,8,8,-8,-14,-3,4,-25
1570180078369836,-16,-12,8,11,12,3,6,-33
1570180078383992,9,-4,-14,-15,-8,-1,2,-9
1570180078383992,-7,-8,-3,-12,-7,-6,-2,-25
1570180078390867,-1,-4,-16,0,-1,-1,-1,-63
1570180078390867,17,27,12,5,9,0,-2,-12
1570180078406738,-26,-41,-3,1,-7,0,-4,-12
1570180078406738,4,7,0,-6,-8,0,-1,59
1570180078408733,-9,-10,3,-1,-5,-2,-5,56
1570180078408733,0,2,-6,-10,-6,-3,-3,44
1570180078420998,0,12,-1,1,3,1,2,58
1570180078420998,-3,-1,-1,-1,-4,-3,-2,40
1570180078429676,-1,-3,-1,2,3,1,3,47
1570180078429676,-20,-20,-11,-10,-23,-1,0,20
1570180078443643,27,34,5,10,15,-3,-7,14
1570180078443643,-1,-12,1,-7,-8,1,5,19
1570180078457602,-7,-7,-1,6,11,-2,-5,-2
1570180078457602,0,-4,-4,-11,-3,-1,0,15
1570180078466577,-4,-11,-13,-1,-4,2,4,25
1570180078466577,24,19,12,6,-9,-1,1,22
1570180078468578,-27,-15,-5,-3,2,1,-6,8
1570180078468578,-8,-3,-1,2,6,0,0,0
1570180078480544,13,5,0,-5,-4,1,-2,7
1570180078480544,-1,-4,-2,-2,-3,-4,-5,9
1570180078489518,12,15,5,-3,-4,-1,2,17
1570180078489518,-6,-7,-5,-6,3,0,1,4
1570180078503480,4,12,1,0,-6,-4,-1,8
1570180078503480,5,3,6,12,24,4,6,19
1570180078510461,-20,-20,-7,-21,-35,-4,6,0
1570180078510461,12,10,7,18,26,2,9,35
1570180078526543,-10,-4,0,9,4,1,5,-2
1570180078526543,10,7,0,6,6,-3,3,13
1570180078528413,0,7,8,-4,-5,-1,4,7
1570180078528413,-11,1,2,-2,-8,0,3,-4
1570180078540413,-3,-9,-4,-9,-9,-1,-1,-10
1570180078540413,6,7,6,2,2,-4,-7,-13
1570180078549357,8,2,-3,13,17,0,-8,3
1570180078549357,3,-3,-15,0,-5,0,-4,-5
1570180078572296,-23,4,22,-3,-7,-4,-5,-12
1570180078572296,-29,-17,-16,-9,-7,-1,4,-9
1570180078573292,5,19,24,12,6,3,2,-5
1570180078573292,-12,-9,-7,-3,-6,-5,-8,-8
1570180078594235,14,2,-13,-5,2,2,4,15
1570180078594235,-4,-3,-8,-31,-21,-4,-6,-3
1570180078596234,-2,3,7,32,8,4,-2,5
1570180078596234,1,0,2,3,3,-2,-13,-18
1570180078609200,2,-2,0,0,-1,0,-1,4
1570180078609200,-4,-3,-2,-3,0,-1,-5,-18
1570180078611196,4,-5,-15,-18,-10,-3,6,26
1570180078611196,-1,0,1,-6,-7,-3,-4,-59
1570180078624156,8,4,-7,-4,-8,-3,-13,9
1570180078624156,-6,12,21,14,10,4,1,6
1570180078631136,8,7,-12,-9,-6,-1,3,13
1570180078631136,-5,3,16,2,-3,3,20,4
1570180078647095,-12,-16,-5,-2,1,1,-1,1
1570180078647095,8,-7,-31,4,7,0,1,20
1570180078648091,-7,9,40,4,-4,-1,-8,-19
1570180078648091,-1,5,-5,-5,-2,-1,2,15
1570180078669209,12,5,-5,1,2,-1,2,-1
1570180078669209,-9,-10,0,4,3,1,5,9
1570180078671362,2,-10,-12,-10,-7,-4,3,5
1570180078671362,0,6,-8,1,4,0,-6,27
1570180078683995,-5,-5,14,3,0,-2,-1,-5
1570180078683995,10,-1,-6,5,3,2,-9,-25
1570180078689979,11,29,-12,-10,-7,-4,-4,1
1570180078689979,-18,-31,19,7,6,2,1,-4
1570180078707026,-7,-8,-15,-3,-5,-1,-1,11
1570180078707026,2,10,19,9,5,2,-1,-4
1570180078707931,-3,-10,-9,-4,-2,-3,-8,-19
1570180078707931,34,16,-8,-4,-3,-2,-3,14
1570180078729876,-15,-8,-3,-2,-2,2,13,10
1570180078729876,-10,1,7,6,4,1,2,-17
1570180078730872,4,-12,-3,1,1,0,-6,-29
1570180078730872,19,4,-2,1,-1,-3,-7,-7
1570180078742845,-12,-1,3,-4,0,-2,0,-2
1570180078742845,-9,-2,-3,1,2,1,-5,-2
1570180078759951,-3,-21,-18,-15,-10,-8,-14,2
1570180078759951,-5,-5,-5,0,0,2,1,0
1570180078766775,7,14,4,5,3,2,-5,6
1570180078766775,13,-10,-11,-6,-6,-1,4,29
1570180078768769,-22,-1,6,1,3,1,-14,-4
1570180078768769,18,-1,-6,0,-2,-1,-3,8
1570180078789744,-2,2,-3,-6,-1,-4,-7,1
1570180078789744,2,5,0,3,2,-2,-3,-7
1570180078790712,0,-11,5,-3,-14,2,9,23
1570180078790712,17,14,6,4,2,1,0,-12
1570180078802684,-18,-5,-2,0,4,-2,-5,-15
1570180078802684,-6,-15,-11,-9,-4,-1,4,-4
1570180078811656,-6,7,21,15,15,6,10,-10
1570180078811656,-16,-10,-18,-11,-6,-8,-5,28
1570180078826625,3,-4,2,1,-3,-5,2,-22
1570180078826625,22,7,-3,-10,-16,-4,0,17
1570180078828611,-68,-16,-7,-3,3,2,6,5
1570180078828611,-52,-7,13,8,5,5,2,-21
1570180078849561,22,-5,0,1,0,2,7,20
1570180078849561,48,28,-1,1,5,-1,5,3
1570180078851554,13,-7,-8,-10,-15,-6,-6,9
1570180078851554,18,7,-7,-16,-14,-6,-5,16
1570180078862522,-24,-14,-3,18,22,2,0,-32
1570180078862522,-30,-3,13,0,-12,3,12,20
1570180078872548,29,10,-6,-3,2,1,8,-28
1570180078872548,49,29,1,17,23,0,-2,-12
1570180078886454,-71,-49,-1,-9,-16,-1,1,-9
1570180078886454,55,12,-3,4,9,1,-3,0
1570180078888862,-23,-5,0,-7,-12,1,1,11
1570180078888862,-18,-18,-18,-18,-16,-5,-13,-47
1570180078909503,51,29,7,13,14,3,19,1
1570180078909503,-31,-8,6,8,9,5,5,-16
1570180078911390,25,4,-1,-2,1,0,-7,23
1570180078911390,7,-5,4,1,3,7,6,42
1570180078923501,-11,-3,-4,-8,-11,-6,-7,-6
1570180078923501,-9,-2,-6,-13,-6,-5,-6,14
1570180078932337,3,-3,-6,7,4,-1,7,15
1570180078932337,13,28,19,10,1,4,12,47
1570180078947293,107,22,1,3,12,1,-6,36
1570180078947293,-29,-42,-1,-3,-14,-4,-12,27
1570180078948292,111,18,-12,-9,-12,-9,-14,-51
1570180078948292,-66,-32,-11,-10,-5,-8,-6,-25
1570180078970029,13,19,5,2,-1,5,1,19
1570180078970029,19,27,6,7,14,0,9,27
1570180078971241,-94,-40,-1,7,5,1,0,-12
1570180078971241,-16,-7,-5,-9,-12,-1,2,-6
1570180078983202,-5,9,1,-2,-7,1,-2,19
1570180078983202,41,-8,-7,-5,-9,-3,-12,-10
1570180078992172,-52,1,-4,-6,-6,-3,-6,0
1570180078992172,-4,-7,11,9,0,5,-1,5
1570180079007277,-38,-24,-10,-17,-20,-9,-2,-15
1570180079007277,-39,-10,-7,3,16,3,3,-11
1570180079008129,88,34,9,13,7,-4,-3,-21
1570180079008129,-30,-7,4,8,13,0,7,8
1570180079029255,-3,6,5,-2,-3,3,4,-3
1570180079029255,18,7,-4,-6,-10,-1,1,-14
1570180079031067,63,22,11,0,6,5,-2,27
1570180079031067,8,-29,-18,-11,-5,-9,-11,-2
1570180079043041,8,16,9,-5,-35,-1,-6,-11
1570180079043041,-28,-14,-9,6,47,0,-3,-37
1570180079053282,20,10,7,6,6,11,11,8
1570180079053282,-8,-19,3,2,2,0,10,-15
1570180079066972,10,20,-17,-7,-9,-3,-10,23
1570180079066972,32,19,8,-4,-17,1,8,16
1570180079068707,-43,-30,-11,-7,5,-5,6,-22
1570180079068707,18,14,-6,-9,-14,-2,3,20
1570180079088947,-97,-15,24,14,15,7,5,-1
1570180079088947,-15,-6,-2,3,-8,-6,-3,16
1570180079091030,33,27,10,3,3,1,4,65
1570180079091030,53,9,-4,-10,-30,2,-1,51
1570180079103223,-18,-15,-22,-7,9,-10,-3,8
1570180079103223,-11,5,6,7,17,0,-12,-16
1570180079111855,-10,-4,3,-2,-16,2,-4,106
1570180079111855,16,3,-5,-7,8,-6,-18,112
1570180079126817,28,8,6,7,0,-4,-6,66
1570180079126817,39,15,14,1,-1,6,11,58
1570180079128807,5,-3,-8,-4,-1,-3,1,-36
1570180079128807,-33,-19,-3,-6,-20,-1,3,-40
1570180079149750,15,16,-5,-2,-8,-2,1,-60
1570180079149750,-25,-23,-7,-2,-3,-4,-4,-94
1570180079150748,-7,1,0,-1,2,-1,-11,-30
1570180079150748,6,9,-1,5,8,4,7,-84
1570180079162718,15,-7,4,-1,4,2,3,-64
1570180079162718,4,8,3,-1,-17,-2,3,-44
1570180079171748,-45,-24,-5,-1,-4,-2,14,-94
1570180079171748,-78,-26,6,0,11,-1,-2,-49
1570180079187322,64,40,4,4,13,2,-8,-12
1570180079187322,-20,-10,-1,0,-11,0,18,-8
1570180079188648,1,-18,-3,-4,-19,-3,-9,17
1570180079188648,33,20,9,8,7,-1,-7,-39
1570180079209590,17,9,1,8,34,9,9,-11
1570180079209590,-34,-9,-6,-11,-23,0,-2,12
1570180079210589,10,6,-6,2,34,-2,1,11
1570180079210589,19,19,11,9,-12,3,2,10
1570180079223553,-6,-13,1,5,-7,-6,-4,13
1570180079223553,-10,-11,-6,-5,3,-4,-8,3
1570180079231537,13,-1,4,5,-3,9,3,21
1570180079231537,38,15,-12,-7,7,-5,-5,16
1570180079247137,15,-11,-9,-11,-20,-5,-4,-27
1570180079247137,13,3,-8,-4,-7,-2,-2,17
1570180079248487,-67,-33,-2,-3,0,-1,2,-23
1570180079248487,8,7,3,4,1,0,2,-4
1570180079269433,4,-15,-15,-13,-2,-8,2,17
1570180079269433,32,23,9,7,11,3,-7,-29
1570180079271425,-45,-13,-5,-2,5,-3,3,-61
1570180079271425,59,31,17,11,-20,-2,-15,14
1570180079283393,-15,-14,-4,-12,13,0,-5,35
1570180079283393,-10,-7,-2,2,-3,0,-5,-5
1570180079292369,-3,7,-3,-4,1,-1,-1,14
1570180079292369,-17,-7,-1,5,14,4,3,9
1570180079306335,35,18,8,2,-18,-1,2,-3
1570180079306335,-12,-8,-7,-1,11,-3,-6,-23
1570180079314310,31,37,-2,-1,0,2,5,9
1570180079314310,-71,-56,5,9,8,-3,-1,-24
1570180079328572,14,-3,-2,-2,-6,7,6,36
1570180079328572,-14,0,1,1,11,-4,-9,-13
1570180079329271,11,-1,-3,-5,-13,-2,-3,7
1570180079329271,-9,-1,-5,-2,11,2,4,8
1570180079351246,-22,-8,-4,-4,-6,-2,2,-22
1570180079351246,0,-4,-2,-5,1,0,1,32
1570180079352209,4,8,5,3,15,-1,-4,3
1570180079352209,10,4,-6,-9,-5,-1,0,-7
1570180079366258,-12,0,6,6,1,2,1,-10
1570180079366258,-17,-15,2,3,-6,1,1,3
1570180079367170,41,16,-14,-11,-10,-3,3,10
1570180079367170,47,25,-2,-1,8,-2,-2,-1
1570180079389112,-21,-8,0,2,0,1,1,-12
1570180079389112,-4,-2,0,0,-1,0,0,4
1570180079389112,-10,-13,4,1,-2,1,9,2
1570180079389112,3,0,0,2,3,2,5,21
1570180079411085,-20,-9,-7,-7,-5,-8,-9,-56
1570180079411085,10,7,-1,-1,-2,-1,-2,-22
1570180079412424,-1,-7,-5,-1,-2,1,-3,14
1570180079412424,5,9,4,1,4,1,-1,7
1570180079426017,-8,-3,2,2,1,-1,-1,-3
1570180079426017,-3,0,0,0,-3,-1,2,9
1570180079427009,-15,10,5,2,-4,-3,-9,-12
1570180079427009,-4,-15,-7,-5,-1,-3,-1,-22
1570180079448958,-16,-12,1,0,3,0,-1,-2
1570180079448958,7,3,-3,0,-2,-1,-2,6
1570180079448958,10,0,-1,1,0,1,-3,4
1570180079448958,-7,1,1,-2,-1,-2,1,-3
1570180079470902,4,0,0,0,2,1,-1,6
1570180079470902,-6,-4,-1,1,-1,1,7,6
1570180079471958,18,11,1,-1,2,-3,-10,8
1570180079471958,-12,-10,-3,0,2,1,3,26
1570180079485852,1,3,4,2,4,3,-4,23
1570180079485852,14,22,1,-3,-3,-3,-5,51
1570180079493869,-1,-10,-1,-3,-3,-2,3,50
1570180079493869,-2,-2,0,-1,1,0,-1,51
1570180079508797,-5,2,0,1,0,-1,-2,102
1570180079508797,8,3,3,-2,-8,1,4,78
1570180079509788,-18,-9,1,3,5,1,-4,49
1570180079509788,6,2,-2,-1,-5,3,16,124
1570180079530731,1,1,-1,-2,-2,-4,-4,38
1570180079530731,-7,3,3,0,-3,1,0,1
1570180079531735,27,-8,-5,-3,-2,0,-1,-47
1570180079531735,-22,-5,0,-2,-7,-1,-4,-61
1570180079545692,3,-3,0,4,26,1,2,0
1570180079545692,9,-2,-5,-5,-26,-11,-5,26
1570180079553670,4,7,4,-3,0,12,3,56
1570180079553670,3,1,-2,-2,1,-1,2,100
1570180079568842,26,-2,-3,0,-15,-12,-1,40
1570180079568842,-2,-2,0,7,14,4,-1,-32
1570180079569628,2,0,1,6,6,-1,1,-69
1570180079569628,-32,-5,-1,1,-3,-2,-11,-102
1570180079591569,9,-1,-5,-6,-5,2,6,-84
1570180079591569,-1,-4,-5,-5,5,3,-3,-77
1570180079591777,7,-6,3,4,-4,0,5,-62
1570180079591777,0,8,-1,-2,-1,-6,-12,-59
1570180079605597,-37,-8,4,2,-4,-11,-3,-51
1570180079605597,-3,-6,-4,-4,0,6,4,-46
1570180079613717,21,25,-3,2,1,-1,5,-15
1570180079613717,-1,-3,3,-1,2,-7,-13,-26
1570180079628470,-43,-13,-3,-3,-4,3,0,-26
1570180079628470,6,-2,0,0,-4,-4,1,-12
1570180079629469,-13,-14,2,0,2,-3,-11,-4
1570180079629469,30,14,7,6,4,6,8,-39
1570180079651409,17,8,-4,-4,-2,3,2,-54
1570180079651409,7,-9,-3,-6,2,0,-1,-22
1570180079652407,-32,-11,-10,-5,-9,-5,-5,-50
1570180079652407,14,-3,0,2,4,1,0,-71
1570180079665775,7,18,7,2,1,4,-1,-30
1570180079665775,28,-2,-3,-3,5,3,15,20
1570180079673352,-12,7,18,6,3,-2,-11,-41
1570180079673352,-8,-3,-9,-5,-1,-1,-4,4
1570180079688313,11,1,-9,-10,-10,1,1,-3
1570180079688313,4,7,3,1,1,-4,-8,-15
1570180079689366,-33,-4,-2,1,1,0,11,24
1570180079689366,9,11,4,5,4,1,0,0
1570180079711248,1,-20,-7,0,4,4,1,7
1570180079711248,-10,1,-4,-3,-2,-7,-7,-18
1570180079712246,-19,-6,2,1,1,3,0,-4
1570180079712246,-16,-13,0,-1,-2,1,2,3
1570180079726213,-6,6,-9,-8,-4,-4,-9,-54
1570180079726213,-20,-2,3,5,5,2,5,-40
1570180079734188,1,0,-3,-4,-4,-5,-9,11
1570180079734188,-25,-3,3,0,0,-1,-3,-36
1570180079748211,20,5,-2,0,-1,-1,2,19
1570180079748211,-12,-1,1,5,2,5,4,-12
1570180079749437,25,6,-2,-2,-3,1,8,36
1570180079749437,-12,-7,-5,-3,-1,3,3,-22
1570180079771121,4,-3,5,-1,0,3,4,32
1570180079771121,-9,0,-3,-2,1,0,-9,6
1570180079772088,33,13,0,3,0,1,10,45
1570180079772088,10,-7,-6,-3,-3,-3,-6,22
1570180079786101,-9,-1,6,6,3,3,3,18
1570180079786101,0,-6,-1,2,-2,0,7,41
1570180079794030,31,10,0,-4,-2,-1,1,28
1570180079794030,7,3,0,-1,-2,2,12,12
1570180079808990,-27,1,2,1,2,0,-12,-82
1570180079808990,-6,-1,2,0,0,1,13,0
1570180079808990,-1,-10,-4,-1,-1,3,1,-12
1570180079808990,32,10,3,0,1,-1,-5,30
1570180079830935,6,7,5,2,0,1,2,-1
1570180079830935,-15,-3,-1,-1,-3,1,-2,-34
1570180079831926,0,-1,2,-2,-2,-3,-5,29
1570180079831926,-8,-5,-8,-5,1,-8,-1,3
1570180079846887,-8,-7,-2,-2,-3,1,6,6
1570180079846887,16,0,0,-1,-3,-8,-9,25
1570180079853869,-7,-3,-3,0,1,-3,-3,69
1570180079853869,-17,-9,-5,-1,-1,-21,-8,67
1570180079868827,4,-1,3,2,7,26,-5,-20
1570180079868827,-2,-3,-4,-6,-9,-15,-10,-70
1570180079869825,-18,-10,-5,-5,-2,3,-4,-113
1570180079869825,3,2,3,0,-1,2,7,-71
1570180079890768,-4,5,1,2,-1,-4,-3,-67
1570180079890768,-2,2,0,1,0,2,-10,-13
1570180079891841,-6,-4,-1,2,-2,0,-1,-22
1570180079891841,1,0,-1,-1,0,2,-5,0
1570180079905730,10,-2,-2,-1,-2,-5,4,57
1570180079905730,-12,-4,-2,1,2,4,-4,15
1570180079913707,-12,-4,-2,-2,-3,-7,-2,-27
1570180079913707,20,5,1,-1,1,10,5,100
1570180079928669,0,-1,0,2,-2,-7,0,58
1570180079928669,3,4,3,2,0,-3,3,57
1570180079929665,-9,-1,0,-1,1,1,-6,5
1570180079929665,-8,2,0,0,-1,3,2,-21
1570180079950816,-3,-1,-2,-1,-1,-2,4,-1
1570180079950816,12,2,1,0,0,-2,-2,15
1570180079958974,9,-1,-4,-3,-2,0,1,20
1570180079958974,-1,3,2,1,1,4,-1,-25
1570180079965569,18,2,2,2,-2,-7,4,11
1570180079965569,-9,2,-1,-1,-1,2,3,-25
1570180079973589,-16,-3,-1,-3,0,-1,2,-16
1570180079973589,-8,-1,-2,0,-2,1,5,-18
1570180079988584,4,-1,-3,-2,0,-1,0,8
1570180079988584,16,0,-1,-1,0,-4,-17,-2
1570180079989510,4,0,2,1,0,-3,1,-3
1570180079989510,25,3,2,0,0,-1,-5,52
1570180080011493,-7,-2,0,1,-1,-1,7,3
1570180080011493,-10,2,0,0,2,3,0,-6
1570180080011493,-1,-3,-6,-4,-5,-4,-8,-6
1570180080011493,-6,-2,-3,-1,-1,3,6,-9
1570180080025765,2,-1,-1,-2,-1,-1,-4,8
1570180080025765,-2,-1,1,0,-1,0,2,9
1570180080033466,7,-4,-2,-2,-2,-2,1,-9
1570180080033466,-7,0,-2,-2,-4,-2,-4,-16
1570180080048348,-6,-1,-1,-2,-2,-3,-5,-13
1570180080048348,2,1,-1,-1,0,-1,-1,14
1570180080049430,-4,-1,0,0,0,-1,5,0
1570180080049430,-1,-2,0,-2,-2,-1,-2,-8
1570180080071286,3,0,0,1,0,-1,-3,13
1570180080071286,0,-2,-2,-1,-1,1,6,4
1570180080072283,-6,0,1,-1,1,-1,-9,-5
1570180080072283,-5,-1,-1,1,-2,6,5,-4
1570180080085248,-7,1,2,-2,2,-4,-3,-15
1570180080085248,-6,0,0,1,2,-1,0,-11
1570180080093259,3,1,2,2,1,1,6,5
1570180080093259,-2,-1,-1,0,2,16,6,-1
1570180080108186,-1,-1,1,-1,-1,4,23,1
1570180080108186,17,0,-2,0,-2,-13,-46,9
1570180080109506,0,1,-1,0,11,46,14,23
1570180080109506,5,0,1,2,5,-13,-20,8
1570180080131194,-7,-5,-4,-3,-11,-9,-2,-1
1570180080131194,-24,-11,-6,-6,-13,-9,-6,-50
1570180080132122,-13,-3,-3,7,46,32,-8,-10
1570180080132122,3,4,4,8,21,9,30,7
1570180080145090,0,-3,-6,-5,-12,10,6,5
1570180080145090,3,5,2,5,9,1,21,26
1570180080154066,-13,-5,-6,-14,-86,-34,-70,-29
1570180080154066,-10,-7,-8,-6,63,30,27,-21
1570180080169024,5,6,8,6,20,2,-14,0
1570180080169024,-2,-4,-4,-20,-89,-77,-11,-5
1570180080169024,7,1,1,1,32,5,11,10
1570180080169024,-1,1,1,3,-5,1,-13,-1
1570180080190967,2,-1,-1,3,13,9,-7,16
1570180080190967,0,3,1,5,24,20,38,-4
1570180080191963,10,4,2,3,-9,-3,-13,0
1570180080191963,-11,-4,-1,-1,-10,-4,13,12
1570180080204928,-18,1,1,3,3,-10,-31,-40
1570180080204928,35,5,1,1,7,13,6,39
1570180080214086,-35,-6,-3,-2,1,-3,2,-53
1570180080214086,4,3,1,3,-8,-4,5,-14
1570180080227874,-1,1,0,-2,-11,-13,5,-3
1570180080227874,-7,-1,0,3,10,14,-8,0
1570180080235849,14,4,2,3,21,-1,13,14
1570180080235849,3,1,0,-2,-17,-8,-14,7
1570180080250807,-1,-2,-2,0,-10,0,3,11
1570180080250807,-6,-3,-3,0,18,4,-7,-5
1570180080251807,7,2,-1,0,-4,-16,12,20
1570180080251807,-17,-3,-1,0,-11,-9,-10,-36
1570180080265918,8,0,1,-1,-12,-6,-2,17
1570180080265918,-2,0,1,1,14,12,11,2
1570180080273746,10,1,1,-1,-2,-6,7,-4
1570180080273746,1,0,-1,-4,-18,-11,-11,8
1570180080288931,-3,-2,-1,-1,10,7,0,-10
1570180080288931,1,2,-1,-1,5,9,1,-3
1570180080289703,3,0,-1,-2,-10,-9,3,7
1570180080289703,1,-2,-1,-2,-9,-6,-11,-5
1570180080311643,4,-2,-2,-2,4,1,12,13
1570180080311643,0,1,2,2,6,3,-10,20
1570180080311643,0,1,1,0,-8,-9,-11,3
1570180080311643,-1,0,-1,-1,1,10,5,-4
1570180080325611,0,-1,-1,-2,-1,-5,4,0
1570180080325611,-6,-2,-1,-1,-3,3,0,-16
1570180080333592,1,-3,-3,-2,3,2,10,6
1570180080333592,4,0,0,-2,-4,-5,-5,12
1570180080348548,-2,1,0,-3,-1,1,-3,-3
1570180080348548,-2,0,-1,-1,-2,0,3,-5
1570180080349543,-1,0,1,0,6,2,7,-2
1570180080349543,-4,-2,-1,-3,-1,-6,-3,-5
1570180080371485,6,-2,-2,0,-4,-3,0,16
1570180080371485,-3,0,0,2,4,4,5,-6
1570180080371643,-2,-1,-1,-3,-3,-3,-3,3
1570180080371643,1,0,-1,-1,-7,-3,-3,-5
1570180080385737,-1,1,1,-2,1,2,-1,-7
1570180080385737,-10,0,2,1,0,3,-1,-7
1570180080393426,-1,-1,-1,-1,-4,-7,0,-5
1570180080393426,2,0,0,-1,-2,-7,-1,7
1570180080408769,-2,-2,-1,-2,2,0,-3,-2
1570180080408769,-4,1,0,-1,0,1,6,-1
1570180080409382,-2,0,0,0,-3,-3,11,2
1570180080409382,1,0,-1,-1,-1,-6,-19,-7
1570180080431339,-1,0,-1,-2,1,0,0,-8
1570180080431339,2,-2,-2,0,-1,0,-3,5
1570180080432323,1,0,-2,0,0,0,0,1
1570180080432323,-1,-2,-2,-2,0,2,7,3
1570180080454274,11,3,3,2,-2,-2,-14,17
1570180080454274,1,-1,-1,-3,-1,-1,-1,6
1570180080455311,0,1,-2,0,-1,-1,3,7
1570180080455311,5,0,-1,3,-1,-1,0,-4
1570180080469229,-3,1,-2,-1,1,0,0,-4
1570180080469229,0,0,0,1,1,1,3,-3
1570180080469229,0,-1,-1,0,-1,-1,-9,2
1570180080469229,-3,-1,2,-2,-3,-3,-2,-6
1570180080491304,-1,-2,-4,-3,-1,1,4,-1
1570180080491304,-5,0,0,-1,-1,0,-3,-13
1570180080492162,5,-1,-2,0,-3,-1,6,9
1570180080492162,1,0,-2,-2,-1,-1,-1,0
1570180080514221,0,-1,-1,0,-1,0,7,2
1570180080514221,-2,0,-1,-1,1,1,8,-2
1570180080515099,-2,-1,-1,-2,-1,-4,-30,-11
1570180080515099,-1,-2,-3,-2,0,0,7,0
1570180080529066,2,0,-2,-1,1,0,7,2
1570180080529066,2,-1,-1,-2,-1,-1,-7,1
1570180080529066,-2,-2,1,-2,2,0,13,2
1570180080529066,1,0,-1,1,0,3,2,4
1570180080551004,-2,-2,-3,-2,-2,-1,-7,-7
1570180080551004,7,-1,-2,0,-2,-1,-5,19
1570180080552011,-3,0,1,2,0,-2,2,1
1570180080552011,2,1,-1,-2,-1,-1,-2,3
1570180080574213,-4,-1,-1,0,0,2,14,1
1570180080574213,0,0,-1,0,-1,2,13,2
1570180080576016,0,-1,0,-1,-2,-4,-24,0
1570180080576016,-2,-2,-2,-3,-2,-3,-5,-4
1570180080588903,-1,-2,0,0,0,-1,-3,-1
1570180080588903,1,-2,0,0,0,-2,0,0
1570180080589899,-3,0,-1,0,-1,1,10,-5
1570180080589899,-4,0,0,1,2,-1,0,-5
1570180080610877,-1,-3,-2,-1,-3,-6,-11,-2
1570180080610877,3,0,-1,-1,0,2,-2,2
1570180080611844,0,-1,0,-2,1,1,9,2
1570180080611844,-1,-1,0,0,-1,-2,-7,1
1570180080633816,0,1,0,-1,-3,-1,0,5
1570180080633816,-3,-2,-1,0,-2,-2,-2,-2
1570180080634782,-4,0,-1,-1,-1,-1,0,-8
1570180080634782,4,-1,-1,-1,0,-1,3,11
1570180080648964,-1,-2,0,0,-1,-1,-2,2
1570180080648964,1,-1,0,1,-1,-1,-5,-4
1570180080649745,0,-1,-1,1,-1,1,2,-9
1570180080649745,-3,0,0,-1,-2,-1,-2,-3
1570180080670769,-5,1,-1,-1,0,0,1,-6
1570180080670769,4,1,-1,-2,0,0,-6,5
1570180080672402,-7,-2,-2,0,1,-1,5,-6
1570180080672402,-2,-1,1,1,1,1,-3,-7
1570180080694623,-2,-1,0,0,0,-1,-6,-7
1570180080694623,-3,-2,0,-3,-2,1,1,-3
1570180080694623,7,0,-1,-2,-3,-1,3,15
1570180080694623,-3,1,1,1,-3,0,0,-2
1570180080708585,1,0,-2,-2,1,3,2,2
1570180080708585,-4,-2,-1,-2,0,-1,-3,-7
1570180080709579,0,-2,-1,-1,-1,-2,1,4
1570180080709579,-1,0,-1,-1,1,1,0,-1
1570180080731526,5,1,0,1,1,-2,1,10
1570180080731526,-1,0,0,0,0,-1,3,4
1570180080731526,-2,0,-1,1,-2,0,-2,-5
1570180080731526,1,0,-1,-2,-2,-1,-3,-2
1570180080754465,0,-1,-1,-1,-2,0,0,-2
1570180080754465,-1,1,-1,1,0,0,-2,-3
1570180080755456,-1,0,-1,-2,-1,-3,-1,-1
1570180080755456,-2,-1,-2,0,-2,0,4,0
1570180080768428,9,0,-1,0,-1,-1,-3,6
1570180080768428,-3,-3,0,0,-1,-1,-5,-4
1570180080769423,2,0,-1,-1,1,-1,0,1
1570180080769423,1,0,1,-1,1,-1,1,1
1570180080791571,-4,0,1,-2,0,1,-3,-10
1570180080791571,2,-1,-3,0,-1,-1,-1,18
1570180080792720,-4,-1,0,0,0,0,2,-9
1570180080792720,-3,0,-1,-1,-2,-3,-2,1
1570180080814449,-4,0,-2,2,-2,-1,-6,-4
1570180080814449,-2,-1,1,-1,-1,-1,0,-8
1570180080815303,0,0,0,0,-1,1,-1,-2
1570180080815303,1,0,-1,-1,-1,0,3,1
1570180080828307,-1,0,1,0,-1,-1,5,1
1570180080828307,-2,0,0,0,-1,-1,2,0
1570180080829340,1,-2,0,-2,-1,0,-1,0
1570180080829340,-1,-1,1,0,1,0,-5,-6
1570180080851324,-2,0,1,0,0,-1,2,-3
1570180080851324,8,-2,-2,-1,-2,-1,1,17
1570180080852199,0,-1,-1,-1,-1,0,0,2
1570180080852199,-2,-1,-1,-1,-1,0,-3,6
1570180080874456,0,0,0,0,0,1,-2,-5
1570180080874456,-2,1,-2,-1,-1,-1,-1,-8
1570180080875135,1,1,1,0,0,-3,-2,1
1570180080875135,-2,-2,-2,0,-1,0,-1,-5
1570180080889100,-3,-2,-2,-1,0,0,-1,-1
1570180080889100,-2,-2,0,0,0,-2,-2,-5
1570180080889690,-1,-2,-1,1,-1,-1,-1,-1
1570180080889690,0,0,1,-2,-1,-3,-1,-1
1570180080911042,-1,0,0,-1,0,-1,2,1
1570180080911042,0,-1,-1,0,-1,-1,0,-5
1570180080912129,-1,0,-2,0,-2,1,2,4
1570180080912129,-3,0,-1,-1,-2,1,-3,-5
1570180080934107,2,-1,-2,-2,-3,-1,-8,9
1570180080934107,-1,1,1,-2,-1,-2,-2,-5
1570180080935305,3,1,-1,-1,-1,1,1,5
1570180080935305,-3,-2,0,-1,0,0,0,-5
1570180080949156,4,1,-1,-2,0,0,4,5
1570180080949156,-8,0,-1,-1,1,-1,-4,-16
1570180080949940,0,-2,-1,0,-1,-1,-1,7
1570180080949940,1,-1,1,0,-1,0,-2,-2
1570180080970883,-4,-1,0,0,0,0,-1,-7
1570180080970883,2,0,-1,-1,-2,0,0,1
1570180080972110,0,-2,0,-2,0,0,-2,-4
1570180080972110,0,0,-2,0,-1,-1,2,-4
1570180080994823,3,-1,-1,0,0,-2,1,14
1570180080994823,3,1,-1,1,1,-1,3,-3
1570180080994823,-6,-2,1,-1,4,0,-4,-12
1570180080994823,3,1,-1,0,0,-1,6,4
1570180081008779,-1,-2,-1,-1,-1,-4,-14,-8
1570180081008779,0,-1,0,0,0,0,0,1
1570180081009777,1,-1,-3,-1,-2,-2,-1,5
1570180081009777,6,0,-1,-1,-1,0,2,9
1570180081031378,-8,-1,-2,-2,-1,0,4,-11
1570180081031378,0,1,0,-1,-3,0,3,5
1570180081031718,-2,0,-2,-1,0,-1,4,-6
1570180081031718,0,-3,-1,-1,1,0,-11,1
1570180081054660,1,-2,1,0,-2,-2,1,4
1570180081054660,-2,-4,0,-1,0,-1,-5,-3
1570180081055655,-1,-1,0,-2,-2,1,5,8
1570180081055655,-6,-1,0,0,-2,-1,-2,-11
1570180081068622,0,1,0,-2,0,0,-2,0
1570180081068622,-3,-1,0,0,0,-1,-2,-2
1570180081076599,-2,0,0,3,0,-2,0,-7
1570180081076599,7,-1,-1,-3,-1,-1,1,21
1570180081091560,0,0,-1,1,-2,-2,2,-3
1570180081091560,0,-1,-1,-3,0,-1,2,4
1570180081092557,3,-1,-1,0,1,0,-2,-3
1570180081092557,-3,1,-1,0,0,1,-1,-1
1570180081114500,-2,0,-1,-1,1,-1,5,-4
1570180081114500,2,0,-3,0,-1,-1,-3,5
1570180081115493,-1,-1,-1,-1,-1,1,-1,0
1570180081115493,-1,-1,0,-1,0,-4,2,5
1570180081128459,7,-1,-2,-1,-2,-3,-4,-2
1570180081128459,-3,-1,-1,1,0,0,-1,-4
1570180081136440,1,0,-2,-2,0,0,-3,0
1570180081136440,-1,0,-1,-1,-1,0,1,-4
1570180081151397,-3,-1,-1,0,0,-1,-2,3
1570180081151397,3,-1,0,-1,0,-1,-1,9
1570180081152395,4,1,-1,0,-2,-3,-1,2
1570180081152395,-9,-1,-1,0,-1,-1,-1,-12
1570180081174337,1,-1,-1,0,1,3,1,0
1570180081174337,-3,-1,0,-2,0,0,0,-6
1570180081175524,-1,1,1,-2,0,-1,1,8
1570180081175524,0,-2,0,0,1,0,0,-4
1570180081188306,-2,-1,1,1,0,-1,-2,0
1570180081188306,0,-3,-1,0,0,0,-2,-5
1570180081196372,-5,-2,-1,-1,0,-1,-2,-10
1570180081196372,4,0,-1,1,0,-2,1,4
1570180081211240,-3,-1,0,-2,-1,0,0,-7
1570180081211240,3,-1,-1,-2,-2,0,1,8
1570180081212478,-3,0,0,-1,0,-1,-3,-1
1570180081212478,0,-1,-2,1,-1,-1,-1,1
1570180081234179,1,-1,-1,-1,0,0,1,9
1570180081234179,-2,2,-2,0,0,-1,-2,-2
1570180081235175,0,1,0,-1,-1,-1,5,2
1570180081235175,-2,-1,1,-1,-2,0,0,2
1570180081248139,-7,1,0,1,1,1,0,-17
1570180081248139,4,0,-1,-1,-2,-3,-5,0
1570180081256116,0,-2,0,-1,0,-1,-2,1
1570180081256116,-2,0,-1,-3,-1,-1,-1,-3
1570180081271078,-1,1,-1,-1,-2,-2,2,0
1570180081271078,-10,-2,0,0,-1,-1,-2,-16
1570180081272242,5,0,0,-1,0,1,2,12
1570180081272242,-1,-1,0,-1,-3,0,-1,-3
1570180081294016,1,-1,1,-1,1,1,1,4
1570180081294016,-1,-1,0,-1,-1,1,4,0
1570180081295133,1,1,-1,-2,-2,-2,-5,-1
1570180081295133,-2,-1,-1,2,1,-1,-4,-4
1570180081308253,2,1,0,-2,-1,-2,2,6
1570180081308253,-1,1,-1,1,1,0,0,1
1570180081315961,-2,-1,0,1,-1,0,1,-5
1570180081315961,0,1,0,0,2,4,5,3
1570180081330917,-1,-1,0,0,-1,2,2,-4
1570180081330917,-2,-1,-2,-3,-2,-5,-17,-6
1570180081331915,-1,-2,0,0,-3,-2,-4,-3
1570180081331915,-1,-1,-1,-1,0,-1,-2,0
1570180081353857,2,-3,-2,-1,0,0,8,2
1570180081353857,-1,-2,1,-1,0,-2,-8,-2
1570180081354887,-2,-2,-1,-1,-2,-1,-1,-3
1570180081354887,0,1,0,0,-1,0,1,-1
1570180081367972,0,-1,-2,0,-1,-1,0,3
1570180081367972,0,0,-2,0,-1,2,6,3
1570180081375836,-1,-1,-1,-1,-1,-2,-4,-2
1570180081375836,1,-1,-1,-1,0,-1,2,-2
1570180081390828,0,0,-2,-2,-1,0,-4,0
1570180081390828,0,-2,0,0,-1,-1,3,6
1570180081392101,-2,-1,0,-1,-1,0,2,-12
1570180081392101,4,0,-1,0,-3,-1,1,5
1570180081414694,-2,-1,-1,-1,-1,-1,0,-1
1570180081414694,3,-1,0,-1,1,-1,-7,8
1570180081414694,-1,1,0,1,1,1,1,2
1570180081414694,-1,0,0,0,0,-1,1,-3
1570180081437328,0,-3,-2,-1,-1,-1,-6,1
1570180081437328,0,-1,0,1,0,0,3,-1
1570180081437635,-2,-1,-1,0,-1,-1,-2,1
1570180081437635,0,-1,0,-2,-1,1,1,3
1570180081451528,-1,0,0,-3,0,-1,-2,-1
1570180081451528,-1,1,-1,-1,-2,-1,1,-4
1570180081452352,-2,-2,0,-2,-2,-3,-4,-13
1570180081452352,-2,-1,0,0,0,-2,-3,-2
1570180081474273,-5,0,0,0,-1,-2,-4,-6
1570180081474273,-3,-1,-2,0,-1,0,0,-5
1570180081475271,1,0,-2,0,0,0,6,5
1570180081475271,-1,-2,-1,-1,-1,-1,-2,0
1570180081497463,-2,0,-1,-1,-1,-1,4,5
1570180081497463,1,0,1,0,-1,0,1,0
1570180081497463,0,-1,0,1,-1,-1,-3,1
1570180081497463,-3,-2,0,0,-1,0,-3,-7
1570180081511812,0,-1,-1,0,-3,-1,-1,-2
1570180081511812,0,2,0,-2,0,1,7,1
1570180081511812,0,-1,-2,-1,1,-2,-5,3
1570180081511812,-2,-1,-1,0,-1,0,-2,1
1570180081534541,1,-1,-1,0,-1,-1,-1,-1
1570180081534541,0,-2,-1,-2,1,1,3,2
1570180081535532,-2,-1,2,-1,-2,-1,-2,-8
1570180081535532,-1,-2,-3,-2,0,0,2,3
1570180081556808,-1,1,0,0,-1,1,-3,-3
1570180081556808,3,-1,-2,-2,-2,0,1,6
1570180081557807,-2,-1,-1,-2,-2,-1,4,5
1570180081557807,-2,-1,0,0,-1,-2,-3,-1
1570180081571892,3,1,-1,0,-2,-2,-4,-1
1570180081571892,-2,0,-1,0,-2,0,0,-15
1570180081571892,6,-2,-3,-2,-2,-1,0,23
1570180081571892,1,0,0,0,-2,-1,2,2
1570180081594114,-1,-2,0,0,1,0,-2,-1
1570180081594114,-1,0,-1,-1,0,0,0,-6
1570180081595212,-2,-1,-1,0,0,0,0,-4
1570180081595212,-1,-1,0,0,-1,-1,-3,-3
1570180081624875,2,0,1,-1,-1,0,0,3
1570180081624875,-3,0,-2,0,-1,-1,-1,1
1570180081625479,-2,1,1,-2,1,-1,7,-3
1570180081625479,1,1,-1,-2,0,-1,0,-2
1570180081631669,0,-1,-2,0,0,1,2,1
1570180081631669,-1,0,-2,0,0,-2,-11,-4
1570180081632462,-2,-2,-2,0,0,0,0,-5
1570180081632462,-1,0,-1,0,0,0,-1,1
1570180081654211,0,0,0,-1,1,-1,1,0
1570180081654211,0,-1,0,0,-2,0,3,0
1570180081655211,0,0,-2,0,-1,-1,-6,-2
1570180081655211,-2,-1,0,-2,0,1,0,-2
1570180081676666,-2,-1,0,1,-2,-1,-2,-1
1570180081676666,-1,-1,1,-1,-1,0,0,4
1570180081677678,-6,-1,0,0,0,0,-2,-11
1570180081677678,0,-1,-2,0,0,-2,2,0
1570180081691214,1,0,1,0,-1,-3,-8,1
1570180081691214,4,-1,0,-2,-2,-1,1,8
1570180081692213,0,-1,-1,-1,0,1,-3,1
1570180081692213,-3,1,-1,0,-1,-1,-1,-8
1570180081714593,-1,1,-1,0,0,-1,1,-3
1570180081714593,-1,-1,0,1,0,-1,0,3
1570180081714593,-1,-1,-2,-1,-2,0,0,2
1570180081714593,1,0,0,-1,-2,-1,-3,3
1570180081736773,-1,-2,-1,-1,0,0,-1,-2
1570180081736773,-2,-1,0,-2,-1,0,1,-3
1570180081737540,1,-1,-1,0,-1,0,0,0
1570180081737540,-1,-1,0,-1,0,0,-2,-3
1570180081750844,-2,-1,-1,-2,-2,0,3,-1
1570180081750844,-2,-1,-1,-1,-1,1,-1,-4
1570180081751925,2,1,-1,-1,1,0,-1,4
1570180081751925,-1,-1,1,0,0,-1,-3,-2
1570180081774775,2,0,0,0,-1,-1,0,2
1570180081774775,-3,-1,0,-1,-1,-1,7,-10
1570180081774775,5,0,-2,1,-1,1,-1,7
1570180081774775,0,0,-2,-1,0,0,-1,-1
1570180081796768,-1,-1,-2,-1,1,1,1,3
1570180081796768,-1,-1,0,0,-1,-2,3,1
1570180081798037,-2,-1,0,-1,-1,-3,-14,-6
1570180081798037,1,-1,-2,1,-1,1,3,2
1570180081810751,0,0,0,-1,-2,-1,0,-4
1570180081810751,1,-1,-1,0,0,1,-4,1
1570180081819655,-3,-1,-1,-1,0,-1,3,-8
1570180081819655,3,-1,-1,0,-2,-2,0,5
1570180081834615,-3,-1,-2,-1,-2,-2,0,3
1570180081834615,2,-1,-1,-1,-1,-3,-1,0
1570180081835614,-1,-1,-1,-1,-3,-3,2,0
1570180081835614,1,1,0,0,0,1,-2,1
1570180081856557,-2,-2,0,-1,-1,1,1,2
1570180081856557,0,-2,0,1,-1,0,-1,3
1570180081858553,0,0,1,-1,0,-1,0,-5
1570180081858553,1,-1,-2,-1,-1,0,0,6
1570180081870519,1,0,-1,-1,0,-1,0,-1
1570180081870519,0,-1,-2,-2,-1,0,-3,-1
1570180081879496,-1,-1,0,-1,-2,-1,1,-4
1570180081879496,-1,0,0,-1,0,-1,-3,-3
1570180081894455,-1,-1,-3,0,0,-1,-1,-3
1570180081894455,-3,-1,-1,2,1,-1,-1,-4
1570180081896453,0,-1,0,1,0,0,2,3
1570180081896453,-1,-1,1,-2,-1,-3,-1,-3
1570180081917774,0,0,-1,-1,-2,1,-3,-4
1570180081917774,0,1,-1,-2,0,0,-2,0
1570180081918392,0,-2,-1,0,-1,0,-1,-1
1570180081918392,-1,-1,-2,-1,-1,-1,4,-3
1570180081931395,-1,-1,0,0,-1,-2,-1,-2
1570180081931395,-2,0,-1,-2,-1,1,-1,1
1570180081939336,0,-1,-1,-1,-1,-1,1,-4
1570180081939336,-2,-1,-1,-1,0,1,-4,-3
1570180081954298,-6,0,0,0,-1,-1,0,-8
1570180081954298,3,0,0,-2,0,0,-1,6
1570180081956289,0,1,0,0,0,0,-3,1
1570180081956289,-7,0,0,1,-1,-2,-3,-14
1570180081977616,1,-1,2,-1,-3,-1,0,-3
1570180081977616,-4,0,0,1,-1,-1,-2,-5
1570180081978230,-1,-1,0,-3,0,1,0,0
1570180081978230,0,-1,-2,-2,1,-1,1,7
1570180081990205,-2,0,0,0,0,-1,-1,-7
1570180081990205,-2,-1,-1,1,-1,-1,0,-1
1570180081999173,0,0,-2,0,0,-1,2,4
1570180081999173,-1,-1,-2,-2,0,0,-2,0
1570180082014134,1,-1,-1,-1,0,0,-1,2
1570180082014134,1,-2,0,-1,-2,-1,1,1
1570180082016130,-1,0,0,0,0,-1,-2,-1
1570180082016130,2,-1,-1,-1,0,-1,-4,0
1570180082037075,1,0,-1,0,-1,-1,4,7
1570180082037075,0,0,-1,-2,0,1,-1,-3
1570180082038072,0,0,-1,-1,-2,-1,0,2
1570180082038072,1,-1,2,0,-2,-1,-1,1
1570180082050287,-2,-1,-1,-2,-1,-1,-2,-1
1570180082050287,0,1,-1,-1,-1,-1,1,0
1570180082065973,0,-1,-1,0,0,0,4,2
1570180082065973,0,0,1,-2,-1,-2,-11,-5
1570180082074434,0,0,-1,-1,1,-1,1,3
1570180082074434,-3,-1,-1,1,-2,-1,-3,-11
1570180082075946,0,-1,-1,0,-1,-2,0,-1
1570180082075946,0,1,0,0,-1,2,7,-4
1570180082097144,-1,-1,-1,-1,-1,-2,-3,-1
1570180082097144,1,-1,-2,0,1,0,1,4
1570180082098883,-2,0,-1,-2,-1,0,-2,-1
1570180082098883,-3,-1,-1,1,0,0,2,-5
1570180082110857,3,1,0,0,-1,2,-2,2
1570180082110857,0,-1,-1,1,-2,-2,2,2
1570180082119832,-3,-2,-1,-1,-3,0,0,-2
1570180082119832,-1,-1,-2,-1,1,0,1,-4
1570180082134787,1,0,-1,-1,-1,-1,-4,0
1570180082134787,-1,-2,-2,-1,1,1,-2,-1
1570180082135785,0,0,-1,-2,0,-2,-1,5
1570180082135785,0,1,0,-1,-1,0,4,2
1570180082156728,2,-2,0,-2,1,-1,-1,-1
1570180082156728,-1,-1,0,-1,0,-1,-3,-9
1570180082158803,-1,0,0,0,0,0,3,-5
1570180082158803,1,-1,-1,-1,-1,-1,-3,9
1570180082170696,-1,-1,-2,-2,-1,-1,-3,-6
1570180082170696,-2,0,0,-1,-2,-1,1,5
1570180082179670,1,-1,-1,-2,-2,-1,1,-3
1570180082179670,3,1,-1,0,0,-2,5,0
1570180082194632,-3,0,0,0,0,-1,1,2
1570180082194632,-1,1,0,0,-1,1,-9,-2
1570180082195813,-6,-1,0,0,1,0,-1,-6
1570180082195813,0,-1,-2,0,-2,-2,-3,-4
1570180082216575,-2,-2,-2,-2,0,1,1,-1
1570180082216575,3,0,0,0,0,-1,2,2
1570180082218565,-1,0,1,-1,1,-1,0,6
1570180082218565,0,-2,-1,-1,0,-1,-3,-4
1570180082230536,0,-1,-1,-2,0,0,-1,-1
1570180082230536,-2,0,-1,-2,-2,0,1,0
1570180082239508,1,0,-2,1,-2,1,-4,2
1570180082239508,0,-1,0,-1,0,0,3,5
1570180082254467,-4,-1,-1,0,-1,-3,-3,-6
1570180082254467,1,0,0,-2,-1,-1,3,-2
1570180082256463,6,1,0,-1,0,-1,0,11
1570180082256463,-1,-2,-1,-1,-3,0,-2,3
1570180082277405,-1,0,-1,0,-2,0,1,-2
1570180082277405,1,-1,0,0,-1,-3,-1,2
1570180082278405,-4,-2,-1,0,-2,-2,-3,-6
1570180082278405,1,-1,-1,0,0,0,3,0
1570180082291369,0,-1,-1,-1,1,1,1,7
1570180082291369,-2,-1,-1,-1,1,-1,0,2
1570180082299354,-1,-1,-2,0,1,1,-1,-2
1570180082299354,-3,-1,-1,-1,-2,-1,-3,-2
1570180082314310,-2,-2,-2,0,-1,-1,1,-2
1570180082314310,1,0,-2,-1,-1,0,2,2
1570180082316301,-3,-3,0,-2,0,0,-3,-7
1570180082316301,-4,-2,-2,0,0,0,0,-4
1570180082337250,2,0,-1,1,-1,-1,2,3
1570180082337250,-2,-3,-3,-1,-1,0,0,1
1570180082338247,-2,0,-2,0,-1,0,1,-4
1570180082338247,0,0,0,-2,-1,-1,-1,5
1570180082359186,0,1,-1,-2,0,-1,0,-1
1570180082359186,-2,-1,1,1,-1,-1,-2,-2
1570180082361293,-1,-1,-1,0,-1,-4,-1,-1
1570180082361293,-5,1,-1,1,-2,0,-2,-9
1570180082374152,0,-1,-1,0,-1,0,1,9
1570180082374152,1,-1,0,-1,1,0,-1,9
1570180082376143,4,0,0,0,0,2,0,6
1570180082376143,-8,-1,-1,0,-1,0,0,-16
1570180082397177,0,-3,-1,-2,-1,-3,-3,2
1570180082397177,-2,-2,-1,1,-1,1,-1,-7
1570180082398278,4,1,-1,-1,-2,0,1,12
1570180082398278,2,-1,-1,1,0,-1,0,7
1570180082419030,-2,1,-2,-1,0,0,0,-6
1570180082419030,0,-1,-1,-2,0,0,-1,0
1570180082421023,0,0,-1,-1,-1,0,-1,-7
1570180082421023,3,1,-1,0,-3,-1,0,4
1570180082434662,1,0,1,0,-1,-1,-2,0
1570180082434662,-5,-1,-1,-2,-2,-2,-5,-10
1570180082435990,-3,0,1,-1,1,0,3,1
1570180082435990,1,0,0,0,-2,-1,-1,5
1570180082456961,2,0,1,1,-1,0,0,1
1570180082456961,-2,-1,0,0,0,0,2,-1
1570180082457926,-3,-4,-2,-3,-2,-3,-2,-5
1570180082457926,2,0,-2,-1,-1,-1,-1,5
1570180082479003,-1,-1,-1,-1,0,0,-3,-3
1570180082479003,1,0,-1,-1,-2,0,5,-2
1570180082480863,-1,0,-2,-2,-1,-1,0,1
1570180082480863,-2,-1,-1,-2,0,-1,-1,-2
1570180082493827,-1,-1,-1,0,-3,-3,0,-4
1570180082493827,1,0,0,0,0,0,-2,3
1570180082500813,2,-2,-1,-1,-2,1,0,-9
1570180082500813,-3,-2,0,-1,0,-1,-1,-3
1570180082516776,0,-1,-2,-2,0,1,1,0
1570180082516776,0,1,-1,0,-1,-1,-1,-1
1570180082518767,4,-1,0,0,-1,0,-1,6
1570180082518767,0,-1,0,0,-1,-1,-2,1
1570180082539705,1,-1,0,0,-2,-2,0,0
1570180082539705,1,-2,-1,-1,-1,0,1,4
1570180082540704,-3,-1,0,1,-2,-1,-3,-8
1570180082540704,0,0,0,-2,0,-1,-1,-2
1570180082561649,-2,-1,0,-2,-3,1,0,0
1570180082561649,-1,-1,2,-2,-2,-1,-2,0
1570180082563641,-3,-1,0,2,0,-2,2,-2
1570180082563641,2,-1,-2,1,0,0,-1,4
1570180082576609,-2,1,-3,0,1,-2,0,6
1570180082576609,-2,1,-2,-1,1,-1,-4,-4
1570180082578606,0,-1,-1,-2,-1,-2,-1,0
1570180082578606,1,-1,-1,-3,-1,0,0,2
1570180082599631,-2,-1,-1,0,-2,-1,-2,2
1570180082599631,-2,-1,-1,0,1,-1,-2,-4
1570180082600552,-2,0,0,-1,1,0,1,-2
1570180082600552,0,-1,1,1,0,-2,0,1
1570180082613514,-1,0,-1,0,-1,2,-2,-5
1570180082613514,0,-3,-2,-1,-2,1,0,0
1570180082620573,-2,-1,-1,-2,-2,0,0,-6
1570180082620573,-2,0,2,-2,-1,0,0,-1
1570180082636451,0,0,0,0,0,-1,-2,-3
1570180082636451,0,1,-1,1,1,-1,0,-3
1570180082638931,0,0,-1,-1,-1,-3,-2,3
1570180082638931,1,1,-1,1,1,0,2,-1
1570180082659392,0,-1,-1,-1,0,1,2,3
1570180082659392,0,0,-1,-1,-2,0,-2,0
1570180082661379,-1,-1,1,1,-1,0,-2,-4
1570180082661379,0,1,-2,-1,-1,-1,0,-1
1570180082673352,-3,-2,-1,0,-1,0,-1,-7
1570180082673352,-3,-1,0,0,-1,-3,-3,-6
1570180082680426,1,-1,-1,-1,-1,-1,0,-1
1570180082680426,2,-2,-1,-2,-1,0,-1,11
1570180082697383,-2,0,0,0,0,0,-3,-5
1570180082697383,-1,-2,-1,-1,-1,0,1,2
1570180082698575,-2,0,-1,0,0,-1,-2,0
1570180082698575,-1,-2,-2,0,1,-2,0,-3
1570180082719224,-1,0,-2,-1,-1,-1,-2,-3
1570180082719224,1,0,-1,-1,0,0,0,3
1570180082721219,1,-2,-1,0,0,1,0,2
1570180082721219,-4,-1,-1,-1,-1,0,-3,-14
1570180082734201,0,0,-1,-2,0,-1,1,-1
1570180082734201,1,-1,-1,0,-2,0,3,3
1570180082740264,-3,-2,-1,-1,0,1,0,-3
1570180082740264,0,-2,0,0,-1,0,0,4
1570180082757123,-2,-1,-1,-1,2,-2,0,-7
1570180082757123,3,1,0,0,-1,0,0,1
1570180082758174,-1,0,-1,-2,-1,-1,0,6
1570180082758174,-3,-2,-4,-2,0,3,11,-13
1570180082779083,-4,-2,0,1,-1,0,-5,4
1570180082779083,3,-1,0,0,1,-2,-2,7
1570180082781063,0,0,0,-2,-1,0,0,3
1570180082781063,0,1,0,1,-1,-1,-1,12
1570180082794067,2,1,-1,0,-1,1,4,1
1570180082794067,1,-2,-3,-1,-1,0,3,9
1570180082801007,1,0,0,0,0,0,-2,-2
1570180082801007,-6,-1,-1,-1,0,-3,-4,-11
1570180082816968,2,-1,1,-2,-1,-1,-1,1
1570180082816968,-4,0,0,-2,-1,-2,-3,-10
1570180082817966,0,1,-1,2,-1,-1,0,0
1570180082817966,0,-1,-2,-1,0,-2,-7,-10
1570180082847092,0,0,-2,1,-1,-1,3,4
1570180082847092,-2,-1,1,0,0,-1,-1,-4
1570180082853872,2,0,-1,0,0,-1,0,-2
1570180082853872,0,1,-1,-2,0,0,-3,0
1570180082854864,-1,0,1,0,-2,0,-2,-2
1570180082854864,-1,-1,0,1,-2,-1,-1,-4
1570180082861849,-3,-1,-3,0,0,0,-1,-4
1570180082861849,4,-2,2,0,-2,-1,-1,11
1570180082876809,-1,-2,-1,-2,-1,-1,1,1
1570180082876809,-2,0,0,-1,-1,0,0,0
1570180082878799,1,0,-1,-1,1,0,-1,-2
1570180082878799,1,1,-1,-2,-1,1,-1,1
1570180082899744,0,-1,0,-1,-2,0,0,-1
1570180082899744,-1,-1,-1,-2,1,0,2,-2
1570180082900740,-3,-2,-1,-1,0,-1,-2,-3
1570180082900740,0,0,-1,0,0,0,0,-2
1570180082912850,0,0,-1,1,1,-2,0,2
1570180082912850,-2,-1,-2,-1,-1,1,-3,-12
1570180082921683,2,-1,0,-1,0,0,-1,0
1570180082921683,-10,2,1,0,0,-1,-2,-12
1570180082936647,1,-2,-1,0,1,0,0,5
1570180082936647,-1,0,-2,1,-2,-1,1,0
1570180082938637,-4,-3,-1,-2,-1,-1,-2,-3
1570180082938637,-2,-1,0,-1,-1,-1,0,-4
1570180082959635,-3,-1,0,-2,-2,0,-2,-10
1570180082959635,-3,0,0,1,-1,-1,-2,0
1570180082960580,0,-3,-1,-1,-3,-1,0,2
1570180082960580,0,-1,-1,1,0,0,1,2
1570180082972850,0,-1,-1,0,-1,-1,1,1
1570180082972850,1,-1,0,-2,-3,0,-2,3
1570180082981524,-1,1,0,-1,0,-1,0,0
1570180082981524,3,-1,-1,-1,-2,0,-1,5
1570180082996524,1,0,-2,0,0,-2,1,-6
1570180082996524,0,-1,1,0,0,0,-2,-2
1570180082998479,0,1,0,-1,-1,-1,0,1
1570180082998479,3,0,1,0,-1,1,0,2
1570180083019433,-2,-1,0,-2,-1,-1,0,0
1570180083019433,-1,2,-3,-1,0,0,0,1
1570180083021417,-2,-1,-2,-1,0,-1,0,-3
1570180083021417,4,-1,0,-1,-2,1,0,8
1570180083033386,-3,-2,-1,0,0,-1,-2,-2
1570180083033386,-7,-2,0,0,-1,0,-1,-14
1570180083043359,-2,-1,-1,-2,-1,0,-1,8
1570180083043359,3,1,-2,-1,-1,-1,1,6
1570180083057325,1,0,-2,0,0,-3,-2,-6
1570180083057325,-2,-2,-1,-2,-1,-1,-1,-1
1570180083058321,1,0,0,-1,1,0,1,-3
1570180083058321,0,-2,0,-3,-1,-2,0,2
1570180083079447,-3,-1,-1,-1,-1,1,0,3
1570180083079447,3,-1,-1,-1,0,0,-1,4
1570180083081427,-1,0,1,0,-2,-1,-2,-3
1570180083081427,-5,-2,-1,0,-1,-3,-4,-6
1570180083093228,7,0,0,1,-1,1,1,6
1570180083093228,-1,0,-1,-1,-1,0,0,3
1570180083102206,-1,-3,-1,0,0,1,-1,0
1570180083102206,-1,0,-1,-1,0,-1,-1,-4
1570180083117162,-4,0,-1,-1,-1,-2,-2,-3
1570180083117162,0,-1,-1,-1,1,0,0,0
1570180083118238,4,-1,-2,-1,-2,0,0,6
1570180083118238,3,-1,1,-1,2,0,2,18
1570180083139101,-4,0,1,-1,-1,-2,-5,-16
1570180083139101,4,-1,0,-1,-1,-3,0,11
1570180083141682,-2,1,-1,1,0,0,0,-5
1570180083141682,-1,-2,1,0,-1,2,-2,0
1570180083153233,-2,-1,0,-3,-1,0,0,2
1570180083153233,-2,0,0,-1,0,-1,-1,-3
1570180083162047,0,0,0,0,-1,0,-1,-4
1570180083162047,4,1,-2,1,0,0,2,4
1570180083177006,4,0,-1,-3,-2,0,-1,11
1570180083177006,-4,-2,-1,-1,-2,-1,-1,-6
1570180083177999,-3,0,0,-1,-2,0,1,3
1570180083177999,4,-1,-2,-1,-2,-2,1,3
1570180083198942,0,-1,-1,0,0,1,0,-1
1570180083198942,1,-1,0,0,0,-1,0,1
1570180083200940,1,0,-1,0,-1,-1,-1,1
1570180083200940,-5,-1,0,0,-1,-1,-1,-11
1570180083213098,-1,-1,-2,0,0,-1,0,-1
1570180083213098,0,0,-1,0,-2,0,0,0
1570180083221881,-2,-2,-1,1,0,-2,0,-2
1570180083221881,-3,-1,-1,-1,-1,0,-1,-5
1570180083236852,-1,-4,-1,0,-1,0,-1,-1
1570180083236852,0,0,0,-2,0,-1,-3,-3
1570180083238835,1,0,0,-2,0,0,-2,0
1570180083238835,-1,0,-1,1,-1,0,0,-3
1570180083259780,-3,0,-1,-2,-1,-1,0,1
1570180083259780,1,0,-2,0,0,-1,-1,-2
1570180083260856,-3,-2,-2,0,-1,-1,-1,-3
1570180083260856,2,0,-1,0,-1,0,0,4
1570180083272747,-1,2,-1,0,0,-1,0,-6
1570180083272747,3,0,0,-1,-1,1,1,6
1570180083287762,0,1,0,-2,-1,-1,0,-1
1570180083287762,-2,-1,-1,-1,-1,0,-1,-1
1570180083295823,-1,0,-2,0,-3,-2,1,10
1570180083295823,1,0,-1,0,0,2,1,4
1570180083302668,3,-1,-1,-1,-2,0,0,0
1570180083302668,0,-1,-1,-2,-1,-2,0,-3
1570180083319622,-3,-1,1,-1,0,-3,-1,-5
1570180083319622,-1,1,-1,-1,-1,-2,-2,-2
1570180083320616,0,1,0,1,1,1,0,1
1570180083320616,-2,-1,1,-1,-1,-1,-2,-8
1570180083341618,0,-1,-2,0,0,-1,-2,-8
1570180083341618,0,-1,-1,0,-1,-2,1,-1
1570180083343671,-2,-1,1,1,-2,0,-1,-5
1570180083343671,2,-2,-1,-1,-2,-1,-1,4
1570180083356587,1,-2,1,-1,1,0,2,1
1570180083356587,-3,0,-1,-2,-1,-1,-3,-2
1570180083358517,-3,-1,-1,-1,-1,-1,-1,-7
1570180083358517,4,-2,-3,0,-1,-2,2,17
1570180083379754,-2,0,1,0,-2,0,-2,-6
1570180083379754,-3,1,-1,-2,0,-2,1,-4
1570180083381453,-1,-1,-1,-1,1,1,0,-3
1570180083381453,-5,0,0,-1,-1,-2,-3,-7
1570180083401403,-1,-1,-1,0,0,0,-1,3
1570180083401403,-1,-2,-2,-1,0,-2,-1,-1
1570180083403397,0,0,-1,-2,-1,-1,1,1
1570180083403397,-1,-1,0,-1,0,1,-1,-2
1570180083416362,1,-1,-2,0,-2,0,-1,2
1570180083416362,-1,-1,0,1,-1,0,-1,-3
1570180083418355,0,-1,0,-1,-1,-1,-1,4
1570180083418355,-4,1,0,-1,-1,0,-2,-17
1570180083439305,2,0,-1,-1,-1,-2,-1,4
1570180083439305,-2,-1,2,0,-1,-1,-2,-2
1570180083441294,-1,-1,-1,-1,-1,-1,-1,-3
1570180083441294,2,0,-1,-1,1,0,-1,6
1570180083462246,-5,-1,-1,1,-1,-1,-1,-5
1570180083462246,1,-2,-1,0,-1,0,0,1
1570180083463296,0,0,1,-1,1,0,0,0
1570180083463296,0,-2,-1,-1,-1,-1,1,-1
1570180083476277,-2,-2,0,-2,0,-1,-2,-5
1570180083476277,2,-1,-2,0,-2,-1,-2,7
1570180083483188,0,-3,-1,-3,-2,1,0,0
1570180083483188,-1,1,1,1,-1,-2,-1,-1
1570180083499144,-2,-1,0,-2,-1,1,0,1
1570180083499144,-3,0,0,-1,0,-1,-1,-6
1570180083501133,1,-3,-1,0,0,-1,-1,3
1570180083501133,-3,0,-1,-2,1,0,0,0
1570180083522085,4,-1,1,0,0,0,-2,-7
1570180083522085,-2,-1,0,-2,-2,-1,0,-6
1570180083523162,-1,0,-2,0,-1,-2,-2,0
1570180083523162,-2,-2,-1,2,-1,0,-1,-2
1570180083536047,1,1,-2,-1,-2,-4,1,7
1570180083536047,-1,0,0,-1,-1,0,0,0
1570180083543024,0,0,0,0,0,-2,-1,-3
1570180083543024,-1,-1,-1,1,-1,-1,-1,-2
1570180083559099,-1,0,-1,-2,1,1,0,-2
1570180083559099,-1,-1,0,0,-1,1,0,-2
1570180083560975,-1,0,-1,-2,-1,-1,-3,-9
1570180083560975,-2,0,-1,-1,-1,-1,-1,5
1570180083581926,0,-2,-1,0,-1,0,1,4
1570180083581926,4,-1,-1,0,0,0,-1,4
1570180083582918,0,0,-2,0,-1,0,-2,3
1570180083582918,-1,-1,0,-1,-1,0,-1,-2
1570180083596041,-1,-1,0,-1,-1,1,-2,-4
1570180083596041,-1,-1,-2,-2,0,0,1,2
1570180083602867,-1,1,-1,0,1,0,2,-2
1570180083602867,-1,-2,-1,-1,-2,-3,-1,-2
1570180083618863,-2,0,-4,-1,1,-2,-2,1
1570180083618863,-2,1,-1,0,-1,0,0,-3
1570180083620814,-1,-1,0,0,0,-3,1,1
1570180083620814,-1,-1,-1,-1,-1,-1,-2,0
1570180083640761,-2,-1,2,0,-1,-1,-2,-6
1570180083640761,0,1,0,1,0,0,1,5
1570180083649738,-4,-1,-2,-1,-1,0,-2,-3
1570180083649738,0,0,0,-1,1,1,0,1
1570180083655724,0,-1,-1,-1,0,-1,-2,-7
1570180083655724,-3,-1,0,1,-1,-1,-2,-10
1570180083662705,4,1,0,-1,-2,0,0,9
1570180083662705,0,1,1,0,-2,-2,-2,-1
1570180083679657,-1,-2,0,-1,0,1,1,4
1570180083679657,0,-2,-1,-2,0,-1,-1,-1
1570180083680926,1,-1,-2,-1,0,-1,2,1
1570180083680926,-7,-4,-1,-2,-2,-1,13,-15
1570180083701598,-2,-3,-2,-1,-1,0,7,-3
1570180083701598,-2,0,-2,1,-1,-2,-1,-5
1570180083703594,0,-1,0,0,-1,-1,-2,2
1570180083703594,6,2,0,-1,0,-1,1,18
1570180083716558,0,-2,0,0,-1,-1,3,6
1570180083716558,-1,0,0,0,-1,1,1,3
1570180083722617,-1,-1,-1,0,-1,0,1,-8
1570180083722617,-3,-2,-2,-1,0,0,-1,-4
1570180083739497,-3,-1,0,0,1,1,-4,-3
1570180083739497,6,0,0,0,0,-2,-2,8
1570180083740498,-1,2,1,1,0,0,-2,-1
1570180083740498,0,1,0,-2,-1,0,-3,1
1570180083761438,-1,0,-1,0,-1,-1,-4,-3
1570180083761438,-4,0,-1,-2,-2,0,-3,-6
1570180083763435,-5,-5,-2,-2,-2,0,3,1
1570180083763435,-1,0,0,-1,0,0,-3,-11
1570180083776654,3,1,-1,3,-2,-1,2,20
1570180083776654,-3,-1,-2,-2,-1,0,-2,-2
1570180083783381,-1,0,0,0,0,-1,-2,4
1570180083783381,-1,-1,-2,-1,0,0,-2,1
1570180083799343,1,-2,0,1,1,-2,-1,-2
1570180083799343,2,-1,1,-1,0,-1,2,2
1570180083801332,5,1,0,-1,0,-1,-1,17
1570180083801332,-2,-1,0,0,-1,0,0,1
1570180083822276,1,1,-1,-1,0,0,-1,-2
1570180083822276,0,-2,-1,0,0,0,-2,-2
1570180083823273,-1,-2,0,-1,-1,1,-3,-7
1570180083823273,0,-2,-2,0,-1,-1,-3,3
1570180083835239,2,-1,-1,-2,-1,-1,-1,-4
1570180083835239,-2,0,-2,0,0,-1,1,-3
1570180083844279,1,-2,0,-1,-2,-2,-2,-1
1570180083844279,1,0,0,0,0,-1,-1,1
1570180083859174,-4,0,-2,0,0,1,-3,-1
1570180083859174,2,-2,0,-3,0,-2,0,3
1570180083861169,-4,1,0,-1,-2,-1,-2,-10
1570180083861169,1,0,-1,0,-3,0,1,1
1570180083882114,-1,0,0,-2,-1,0,-3,-3
1570180083882114,0,0,-1,-2,-1,0,0,2
1570180083883483,-2,0,-1,-3,-1,0,3,7
1570180083883483,-3,-1,-2,0,0,-1,0,-9
1570180083895079,-2,0,0,0,-1,-2,1,1
1570180083895079,-1,0,-1,0,-1,-1,-1,4
1570180083904113,0,-1,-1,-1,1,0,0,0
1570180083904113,0,-1,-2,-1,0,1,0,1
1570180083920048,-1,0,0,-3,-2,0,0,-2
1570180083920048,1,1,1,0,0,0,7,10
1570180083921010,-3,-1,-2,-1,0,-1,0,-6
1570180083921010,0,0,-1,-2,-1,-2,-2,-1
1570180083942051,0,-1,-1,0,0,-2,-3,-1
1570180083942051,-1,-2,0,-1,1,-1,-3,-5
1570180083943280,-1,-1,-1,-1,1,1,-1,0
1570180083943280,1,-1,0,0,-1,0,-2,5
1570180083955917,-3,0,0,-2,-3,0,0,1
1570180083955917,2,0,-3,0,-2,-1,0,2
1570180083964894,-4,0,0,1,-2,-2,-2,-14
1570180083964894,2,-2,-1,-2,0,-1,-1,-2
1570180083979860,0,-1,0,0,-2,0,1,0
1570180083979860,-3,0,0,1,-2,-2,-3,-6
1570180083981551,0,-1,1,0,0,-1,-3,0
1570180083981551,-3,0,0,0,0,-1,0,-6
1570180084001797,-2,-2,-1,-1,2,-1,-2,-3
1570180084001797,0,1,-2,-3,-1,2,-2,-1
1570180084003789,1,-2,-1,-1,-1,-1,-1,3
1570180084003789,0,-1,0,-1,-1,-2,0,-1
1570180084015764,0,-1,-1,-1,-1,1,-5,1
1570180084015764,-3,0,-2,1,0,0,0,-6
1570180084024734,-1,0,-2,-1,-3,0,-1,2
1570180084024734,-4,-1,0,-1,0,1,-2,0
1570180084039694,5,0,-1,0,0,-1,0,-4
1570180084039694,-2,-1,-1,0,-1,-1,-1,3
1570180084040762,-1,-1,1,-1,0,-1,-1,2
1570180084040762,2,-1,-2,0,1,-1,-1,2
1570180084061868,-4,0,1,-1,0,-1,1,-11
1570180084061868,4,-1,0,-1,0,0,1,3
1570180084063631,1,-2,-1,-1,-1,-1,0,3
1570180084063631,1,-1,1,-1,0,-2,2,9
1570180084075597,-1,0,-2,-1,0,-1,2,1
1570180084075597,-1,-2,1,-1,-3,0,-2,-5
1570180084084577,1,1,-1,0,-1,-1,2,1
1570180084084577,-4,-2,-2,-1,-1,-1,-4,-12
1570180084099534,1,0,-3,1,0,0,-1,6
1570180084099534,-4,-1,-1,0,0,-1,-2,-2
1570180084100532,2,0,-1,0,1,0,0,-3
1570180084100532,0,-1,0,0,0,-1,-1,-2
1570180084122472,-3,1,0,0,-2,0,2,2
1570180084122472,-1,-1,-2,0,0,0,0,-4
1570180084123587,1,-1,-1,0,0,-1,1,0
1570180084123587,1,0,-1,0,-1,-2,-2,3
1570180084143528,-2,-2,-1,-2,-1,0,8,-11
1570180084143528,0,0,-1,-2,0,-1,-5,0
1570180084152392,0,0,-1,-1,-1,0,1,6
1570180084152392,-1,1,-1,1,-1,1,-1,-4
1570180084159380,0,-1,-1,-1,-2,-1,0,5
1570180084159380,-4,-1,-1,-1,-1,-2,-1,-6
1570180084161369,-1,0,-1,-1,-2,-1,-2,-1
1570180084161369,-7,-3,-2,0,-1,-1,0,-11
1570180084182320,4,-1,-1,1,-1,-2,-3,10
1570180084182320,-1,-2,-1,0,0,-1,-1,-1
1570180084183311,-2,0,-1,0,0,-1,-1,-3
1570180084183311,2,-1,0,-1,-1,-2,-1,6
1570180084195282,-3,0,-2,0,0,-1,-2,-6
1570180084195282,1,-2,-1,-2,-1,0,-1,-1
1570180084204258,0,-2,0,0,0,2,1,-1
1570180084204258,1,0,0,-1,-1,-1,1,1
1570180084219323,-2,-1,1,-1,1,-3,-4,-3
1570180084219323,2,-1,-1,-1,2,-1,2,-1
1570180084221209,0,1,-1,-1,1,-2,0,-1
1570180084221209,-1,1,0,-1,0,-1,1,5
1570180084242183,-3,0,-1,-1,-2,2,8,-10
1570180084242183,-2,0,0,1,-2,-1,-7,-4
1570180084243162,2,1,1,-1,0,-3,-15,4
1570180084243162,-2,0,-3,-1,0,1,3,0
1570180084264098,0,-1,0,-2,-2,-1,0,1
1570180084264098,-3,-2,-1,-1,1,-1,-1,-16
1570180084266089,-3,-2,-2,-1,-1,-1,4,-1
1570180084266089,0,0,1,1,0,-1,-3,-2
1570180084280052,1,0,-1,1,1,-1,-7,3
1570180084280052,-2,1,0,1,-1,-1,1,-1
1570180084281217,0,-1,0,-1,0,0,0,3
1570180084281217,0,0,-1,-2,-1,0,2,1
1570180084301002,-2,-1,0,-1,0,0,-1,-3
1570180084301002,2,-1,-2,-1,0,0,2,11
1570180084309011,-1,1,0,-1,-2,0,3,-5
1570180084309011,0,0,-2,1,-1,-3,-6,-1
1570180084323942,-4,-1,-1,0,-1,-3,-2,-6
1570180084323942,0,1,1,0,-1,-1,1,3
1570180084325930,-2,-2,0,-2,-3,0,-1,0
1570180084325930,-1,-1,0,-2,-2,2,1,-8
1570180084338894,3,0,0,-2,-2,-1,-4,10
1570180084338894,-1,1,-2,0,0,-1,0,0
1570180084340902,-5,-2,-3,-1,-1,-2,3,-4
1570180084340902,-1,0,0,-1,0,-1,0,0
1570180084361952,-2,0,-1,-1,0,0,-1,0
1570180084361952,0,-1,0,-1,-1,1,1,7
1570180084364201,0,0,-2,0,-2,-1,-4,-14
1570180084364201,-2,-1,-2,-1,0,-1,-1,0
1570180084384771,0,-1,1,-1,2,0,-2,-2
1570180084384771,1,0,-1,-2,0,0,0,3
1570180084386248,-4,1,0,1,1,1,-1,-2
1570180084386248,-1,-1,-1,-1,-1,-1,0,-2
1570180084398978,-1,-1,-1,-1,-1,-2,-1,0
1570180084398978,5,-1,-1,0,-2,-1,0,5
1570180084405719,-1,-2,0,0,-2,1,1,-3
1570180084405719,-5,0,1,2,0,-1,-4,-13
1570180084421672,4,-1,-1,-1,-2,-2,0,-3
1570180084421672,1,-1,-1,0,0,1,0,1
1570180084423669,1,-1,-1,-2,-1,-1,2,11
1570180084423669,-2,1,0,-1,-1,0,-1,-8
1570180084444610,0,0,-2,-2,-1,0,-2,-2
1570180084444610,-4,0,1,0,-2,-2,0,-2
1570180084445610,1,-2,-1,-1,0,0,-1,2
1570180084445610,2,-1,-1,-1,-2,-2,0,2
1570180084458574,-5,0,-1,-1,0,-2,-2,-4
1570180084458574,4,1,1,0,-1,-1,-11,13
1570180084465555,0,-1,-2,-1,-1,-1,1,3
1570180084465555,1,-1,-1,-1,-1,-1,0,3
1570180084482285,-2,0,-1,0,-1,-1,-3,-1
1570180084482285,-2,-2,-1,-2,0,-1,3,-7
1570180084483509,0,0,0,0,0,-1,-1,-2
1570180084483509,2,-2,0,0,-2,1,-2,4
1570180084504461,-3,-2,-2,-2,-1,1,3,-6
1570180084504461,2,-2,1,-1,-2,0,2,0
1570180084505450,0,0,-1,-1,-1,0,-1,-1
1570180084505450,1,0,0,-1,1,-1,2,1
1570180084518707,-1,1,1,0,-2,-2,0,1
1570180084518707,-1,0,-3,-2,-1,-2,1,-2
1570180084525399,-2,-1,0,0,1,0,-1,-2
1570180084525399,2,0,-2,0,-1,-1,1,5
1570180084541357,-1,0,-1,1,0,-1,-1,-1
1570180084541357,-5,-1,-1,0,-1,-1,-3,-9
1570180084543346,1,0,1,0,-1,-1,1,1
1570180084543346,-2,-2,-1,-1,-1,-1,-1,-4
1570180084564348,1,-1,0,0,1,-2,-1,4
1570180084564348,-1,-1,-1,0,-1,-1,1,1
1570180084566286,-3,-2,-3,-2,0,-2,-3,-9
1570180084566286,-1,-1,0,1,0,0,-1,1
1570180084587234,0,0,0,0,-1,-2,-2,-2
1570180084587234,0,-1,0,-1,0,0,1,3
1570180084588230,-3,0,2,-1,-1,-1,-3,-2
1570180084588230,1,0,-2,-2,0,-1,-2,-1
1570180084602285,-4,-2,0,-1,-2,1,0,-5
1570180084602285,1,0,-1,0,1,2,0,3
1570180084603191,1,0,0,1,-2,1,-1,3
1570180084603191,-2,0,-1,1,-1,0,0,-3
1570180084624198,3,-1,-4,-1,-1,-1,0,6
1570180084624198,-3,-2,-2,-2,-1,-1,-1,-10
1570180084626127,-1,-1,-2,-1,0,0,-1,0
1570180084626127,0,-2,0,-1,-2,0,0,1
1570180084639092,-1,0,0,-1,-1,-2,-3,-2
1570180084639092,-1,0,-1,0,0,-2,1,1
1570180084646073,0,1,0,-1,0,-1,2,2
1570180084646073,-3,0,0,0,-1,0,0,11
1570180084662036,2,-1,-1,-1,0,1,-1,1
1570180084662036,-5,-1,-1,0,-2,-2,-2,-8
1570180084663106,0,-1,1,0,-1,-1,1,-3
1570180084663106,-1,0,0,-1,0,-2,0,1
1570180084683977,0,-2,-1,-1,0,0,-1,4
1570180084683977,0,0,0,-2,-1,-3,0,-5
1570180084685967,-1,-2,0,1,0,-2,1,-1
1570180084685967,2,-1,-1,0,0,-1,-3,-1
1570180084698931,-4,0,1,0,-1,0,-1,-3
1570180084698931,-1,-1,-1,-1,0,0,-1,-1
1570180084705913,-1,-2,1,-2,0,0,0,1
1570180084705913,-1,-1,-2,0,1,0,0,-4
1570180084721874,-1,0,0,-2,-1,1,1,2
1570180084721874,-3,1,-1,-1,-1,-1,0,-1
1570180084722866,-2,1,-1,0,0,0,-2,-1
1570180084722866,5,-1,-1,-2,0,1,2,9
1570180084744808,1,-1,-2,0,-1,-3,-4,-11
1570180084744808,-2,-2,-1,0,0,-1,-1,0
1570180084745806,0,-2,-3,-1,-1,0,-1,-2
1570180084745806,-5,1,-1,0,-2,-1,-2,-6
1570180084757775,1,0,-1,0,-1,-1,3,5
1570180084757775,5,0,-1,-2,0,0,-1,7
1570180084774731,-4,-3,-2,-1,-1,-2,-2,-3
1570180084774731,-3,-1,0,-1,-3,-2,-1,-6
1570180084781711,1,-2,1,-1,-2,1,1,5
1570180084781711,-4,-1,1,0,-2,2,-3,-3
1570180084783704,2,1,-2,0,0,1,2,5
1570180084783704,-4,1,-1,-2,-1,-1,-2,-8
1570180084804648,-2,1,0,1,1,0,-2,-8
1570180084804648,2,0,-2,-1,-2,0,1,7
1570180084806643,1,0,1,1,-2,-2,-3,-3
1570180084806643,0,0,0,-2,-1,-2,0,5
1570180084817613,1,-1,1,0,0,-1,-1,-8
1570180084817613,-1,-1,-1,0,0,-1,0,-1
1570180084826590,-2,-1,-1,1,-1,0,-1,-3
1570180084826590,3,0,-2,0,0,-1,0,4
1570180084841680,-2,-1,-1,0,-1,0,0,1
1570180084841680,-3,-1,0,1,1,0,0,-2
1570180084843544,5,1,-1,0,0,-2,1,7
1570180084843544,-2,-2,0,-2,-1,0,-1,-4
1570180084864530,-2,0,-2,-1,-1,-1,0,4
1570180084864530,0,-1,-2,-1,-1,0,-1,-5
1570180084866484,0,0,-2,-1,0,0,1,1
1570180084866484,0,-1,1,0,0,0,0,-2
1570180084878720,1,0,-2,-1,1,0,0,3
1570180084878720,-1,0,-3,-1,1,-1,-1,-3
1570180084887428,-4,-2,0,-1,-2,0,-1,-2
1570180084887428,1,0,-1,0,-1,-1,0,-3
1570180084902196,0,0,-1,-2,-2,1,0,1
1570180084902196,0,0,0,1,0,-3,-1,-3
1570180084903387,0,-1,-2,-2,1,-1,-1,3
1570180084903387,-1,-1,-2,-1,-1,0,-1,-1
1570180084924372,5,-1,-1,-1,-1,-1,2,11
1570180084924372,1,-2,-2,1,0,0,-2,-2
1570180084926324,0,1,0,-1,-2,0,2,0
1570180084926324,-2,-2,-2,-2,-1,-2,-1,-1
1570180084938290,-2,-1,0,-2,-1,-1,-1,-3
1570180084938290,2,1,-1,-2,0,-1,0,5
1570180084954252,1,-2,-1,0,1,-2,0,2
1570180084954252,-2,-1,1,1,-1,0,-1,-3
1570180084962230,-1,2,0,1,0,2,1,-4
1570180084962230,-4,-3,0,0,-3,-2,1,-6
1570180084964067,-1,-1,1,-1,-1,-1,-2,-4
1570180084964067,-1,0,-1,-1,0,-1,0,2
1570180084984747,-2,0,-1,-1,0,-3,-2,-2
1570180084984747,-1,-2,1,0,-3,1,1,1
1570180084986355,-1,-1,-1,-1,-1,0,0,-3
1570180084986355,1,-1,1,0,1,-2,1,-1
1570180084998307,-1,1,1,-1,-1,0,-1,1
1570180084998307,0,0,0,-1,1,-1,1,4
1570180085007111,3,-1,-2,-3,-1,-1,1,4
1570180085007111,-1,1,-1,1,-1,-1,0,1
1570180085022071,-3,-1,-3,-1,-1,-2,1,3
1570180085022071,-3,1,0,-1,-2,0,-2,-9
1570180085023065,-1,1,0,1,-3,-1,0,0
1570180085023065,0,-1,0,-1,-1,-1,-1,-3
1570180085044197,0,-2,-2,-1,-1,0,0,3
1570180085044197,-2,-1,0,0,0,-1,-2,-2
1570180085046010,-2,-1,0,0,0,0,-2,-4
1570180085046010,-2,0,-1,0,1,-1,0,-3
1570180085057975,0,-1,0,0,-1,-1,-1,-2
1570180085057975,-1,-1,0,1,0,-1,-1,2
1570180085066953,-2,-3,-2,0,0,-1,-1,-2
1570180085066953,-2,-2,0,-1,0,1,-2,-2
1570180085081913,-2,-1,0,-1,-2,-1,-3,-8
1570180085081913,2,-1,0,-2,0,0,2,5
1570180085083484,-2,-1,-2,0,0,0,0,-1
1570180085083484,-1,-2,-1,-1,-2,-1,-1,2
1570180085103849,-4,-1,-1,0,0,-2,-1,-8
1570180085103849,-2,0,-1,-1,-1,0,-2,-8
1570180085105843,-1,0,2,-1,-1,0,0,0
1570180085105843,2,-1,-1,1,-1,-1,0,1
1570180085117812,-2,-2,-1,0,0,-1,-1,2
1570180085117812,0,-1,-2,-2,-1,-1,0,5
1570180085126787,-4,-1,0,0,-1,-1,-2,-9
1570180085126787,1,-1,-1,-1,0,-1,1,5
1570180085141756,0,-1,0,1,-1,-1,-1,1
1570180085141756,-1,-1,0,0,0,0,-3,-4
1570180085143796,2,0,0,-3,-1,-2,-2,3
1570180085143796,-4,-2,-3,-3,-3,1,-2,1
1570180085164688,1,-1,-1,-2,1,-2,-1,1
1570180085164688,0,0,0,-1,0,0,-1,1
1570180085165748,-3,-1,0,-1,0,0,-1,-6
1570180085165748,4,-1,0,0,1,0,2,5
1570180085177650,-2,-1,0,1,-3,-1,-2,-1
1570180085177650,-1,0,-1,-1,0,0,0,3
1570180085186632,0,0,-1,-1,0,-1,-1,-5
1570180085186632,0,-1,1,-1,-2,0,0,-6
1570180085201690,0,-1,0,-1,-3,-1,-1,-2
1570180085201690,1,0,-1,0,-2,-2,0,5
1570180085203582,1,-1,-1,-2,-1,-2,-2,0
1570180085203582,-3,-2,-1,0,0,-1,-1,2
1570180085231528,-2,0,0,-1,0,1,1,1
1570180085231528,-2,-2,-1,0,-2,-1,-2,-1
1570180085233502,-2,1,-1,1,0,0,-2,-6
1570180085233502,3,0,0,0,0,0,0,8
1570180085246467,1,0,1,-1,-1,0,2,-1
1570180085246467,-1,-2,1,-1,1,1,0,0
1570180085248461,-5,-1,-1,0,0,0,1,-3
1570180085248461,2,-1,-1,-1,0,-1,-2,3
1570180085261428,0,-1,-2,-1,1,1,3,0
1570180085261428,-3,1,-2,-2,-1,0,-2,-5
1570180085268409,1,-1,0,-1,-1,-1,0,10
1570180085268409,-2,1,0,0,-2,0,-1,-16
1570180085284399,4,-1,0,-1,0,0,1,5
1570180085284399,0,-1,-1,0,-1,-3,-1,-1
1570180085286367,-1,0,-1,0,-1,0,-1,-2
1570180085286367,-2,-1,-1,-1,0,-1,1,3
1570180085307304,-2,0,-1,0,0,-1,-2,-3
1570180085307304,0,-3,1,1,0,-2,1,5
1570180085308308,0,-2,1,0,-1,-1,-1,0
1570180085308308,-2,0,-1,-1,-2,0,-2,-4
1570180085322273,0,-1,1,-2,0,0,0,1
1570180085322273,-1,0,0,-2,1,-1,-4,-1
1570180085323266,-2,-1,-1,0,-1,-2,1,-5
1570180085323266,-1,-1,0,0,0,-2,1,-6
1570180085344293,1,-1,-1,-1,0,-3,-1,5
1570180085344293,1,-1,-1,0,-3,1,0,-3
1570180085346200,-1,-2,-1,0,-2,0,1,4
1570180085346200,0,-1,-1,0,0,0,0,7
1570180085367193,-4,-1,-2,1,-1,0,-1,-2
1570180085367193,1,0,0,-2,0,-1,2,-2
1570180085368147,-1,0,0,1,0,0,-1,-1
1570180085368147,3,1,-1,0,0,-1,0,4
1570180085381112,-5,-1,-1,0,-2,-1,-2,-8
1570180085381112,1,-1,-2,-1,-1,-1,-2,6
1570180085388211,0,-2,-1,-2,-1,-1,-1,-2
1570180085388211,-3,-2,0,-1,-1,-1,-2,-4
1570180085404049,-1,0,0,0,-1,-2,-1,-6
1570180085404049,0,1,1,-1,-2,1,0,3
1570180085406040,-2,1,0,1,-1,-1,-1,-1
1570180085406040,-1,-1,-2,-1,-1,0,-1,-3
1570180085426983,3,-2,-1,0,-2,-1,0,3
1570180085426983,-1,-1,-1,1,-1,1,-1,-5
1570180085427980,-1,-1,0,-2,-1,0,-2,-4
1570180085427980,1,-2,-1,0,-1,0,-1,4
1570180085440947,0,1,-2,0,-1,-1,-1,-4
1570180085440947,0,-2,-1,0,0,0,0,-3
1570180085447931,1,0,0,0,0,1,1,1
1570180085447931,0,0,0,-1,-1,-1,-1,-2
1570180085464996,-3,-2,0,-1,-1,0,0,-3
1570180085464996,-4,-1,-2,-1,-1,-2,-1,-4
1570180085466017,1,-2,0,0,-1,0,0,4
1570180085466017,-2,-2,0,-1,-1,0,-1,-3
1570180085487069,0,0,0,0,0,-1,0,9
1570180085487069,-2,1,0,-2,-1,1,1,0
1570180085488702,0,0,-1,0,-1,-2,2,5
1570180085488702,-4,-3,-2,-1,0,-2,2,-6
1570180085500989,2,0,-1,-1,-1,-1,-1,0
1570180085500989,1,0,0,0,-1,-3,0,-3
1570180085509938,-3,-1,-1,-1,1,0,-3,-4
1570180085509938,3,0,-2,0,-1,0,2,4
1570180085524933,-4,-2,0,-2,-1,1,-2,-4
1570180085524933,0,-2,-1,0,-2,-1,0,1
1570180085526451,-1,1,-1,-1,-1,-2,0,-2
1570180085526451,-5,-1,0,-1,0,-2,-2,-5
1570180085547084,-1,-1,0,0,-1,0,-2,0
1570180085547084,0,-1,-1,-2,0,-1,-1,0
1570180085548346,-1,-1,-1,-2,0,-1,-1,-4
1570180085548346,-1,0,-2,-1,0,-1,-1,0
1570180085561625,0,-1,-1,-1,0,-1,-2,0
1570180085561625,-2,-1,-1,-1,0,0,-1,-1
1570180085568394,0,1,0,-1,1,2,0,-1
1570180085568394,-2,0,0,0,2,0,-1,-2
1570180085584433,-4,-1,0,-1,-1,0,1,-5
1570180085584433,-1,-1,-1,-1,-1,-2,-3,-12
1570180085586322,4,-1,-1,-1,-1,-2,1,12
1570180085586322,-1,-1,0,1,-1,0,-2,-2
1570180085607284,5,0,1,-1,0,1,1,4
1570180085607284,-3,-1,-3,-2,0,0,0,2
1570180085608453,0,-3,1,0,0,0,0,-2
1570180085608453,-2,-1,0,-2,0,-1,-2,-3
1570180085621247,-2,0,-2,-2,-1,-1,0,1
1570180085621247,-1,-2,-1,-2,-1,0,0,-1
1570180085627565,-1,-1,-2,0,-2,1,-1,2
1570180085627565,3,0,2,0,-1,1,-3,7
1570180085644945,-1,-3,0,0,1,1,-1,-6
1570180085644945,1,2,1,0,0,0,0,0
1570180085645941,-1,-2,0,0,-1,-2,-1,-3
1570180085645941,-3,0,-1,-2,-2,-1,-1,-11
1570180085667203,2,-1,0,0,0,0,-1,4
1570180085667203,-2,-1,0,-1,-1,0,-1,6
1570180085669089,-1,0,-2,-2,-1,-1,0,1
1570180085669089,-2,-2,0,0,0,-2,0,-5
1570180085681844,0,0,0,0,-1,-2,0,0
1570180085681844,0,0,-2,0,-3,0,2,-1
1570180085687462,2,-1,1,-1,-1,0,1,6
1570180085687462,-2,-1,-1,-2,1,0,0,-4
1570180085704416,-1,-1,-1,0,-2,-1,-1,2
1570180085704416,1,0,0,1,2,0,-2,0
1570180085706410,-3,-1,-2,-2,-1,-2,-1,-5
1570180085706410,1,0,0,-1,-2,0,2,5
1570180085727430,0,0,-1,0,-2,-2,0,-1
1570180085727430,2,-1,-1,-1,-2,-2,2,1
1570180085728353,-4,-3,-2,0,0,-1,-2,-12
1570180085728353,-10,-3,-1,-4,-5,-5,-4,-8
1570180085740364,6,1,-1,1,2,1,-1,5
1570180085740364,-7,-2,-3,-2,-2,1,-3,1
1570180085749353,-5,-3,-3,-7,-10,-3,0,-5
1570180085749353,9,6,7,6,3,-2,3,26
1570180085764312,-2,-1,-3,-2,-2,-1,-1,-4
1570180085764312,-12,-3,-2,3,1,-2,-1,-6
1570180085766308,2,1,-1,2,3,0,-3,-1
1570180085766308,4,3,3,2,0,0,1,10
1570180085787251,3,7,5,-5,-10,-1,12,4
1570180085787251,-3,-2,-1,-2,4,4,-2,-10
1570180085788249,2,-1,-4,0,0,-4,-3,-4
1570180085788249,2,0,-1,2,-1,-1,0,6
1570180085800316,-8,3,1,3,6,2,-6,-10
1570180085800316,18,8,-2,-6,-7,0,5,18
1570180085809250,-31,-35,-12,-6,-1,0,-3,-6
1570180085809250,6,0,-8,-5,-3,-1,-2,-4
1570180085824153,45,38,3,-1,1,3,1,-2
1570180085824153,-34,-29,-13,-3,-3,-6,-4,-9
1570180085826147,11,6,23,11,5,2,0,8
1570180085826147,-10,-11,5,4,3,2,1,-1
1570180085847090,2,-9,-13,-8,-7,-2,0,3
1570180085847090,3,24,16,8,8,-2,-6,-5
1570180085848843,22,16,-8,-1,-4,-1,0,0
1570180085848843,-6,-12,-6,0,5,0,-1,-9
1570180085860059,-32,-1,9,11,3,-1,0,2
1570180085860059,21,2,10,3,-2,0,2,8
1570180085869031,-17,0,-13,-8,-5,-1,-1,4
1570180085869031,1,3,-10,-8,-4,0,-3,-9
1570180085884000,3,-6,8,-1,0,-2,-4,-3
1570180085884000,-5,-13,-12,-1,1,-1,0,-1
1570180085886198,15,10,5,4,4,0,1,-4
1570180085886198,0,8,14,-2,-3,-2,-2,-1
1570180085907178,-14,-21,-17,-5,-2,-3,-1,-1
1570180085907178,1,9,12,-1,-3,0,0,-4
1570180085908925,7,10,8,8,4,-1,2,3
1570180085908925,-6,-1,0,5,4,-1,1,-2
1570180085920893,-1,-7,4,-1,-4,-2,-2,1
1570180085920893,1,2,-2,-6,-6,-3,-2,-5
1570180085929870,-2,-13,-25,-6,-3,0,0,1
1570180085929870,2,6,1,1,-1,1,0,1
1570180085943832,8,3,-8,-2,1,-2,-1,0
1570180085943832,6,8,5,-4,-1,1,4,6
1570180085950852,-9,-9,11,5,1,1,1,-4
1570180085950852,-4,-4,-4,-3,-1,0,-1,-4
1570180085965772,-5,-18,-22,-6,0,-1,-1,0
1570180085965772,2,7,-8,-1,10,2,-2,2
1570180085974750,-5,5,13,-2,-10,-2,1,3
1570180085974750,10,9,5,4,-4,-2,0,5
1570180085980734,0,5,4,1,2,-2,-2,-7
1570180085980734,1,-20,2,8,2,-3,-1,-1
1570180085989709,-3,-1,-11,-5,5,2,-1,-2
1570180085989709,0,-6,-9,-3,-4,-2,-1,-3
1570180086003670,-4,4,3,-3,-4,0,-1,-2
1570180086003670,-3,1,3,2,-5,-2,-1,-5
1570180086010735,5,0,-4,1,4,0,3,8
1570180086010735,5,7,12,4,-2,-1,1,3
1570180086026612,4,9,13,1,-1,-1,-2,-8
1570180086026612,-13,-22,-13,-5,5,3,1,-2
1570180086028607,-5,-7,0,-1,-17,-3,1,16
1570180086028607,8,5,-11,-7,3,-4,-6,-9
1570180086040579,0,-16,-13,0,1,-1,-6,-11
1570180086040579,4,13,13,-2,-3,0,3,8
1570180086049548,10,15,10,-3,3,0,-2,-3
1570180086049548,-8,-3,4,3,1,0,1,3
1570180086064509,-3,-18,-1,-3,-5,1,2,9
1570180086064509,-2,1,-6,-1,-2,-2,-6,-14
1570180086070694,-6,-17,-14,-3,2,-3,-2,-3
1570180086070694,6,20,14,6,-3,1,1,7
1570180086087451,-11,-1,-7,-7,-1,-2,-4,-9
1570180086087451,6,0,-4,0,-6,-2,0,2
1570180086088450,2,8,8,-3,3,2,5,10
1570180086088450,-4,-29,-33,-7,-3,-2,-2,0
1570180086100420,-7,1,3,3,0,0,-1,-5
1570180086100420,-4,13,24,3,0,1,1,1
1570180086109393,2,1,-10,-5,-3,-3,-5,-10
1570180086109393,-12,-11,-6,0,4,4,6,22
1570180086123444,17,31,43,35,22,2,0,8
1570180086123444,7,24,36,11,4,4,5,10
1570180086130335,-7,-6,-6,-2,1,-1,-5,-20
1570180086130335,-7,-19,-36,-24,-8,-3,-7,-15
1570180086147287,-7,-26,-46,-21,-8,-4,1,0
1570180086147287,0,3,2,1,0,-1,0,3
1570180086148286,-1,-1,3,-2,-6,-2,-4,-7
1570180086148286,-1,1,5,2,2,-2,-4,-14
1570180086169235,-3,-4,2,1,-3,-1,2,13
1570180086169235,7,0,-11,-3,-5,-3,-4,-4
1570180086171225,-3,-12,-15,-5,-1,0,-1,1
1570180086171225,1,11,16,12,4,0,0,2
1570180086183196,-2,3,27,4,0,1,2,1
1570180086183196,-1,-15,-26,-9,-10,-3,-5,-14
1570180086191175,-2,-1,-2,3,6,1,1,11
1570180086191175,2,5,7,0,3,0,1,2
1570180086207132,7,0,-6,-8,-7,2,1,6
1570180086207132,-12,-12,-7,2,6,-2,-1,6
1570180086208126,3,2,4,2,-6,-2,3,6
1570180086208126,-16,-9,2,2,1,-2,-12,-41
1570180086229079,10,8,-2,-2,-7,-1,-2,-7
1570180086229079,-12,3,-1,-5,1,2,-2,-9
1570180086231065,7,3,2,-3,-3,-4,-5,-10
1570180086231065,12,1,1,-5,-6,1,9,23
1570180086244033,-6,1,2,5,3,-5,-11,-29
1570180086244033,-5,-2,-7,-4,-4,-1,1,-2
1570180086250012,-13,-1,8,7,6,2,4,3
1570180086250012,12,11,-1,-3,-4,-1,1,1
1570180086266972,-18,-17,-15,-13,-8,0,3,6
1570180086266972,36,-1,-13,-1,-1,-1,1,5
1570180086268963,-3,13,19,11,1,-1,-12,-29
1570180086268963,5,6,12,-4,2,3,1,10
1570180086288916,-5,1,-4,2,0,-2,-6,-18
1570180086288916,-18,-13,-7,-3,-6,-2,-1,-11
1570180086290905,-7,-2,-2,8,14,3,4,4
1570180086290905,-1,-11,-8,-6,-8,-2,3,3
1570180086302875,-2,9,9,5,5,-1,-3,-18
1570180086302875,-3,-15,-17,-7,-6,-4,-4,-9
1570180086312846,14,12,12,2,-3,2,3,7
1570180086312846,-6,-1,-3,-3,-6,-1,-3,0
1570180086326812,18,5,-4,1,5,0,6,10
1570180086326812,-1,3,5,3,-2,-1,-3,-1
1570180086328804,-11,-1,-1,1,2,-2,-3,-5
1570180086328804,-3,2,6,7,5,1,-1,-2
1570180086349751,-1,-6,-7,-6,-7,3,7,35
1570180086349751,9,-4,-5,-10,-12,-3,-6,-15
1570180086350804,-2,-4,-4,0,-2,-7,-6,-3
1570180086350804,-20,3,6,7,7,5,9,-7
1570180086362724,32,-4,-5,1,-2,-6,-10,-23
1570180086362724,-21,-13,3,5,8,2,4,-53
1570180086371727,5,3,-1,-11,-6,1,1,-46
1570180086371727,-5,-6,-12,-8,-10,0,1,-8
1570180086387644,-12,10,21,14,13,0,0,18
1570180086387644,15,5,0,-3,-3,-2,0,-17
1570180086392631,-8,-11,-9,-6,-2,-1,-1,-23
1570180086392631,-2,-1,-2,-2,0,-2,1,-27
1570180086409594,-3,2,-1,-3,0,2,4,-1
1570180086409594,3,3,3,0,-3,2,2,13
1570180086411192,6,0,-5,-6,-2,-1,-2,10
1570180086411192,6,0,1,3,0,-1,-8,-28
1570180086422563,1,1,1,3,3,0,-4,-48
1570180086422563,-6,6,1,-4,-3,-2,-1,-15
1570180086431532,-3,-5,-1,0,3,0,0,5
1570180086431532,-2,-5,-8,-4,-6,-2,2,52
1570180086446491,5,3,7,-2,2,0,-1,42
1570180086446491,-12,2,-1,6,6,0,3,54
1570180086448484,4,1,3,-2,0,2,2,30
1570180086448484,11,-5,-7,-5,0,-3,-5,30
1570180086469431,-7,2,2,-2,-3,-1,1,26
1570180086469431,1,1,-3,-5,2,0,1,17
1570180086475589,-3,0,3,5,-2,2,-1,16
1570180086475589,14,10,2,5,2,-2,-2,14
1570180086483437,-12,-10,-12,-18,-12,0,9,57
1570180086483437,16,9,2,25,21,-2,-10,-24
1570180086492369,-13,-5,10,0,-1,1,4,22
1570180086492369,2,-3,0,-7,-10,0,-2,-8
1570180086507325,-27,-4,-6,9,9,3,-1,8
1570180086507325,-3,-4,3,-1,0,3,3,8
1570180086508327,-6,-1,-4,1,-2,2,5,6
1570180086508327,64,20,3,3,1,-2,2,31
1570180086529278,-6,-3,0,-5,-7,-3,-5,-11
1570180086529278,10,-1,-5,-7,-5,-3,0,15
1570180086531261,-24,-9,-5,0,-2,-2,1,-16
1570180086531261,-23,-5,5,-2,-1,0,2,0
1570180086543238,7,5,1,-4,-6,-3,0,-2
1570180086543238,-8,-2,-1,-2,2,1,3,2
1570180086558193,16,10,6,3,6,-1,0,-14
1570180086558193,-16,-4,-1,3,6,-2,0,-5
1570180086567263,6,-3,-3,0,-1,3,10,30
1570180086567263,-14,-5,-2,1,-3,-2,-8,-23
1570180086568475,8,-2,-7,-9,-8,-2,3,16
1570180086568475,-5,-3,-3,-4,-4,-1,-6,-19
