timestamp,emg1,emg2,emg3,emg4,emg5,emg6,emg7,emg8
1570180096539719,-3,0,0,-1,-1,-1,1,-1
1570180096539719,-4,0,-2,0,-2,-2,0,-5
1570180096540599,8,1,0,0,0,-2,-14,9
1570180096540599,-1,0,0,0,-1,-1,0,0
1570180096542702,0,-2,-1,-1,-1,-1,-1,1
1570180096542702,0,0,-1,0,0,-2,0,-3
1570180096543590,-2,0,0,-2,-1,1,4,-4
1570180096543590,0,-1,-1,-1,-2,0,-4,0
1570180096549582,0,2,-1,0,-1,0,-2,3
1570180096549582,0,-1,-1,-1,-3,-1,-1,-3
1570180096557554,3,0,-2,0,-1,-3,-3,0
1570180096557554,2,-1,-1,-1,-2,0,1,1
1570180096564537,-3,-1,1,-3,0,-1,3,2
1570180096564537,0,0,0,-1,-1,0,-1,2
1570180096583486,-4,-2,-1,-1,0,2,4,-4
1570180096583486,-4,-2,0,0,1,0,-3,-4
1570180096585483,0,-2,-1,0,-2,0,0,1
1570180096585483,1,-3,-2,1,-1,0,-3,1
1570180096610452,-1,-1,-3,-1,-2,-1,0,-2
1570180096610452,0,1,-1,1,1,-2,-3,2
1570180096610452,2,0,-1,-2,0,-2,-3,3
1570180096610452,-6,-3,-1,-2,0,1,12,-9
1570180096649434,-1,-1,-1,0,0,-2,-1,-3
1570180096649434,-6,1,-1,-1,0,0,-2,-13
1570180096650306,6,-1,-2,-2,-2,0,1,12
1570180096650306,-2,0,-1,-2,-1,0,1,-1
1570180096651318,3,1,1,-1,-1,1,5,18
1570180096651318,0,-1,0,-1,-2,-1,-2,-10
1570180096653359,-5,-1,-1,0,0,0,5,-10
1570180096653359,4,0,-1,0,0,-1,-4,3
1570180096661276,-2,0,-2,-1,0,-2,-5,-5
1570180096661276,3,0,0,0,-2,0,2,6
1570180096668385,-10,-1,0,0,-1,1,1,-20
1570180096668385,9,-1,-1,1,-1,0,4,25
1570180096677251,-6,-1,-1,-1,0,-1,-2,-14
1570180096677251,7,1,1,0,0,-2,-13,22
1570180096690586,3,2,1,-1,0,-2,-2,12
1570180096690586,-5,0,-1,-3,-1,0,0,-2
1570180096699174,5,0,-1,0,-1,1,-3,-2
1570180096699174,-6,-2,-1,-2,-1,0,3,-13
1570180096722169,5,-1,-3,-1,0,0,0,12
1570180096722169,-2,-1,-2,-1,-1,1,-1,-1
1570180096723351,1,-1,-1,-1,-2,0,6,9
1570180096723351,-5,0,0,0,-1,-3,1,-18
1570180096736242,4,4,-1,1,0,-3,-6,4
1570180096736242,-7,-1,-1,0,0,-1,-1,-13
1570180096743109,-1,0,-1,0,0,0,-2,-8
1570180096743109,-3,-2,-1,-1,1,2,6,-4
1570180096759014,-2,-2,-1,-1,-2,0,15,10
1570180096759014,-6,0,0,-1,0,-3,-5,-14
1570180096761009,-4,1,1,0,1,-1,-3,-8
1570180096761009,2,0,-2,0,-1,1,1,12
1570180096782047,-1,-2,0,0,1,0,-1,-5
1570180096782047,-2,-1,-1,-1,-1,0,-2,-7
1570180096783349,-1,-1,-1,0,-1,-1,-2,2
1570180096783349,-3,-1,0,-2,0,-3,-2,-6
1570180096795917,-5,-1,-2,-2,0,-1,-5,-10
1570180096795917,0,0,-1,-1,-1,-1,3,1
1570180096803275,-6,-1,-1,-1,-2,-1,-5,-7
1570180096803275,11,0,-2,-2,0,0,1,22
1570180096819852,-1,-1,-2,-1,-1,1,-4,-3
1570180096819852,0,1,0,0,0,-1,-1,2
1570180096820921,-7,-2,0,-2,-1,-1,2,2
1570180096820921,-1,0,1,1,-1,0,2,10
1570180096841802,6,-1,-1,0,-2,0,-9,13
1570180096841802,2,1,0,-1,-1,0,1,-1
1570180096843788,-6,-3,-1,-1,-1,0,11,-7
1570180096843788,1,2,0,1,2,-3,-8,-3
1570180096855914,-2,0,0,-1,2,-1,-1,-4
1570180096855914,-1,-2,-1,1,-1,2,2,-1
1570180096864733,1,-1,-1,0,0,-1,1,0
1570180096864733,-6,-1,-2,-3,-1,0,1,-8
1570180096879855,-2,-2,-1,-1,-2,2,4,8
1570180096879855,2,1,-1,0,-1,-2,-3,-1
1570180096880793,7,-1,-1,1,2,0,0,11
1570180096880793,-1,-1,-1,1,-1,1,3,6
1570180096901639,-5,-1,-2,1,-1,-1,-1,-9
1570180096901639,-2,0,0,-1,-2,-2,-2,-12
1570180096903627,11,0,-2,-1,-2,-2,-3,22
1570180096903627,0,-2,-2,-2,-2,-1,0,-1
1570180096916593,-7,-2,-2,-1,-1,-1,9,-17
1570180096916593,0,-1,-1,-2,-1,-1,-1,1
1570180096922578,-3,-2,-2,-1,-1,-2,-5,-9
1570180096922578,-3,-1,-2,-1,-2,0,3,-11
1570180096939533,5,0,2,1,-2,-2,-3,1
1570180096939533,-2,0,-2,-1,1,-1,1,3
1570180096940530,-5,2,0,0,-1,0,-2,-12
1570180096940530,5,1,0,0,0,2,1,-2
1570180096961479,2,-3,-1,-1,-1,0,-3,5
1570180096961479,-4,-1,0,-1,-1,-1,-2,-5
1570180096963478,2,0,0,0,0,-1,-4,-3
1570180096963478,0,-3,0,-1,-2,0,0,-3
1570180096976446,-1,-1,-1,-2,-1,-1,-3,-7
1570180096976446,2,-1,-2,-1,1,0,-2,1
1570180096983416,-2,-1,-3,-1,-1,0,2,4
1570180096983416,4,0,-2,-1,-1,-2,1,5
1570180096999372,-3,1,0,-1,-2,-4,-2,-1
1570180096999372,6,0,0,-1,-1,-3,-10,19
1570180097001369,-5,2,0,-1,-1,1,2,-16
1570180097001369,3,-1,-1,-1,-2,-1,-1,3
1570180097022315,-3,0,-1,0,0,1,-2,-2
1570180097022315,-2,-1,0,0,0,-1,1,-5
1570180097024305,2,-3,-2,-3,0,1,0,2
1570180097024305,-2,0,0,1,-2,-1,-7,2
1570180097036273,-6,-3,-3,-2,-1,-1,4,-4
1570180097036273,-4,-2,1,-1,-1,0,2,-3
1570180097043294,5,-2,-1,-2,1,1,1,9
1570180097043294,-7,-1,-1,0,2,0,0,-6
1570180097059212,4,0,-2,-1,0,2,3,18
1570180097059212,3,1,1,2,0,1,4,9
1570180097061431,-3,-1,0,0,-2,-3,-2,1
1570180097061431,-4,-3,-2,-1,0,-1,0,-3
1570180097082150,-2,0,0,1,-1,-2,-5,1
1570180097082150,2,-1,-2,-3,-1,0,-1,0
1570180097083419,-4,1,2,-2,0,1,5,-10
1570180097083419,2,2,1,-1,0,-2,-6,6
1570180097095115,-2,-2,-3,0,0,2,0,-3
1570180097095115,-2,-2,-1,-2,0,2,3,-3
1570180097104090,-4,-2,-1,0,-1,-1,-1,-11
1570180097104090,-4,0,-1,-1,0,0,0,-5
1570180097119058,3,-1,0,0,1,-1,-3,-5
1570180097119058,6,-2,-3,-1,-1,-3,3,20
1570180097121048,-1,0,1,1,1,0,-3,-1
1570180097121048,0,-2,-2,-1,1,0,1,-7
1570180097141989,3,2,2,1,-1,-1,-5,0
1570180097141989,-2,1,-1,0,1,-1,5,4
1570180097142987,0,-2,0,-1,0,-1,-2,2
1570180097142987,-3,-2,-1,-2,-2,-1,1,-5
1570180097155956,-2,1,-3,-1,-3,-1,-2,-18
1570180097155956,-9,-3,-2,1,-2,3,11,-24
1570180097164961,4,0,-1,1,0,-2,-4,6
1570180097164961,-2,0,1,-1,-2,0,-2,-1
1570180097178974,-3,-1,0,-2,-1,-1,-3,-1
1570180097178974,-1,0,-1,-4,-3,0,-2,-7
1570180097181014,-4,0,0,-1,-1,-1,-4,-6
1570180097181014,0,0,-1,1,1,0,0,1
1570180097201829,3,0,2,-2,0,-1,-1,9
1570180097201829,-1,-4,-2,-1,0,-1,-3,-2
1570180097203828,-3,-3,-1,-1,-1,-1,-2,-16
1570180097203828,4,1,-1,-2,0,-1,-1,17
1570180097215794,0,1,-1,0,0,0,-3,-5
1570180097215794,-1,1,1,-1,-1,-1,-4,-3
1570180097224769,-1,-1,-1,-2,-2,0,4,5
1570180097224769,2,-1,0,1,-1,-4,-11,11
1570180097239772,-1,-1,0,0,0,0,1,-1
1570180097239772,2,0,-1,0,-1,-1,-2,7
1570180097240727,4,2,-1,0,0,0,-1,11
1570180097240727,-2,-1,0,-1,-2,-1,1,-9
1570180097261671,0,-1,-1,-1,-1,-2,4,7
1570180097261671,-2,-1,0,0,-2,0,-5,-7
1570180097263766,-2,-2,0,-1,-2,-1,4,-2
1570180097263766,0,-1,1,-2,0,-1,1,-4
1570180097275633,-1,-1,-1,0,-1,-3,-3,-8
1570180097275633,-1,0,-1,-1,1,0,1,-1
1570180097284609,1,0,-2,-1,1,1,1,20
1570180097284609,3,-1,-1,-1,-3,1,1,-10
1570180097298571,0,0,0,-1,0,1,1,-4
1570180097298571,-1,1,-1,-1,0,-3,-4,2
1570180097306559,-3,-1,1,-1,0,0,0,-6
1570180097306559,0,0,-2,0,-1,-1,1,4
1570180097321569,-5,-2,-2,-2,-1,-1,-1,-5
1570180097321569,2,1,2,0,0,0,-4,3
1570180097323589,2,2,1,1,0,-1,-8,-1
1570180097323589,-3,-2,-1,-1,-1,-2,-1,-3
1570180097335473,0,-1,0,1,-1,0,-2,0
1570180097335473,-2,-1,-1,0,-2,-1,1,-5
1570180097344561,-3,-1,-1,2,-2,-3,0,-1
1570180097344561,0,-2,-2,0,0,0,1,0
1570180097359504,2,1,1,-1,-2,-2,-1,2
1570180097359504,-2,-1,-1,-3,-1,0,1,-4
1570180097361269,3,2,1,2,2,0,1,14
1570180097361269,-2,-1,-1,0,0,1,-3,-4
1570180097381633,-1,-1,0,1,0,0,2,-2
1570180097381633,0,-2,-1,1,0,0,1,5
1570180097383346,-1,0,-2,-3,-1,-2,-2,-5
1570180097383346,-4,-2,-2,-1,-1,2,14,-2
1570180097395351,-3,-1,-1,-1,-1,0,-2,-3
1570180097395351,-4,-1,-2,0,0,-1,-4,-9
1570180097404289,-2,-2,0,1,0,-1,-2,-8
1570180097404289,0,-1,-1,-1,0,-1,0,4
1570180097419250,-1,-3,-2,0,2,-2,2,1
1570180097419250,0,1,0,0,0,-1,-4,0
1570180097421340,-1,-3,-1,-1,-1,-1,2,-9
1570180097421340,-1,0,1,0,0,0,-2,3
1570180097442192,1,1,-1,-2,0,1,1,-4
1570180097442192,-2,0,1,0,1,1,0,-4
1570180097444182,10,3,1,1,1,-4,-18,0
1570180097444182,-6,-1,-1,-1,0,-2,-2,-3
1570180097463366,5,1,1,-2,-1,0,-1,7
1570180097463366,-1,-1,-1,-1,0,-1,1,-1
1570180097472119,-2,0,-2,-1,-1,1,1,-3
1570180097472119,0,1,-1,-1,1,-1,-2,-6
1570180097479166,-1,0,-3,0,1,0,1,-1
1570180097479166,4,0,1,-1,0,-2,-14,6
1570180097481102,-2,-1,0,0,0,2,1,-3
1570180097481102,3,0,-1,-2,-1,-2,-1,10
1570180097502143,-1,0,2,1,0,-1,-1,1
1570180097502143,0,-3,-1,-2,-1,-1,6,-2
1570180097503478,-4,-2,-1,-1,-2,1,-1,-5
1570180097503478,0,0,1,0,-1,-1,-6,-14
1570180097523278,-1,0,0,0,0,1,1,1
1570180097523278,-3,-1,-1,0,0,-2,2,-1
1570180097531950,0,-1,0,0,0,0,1,0
1570180097531950,-1,-3,-2,-1,-1,1,3,-6
1570180097539952,1,0,-1,0,-1,-1,-2,-1
1570180097539952,-4,-2,-3,0,0,-1,5,-8
1570180097541031,0,0,0,-2,-2,-1,0,5
1570180097541031,-1,0,0,0,-1,0,5,-8
1570180097562073,1,0,-1,0,-1,-2,-9,-2
1570180097562073,7,-1,-1,-1,-1,-1,0,3
1570180097563863,1,0,-2,2,-2,-2,-2,2
1570180097563863,-1,0,-1,-2,0,0,0,0
1570180097584880,0,-3,-2,-1,-3,-1,3,3
1570180097584880,-2,-1,0,-2,0,-2,-2,-4
1570180097585812,-2,-1,-1,-1,0,-2,0,2
1570180097585812,4,-1,1,1,1,-1,-7,7
1570180097599862,-5,0,-1,0,0,-1,-1,-3
1570180097599862,0,1,0,-1,0,-1,0,8
1570180097600886,-2,-1,-3,-1,-1,0,3,0
1570180097600886,-3,0,0,-2,0,-1,-1,1
1570180097620712,-2,0,1,-1,-1,-1,2,-2
1570180097620712,-1,-2,-1,-2,-3,1,0,-7
1570180097629695,0,-1,-1,-1,0,-2,1,5
1570180097629695,0,-1,0,-1,-1,0,-2,-9
1570180097644827,-1,-1,0,0,-1,1,-1,-5
1570180097644827,6,0,0,0,-3,-2,1,13
1570180097645646,2,0,0,-2,-2,1,1,8
1570180097645646,-1,0,-1,1,-1,-1,-2,8
1570180097666708,0,-1,-1,-1,-1,0,1,9
1570180097666708,1,2,2,-1,2,-2,-16,3
1570180097668581,1,-2,-1,0,-2,1,3,4
1570180097668581,-2,-2,-1,1,-1,-1,-1,-1
1570180097680993,-3,-1,0,-1,0,-2,-4,-9
1570180097680993,-3,-1,0,0,-1,0,4,6
1570180097689528,1,-1,-1,-2,-1,-1,0,0
1570180097689528,-14,-3,-2,-3,0,-2,0,-24
1570180097704688,8,-2,-3,0,1,-1,-1,6
1570180097704688,-2,-1,-1,0,0,0,1,-4
1570180097705487,-3,0,-1,0,0,2,0,-5
1570180097705487,4,0,-1,0,-2,0,-1,7
1570180097727427,-3,0,-1,0,-1,-1,2,-2
1570180097727427,-4,-1,-2,-1,-1,1,1,-7
1570180097728425,7,1,0,-1,-1,-2,-2,2
1570180097728425,0,0,1,-1,1,0,0,2
1570180097741440,-3,-3,1,0,-3,1,0,-2
1570180097741440,-1,1,1,0,-1,0,-1,1
1570180097749373,-5,-1,-2,-1,0,0,-2,-14
1570180097749373,4,2,-1,-2,1,-1,-1,7
1570180097764329,-1,-1,-1,-2,-1,-3,-1,0
1570180097764329,2,-3,-3,-1,-1,1,5,0
1570180097766321,-1,-1,0,-1,0,0,2,3
1570180097766321,6,-1,-1,1,1,1,1,21
1570180097787279,-2,-1,-2,1,-1,0,-1,-5
1570180097787279,-5,0,-2,0,-2,-1,1,-10
1570180097788265,-2,0,0,0,1,0,0,1
1570180097788265,1,2,0,2,1,-1,-5,8
1570180097800393,-3,0,-3,-1,-1,-2,0,-3
1570180097800393,0,1,1,1,1,-1,3,9
1570180097809270,-3,0,0,0,1,1,-3,0
1570180097809270,-4,-2,0,-2,-2,-2,0,-10
1570180097824168,-1,0,-1,-1,1,-1,0,-2
1570180097824168,-2,-1,0,-1,1,-3,-1,-7
1570180097826221,-3,-3,-1,-2,-1,-1,2,-4
1570180097826221,0,-2,-3,-1,-1,0,1,2
1570180097847113,3,2,0,-2,-1,-1,3,6
1570180097847113,0,0,1,1,-2,0,-2,-3
1570180097848105,-5,0,0,-1,-1,-1,-1,-7
1570180097848105,-2,-2,-2,0,-2,-2,-2,-3
1570180097860069,-3,-1,0,-2,-1,0,-1,0
1570180097860069,-5,-4,-3,0,-1,1,0,1
1570180097869048,-1,1,0,0,-1,-1,-3,0
1570180097869048,2,0,0,-1,1,-1,-2,-8
1570180097884171,2,-1,-1,-1,0,1,0,0
1570180097884171,-10,-8,-2,1,-1,0,-4,-3
1570180097886001,4,4,-2,0,-2,-2,-2,0
1570180097886001,6,9,0,-4,-2,-2,-2,-6
1570180097906943,4,2,-3,-2,-1,-3,-1,-1
1570180097906943,0,-2,0,0,0,0,0,-1
1570180097907942,-7,-6,0,1,-1,0,1,3
1570180097907942,-5,-3,-1,1,0,-1,1,2
1570180097919945,-1,4,-2,-2,-3,-4,-3,-3
1570180097919945,-1,0,-3,-1,0,-2,-5,-6
1570180097928914,2,-2,-1,-1,-1,-2,-3,0
1570180097928914,-2,-1,0,-1,-3,-4,3,-1
1570180097943844,-1,-1,2,3,5,-4,-2,3
1570180097943844,2,0,-2,-3,-1,14,7,0
1570180097945840,3,0,0,-1,-1,-5,-1,-1
1570180097945840,-5,-3,-3,-5,-17,-1,-5,-4
1570180097966787,-4,-4,1,-4,-12,-14,-2,0
1570180097966787,4,3,1,13,35,19,2,2
1570180097968813,-4,-6,-9,-17,-30,-30,-5,-6
1570180097968813,3,4,9,20,56,25,2,9
1570180097980794,-1,-1,-2,-8,-31,-2,0,-2
1570180097980794,2,3,1,-1,3,-7,-2,-7
1570180097989724,0,-2,0,3,-4,11,-4,0
1570180097989724,-9,-6,-7,3,26,-39,-22,-10
1570180098004686,4,2,2,5,27,39,23,8
1570180098004686,4,3,3,-4,-22,-8,1,3
1570180098005683,1,0,0,4,2,6,4,3
1570180098005683,-4,-2,-2,-7,-25,-8,0,-3
1570180098027316,1,-1,-1,0,-4,9,-4,8
1570180098027316,-5,-3,-1,-5,-7,-15,-5,-6
1570180098028736,8,1,3,4,7,12,9,3
1570180098028736,-2,-3,-2,-1,-11,-18,-5,-6
1570180098049347,-6,-4,-3,2,18,-8,8,-14
1570180098049347,2,1,1,-4,-6,23,2,3
1570180098051025,0,1,1,7,14,-13,-7,2
1570180098051025,1,0,2,0,6,17,18,1
1570180098063896,-5,-1,-1,-3,-8,-12,-14,-9
1570180098063896,0,-3,-3,-3,-3,-14,-21,-10
1570180098070694,0,1,-1,0,3,32,20,-1
1570180098070694,8,3,0,-1,-8,-14,-17,20
1570180098086605,3,-1,2,5,4,5,1,6
1570180098086605,-9,-2,-4,-5,-8,-5,8,-10
1570180098088732,-2,-2,-2,-3,-5,-9,-8,-3
1570180098088732,1,-1,0,-3,-9,12,9,0
1570180098109164,-3,-1,-2,-1,0,-9,-8,-4
1570180098109164,2,1,-1,3,1,-6,-1,5
1570180098110845,-7,-5,-1,-1,4,3,2,1
1570180098110845,7,6,-1,-3,-5,5,6,-2
1570180098123146,0,-2,0,0,-2,0,-7,-1
1570180098123146,3,0,-1,-2,-1,-2,5,2
1570180098130222,0,0,0,-2,0,-5,-4,-1
1570180098130222,-4,0,0,-2,-4,4,-3,-5
1570180098146941,-3,-5,-3,-2,-3,-2,1,1
1570180098146941,-12,-17,-1,-1,0,1,-2,-9
1570180098148136,4,8,-1,-4,-1,-5,6,-10
1570180098148136,3,0,0,0,-5,2,0,0
1570180098169101,1,-2,-2,-1,1,3,7,0
1570180098169101,4,2,0,-1,1,-4,0,6
1570180098171070,-8,-5,0,2,-1,1,-2,-11
1570180098171070,-3,-5,-3,-3,-4,1,3,9
1570180098184195,6,1,-2,-2,-2,0,-1,9
1570180098184195,-3,1,0,1,-1,-3,1,-3
1570180098191073,0,2,1,0,-2,-2,-4,3
1570180098191073,-2,2,0,-1,-2,3,-1,-4
1570180098207171,-4,-1,0,0,-1,-4,-6,-4
1570180098207171,0,4,-1,1,0,-3,-1,-1
1570180098208323,10,2,-1,-1,0,-1,-1,18
1570180098208323,-4,-3,-2,0,-2,3,0,-1
1570180098229735,-1,-1,0,2,-1,-3,-2,-4
1570180098229735,2,2,-1,0,0,0,2,-2
1570180098230983,-3,-1,-1,-1,-3,-6,-2,-4
1570180098230983,-2,-4,2,0,-2,3,2,-4
1570180098244098,-2,-1,0,-3,0,-3,-5,-1
1570180098244098,3,3,1,-1,-2,-3,0,4
1570180098250911,-5,-2,-1,-1,-1,-1,-5,-1
1570180098250911,-1,-2,1,0,-2,6,5,-1
1570180098267066,1,0,-1,0,8,3,2,-1
1570180098267066,0,1,0,0,-10,3,3,2
1570180098268872,3,0,0,-1,-2,-6,-17,7
1570180098268872,-6,1,-1,-1,-1,-2,1,-6
1570180098289882,3,0,-2,-1,-2,0,-2,-7
1570180098289882,-2,-1,0,1,3,-2,-5,-7
1570180098291443,4,1,-1,-1,2,2,6,9
1570180098291443,-1,-1,-2,0,-3,-1,0,3
1570180098303427,-2,0,1,1,0,-1,-5,9
1570180098303427,1,-1,-1,-2,4,-1,3,0
1570180098310554,-3,-1,0,-1,-4,0,1,-8
1570180098310554,-3,0,-2,-2,1,-1,2,1
1570180098327365,-1,-2,-1,-1,-2,-5,1,-2
1570180098327365,1,0,1,-2,1,-1,-1,0
1570180098328556,-2,-2,0,0,3,0,1,-4
1570180098328556,0,-2,-2,0,0,-2,-1,-4
1570180098349449,-1,0,1,1,-1,0,0,-2
1570180098349449,0,0,-2,-2,-4,-2,2,6
1570180098351294,0,0,2,0,5,2,-5,-7
1570180098351294,6,2,0,-1,-1,-1,-16,25
1570180098363481,-3,0,-1,-3,-3,0,5,0
1570180098363481,1,2,-2,1,0,-1,0,4
1570180098370459,-3,-3,-2,0,-2,6,-4,-4
1570180098370459,-2,-1,0,-1,3,-7,-3,-9
1570180098387381,-1,0,1,1,1,-1,-1,-3
1570180098387381,0,0,0,-2,-7,-12,-1,1
1570180098388630,0,-1,-2,-1,5,7,6,2
1570180098388630,-1,-2,0,0,0,-1,-1,-9
1570180098408141,1,-1,-1,-1,0,5,0,2
1570180098408141,-2,-1,-1,-2,0,-2,-1,-4
1570180098417118,-1,0,-1,-2,-1,-1,1,-2
1570180098417118,0,-1,0,1,-1,-1,4,-1
1570180098424100,-1,-1,0,0,0,-6,-5,1
1570180098424100,-3,-1,-1,-1,-1,2,-5,-14
1570180098430707,-3,0,-2,0,-2,-4,-3,2
1570180098430707,-4,-1,-1,-2,-1,1,2,-9
1570180098447036,-2,1,-1,-1,-4,-2,2,2
1570180098447036,2,0,-1,0,3,2,1,0
1570180098448135,-1,-2,-1,-2,-2,-5,-1,-1
1570180098448135,1,1,0,1,-2,-4,-17,2
1570180098469286,-1,-1,-1,-4,0,1,2,0
1570180098469286,-2,-1,0,-1,1,-2,1,1
1570180098470972,1,0,0,-1,-1,-1,-4,-2
1570180098470972,0,1,-2,0,-1,2,6,-1
1570180098483938,-2,0,-1,1,-2,-1,0,-2
1570180098483938,2,0,-1,0,1,8,0,8
1570180098490920,-1,-2,-1,-2,-4,-13,1,0
1570180098490920,-1,-1,-1,-3,3,16,5,-4
1570180098507361,0,0,-1,-1,-2,-3,-2,5
1570180098507361,-2,-1,-1,-1,0,-1,2,-4
1570180098508873,-1,2,-1,0,0,0,-1,-2
1570180098508873,-2,-2,-2,-3,-1,-3,4,-6
1570180098529816,0,-1,1,-2,-2,-3,-2,-3
1570180098529816,1,-1,0,-2,1,1,-9,9
1570180098530895,-1,-1,-2,1,0,0,2,0
1570180098530895,1,-2,-3,1,-2,-4,2,2
1570180098542782,1,1,2,0,2,1,-1,-1
1570180098542782,-1,0,-1,1,1,-2,-1,-1
1570180098551759,-1,0,1,-2,-2,1,1,-1
1570180098551759,0,0,1,-3,0,-1,-1,-1
1570180098567211,0,-1,-2,0,-1,2,-3,4
1570180098567211,-1,-1,0,1,-1,-2,0,-2
1570180098568709,0,0,1,0,0,-1,0,2
1570180098568709,-1,-2,0,0,-3,-1,-1,2
1570180098589655,0,-2,-2,-2,-2,-2,-1,-1
1570180098589655,0,-2,-2,-2,0,-1,1,2
1570180098590650,-1,0,1,0,1,-1,-1,6
1570180098590650,-2,-2,-1,-2,-2,-2,3,-12
1570180098602618,3,-1,0,1,-1,-2,-12,6
1570180098602618,-2,-1,0,-1,0,1,0,-2
1570180098611650,-2,-3,-1,1,-1,0,2,-2
1570180098611650,0,-1,-1,0,-1,0,2,0
1570180098626554,-3,0,-2,-1,-1,-2,4,-8
1570180098626554,1,0,0,0,-1,1,0,3
1570180098628549,2,-2,0,-1,1,-2,-6,3
1570180098628549,-2,0,-2,-1,1,2,0,1
1570180098649494,-5,-1,0,-2,-1,-2,0,-12
1570180098649494,0,-3,-1,0,-5,-8,-5,-9
1570180098650492,-2,0,0,0,0,7,6,-3
1570180098650492,-1,1,0,0,1,-3,-2,-3
1570180098663214,0,-1,-1,-1,0,3,2,2
1570180098663214,-1,1,1,-1,0,0,2,0
1570180098671435,-1,1,0,-1,2,2,1,-5
1570180098671435,1,-1,1,0,-4,-7,-3,2
1570180098686493,1,-2,1,-2,1,7,5,1
1570180098686493,-2,-1,-1,-1,-1,-2,0,-3
1570180098688390,-2,-3,-2,-3,-3,1,-2,-6
1570180098688390,2,1,1,-1,-1,1,-2,5
1570180098709333,2,1,-1,1,-3,-2,-5,0
1570180098709333,-1,-1,-1,0,-2,3,7,-3
1570180098710330,2,3,1,1,-1,-5,-14,2
1570180098710330,0,-1,0,-1,-1,-2,0,-1
1570180098723297,-3,-3,-3,0,-1,-3,3,2
1570180098723297,-3,-2,-1,0,-2,-2,-6,-26
1570180098738256,-1,-2,-3,-1,-1,-2,3,1
1570180098738256,-3,-1,0,-1,-1,-1,-1,1
1570180098747234,0,1,3,0,2,-1,0,3
1570180098747234,-1,1,-3,-2,-2,1,-2,8
1570180098749228,-3,-1,-1,-1,-2,-2,3,-3
1570180098749228,0,-1,0,1,-1,0,-2,-3
1570180098769173,-2,-2,-2,-2,-2,0,1,-4
1570180098769173,1,-2,-3,-1,0,0,1,6
1570180098771168,-2,-1,-1,-3,-3,-7,-2,1
1570180098771168,-1,0,-1,0,-1,6,2,4
1570180098783135,-2,0,1,0,0,-2,-1,-2
1570180098783135,1,-1,-1,0,2,0,0,5
1570180098792112,0,-1,0,-1,-1,0,0,1
1570180098792112,-1,-2,-2,-1,-1,0,5,0
1570180098807072,5,0,1,1,-1,-3,-10,12
1570180098807072,0,1,0,0,0,1,-2,0
1570180098808451,-1,-2,-1,-1,-1,1,2,-6
1570180098808451,1,0,-1,-2,-1,-2,0,2
1570180098830010,0,-3,-4,-2,-1,0,2,-1
1570180098830010,-2,-3,0,-1,-1,-1,-1,1
1570180098831009,0,-1,0,0,0,1,-1,2
1570180098831009,1,0,-1,-1,-2,-1,-6,-4
1570180098843093,-1,-1,0,0,-2,-5,-1,-3
1570180098843093,3,0,1,0,2,9,1,4
1570180098851952,-1,0,0,-2,2,6,2,-1
1570180098851952,-2,0,-1,0,-5,-8,-2,-4
1570180098866961,-3,0,-1,0,1,-1,3,0
1570180098866961,-3,-2,-2,-2,-1,-3,7,-5
1570180098867909,0,3,2,1,-1,0,0,-1
1570180098867909,-2,-1,-1,-1,0,4,0,1
1570180098888853,-4,0,-1,0,-1,-4,0,-10
1570180098888853,7,1,1,1,0,1,-13,13
1570180098890848,1,-2,-3,0,0,-1,-1,0
1570180098890848,-3,-3,-2,0,-2,-4,0,-4
1570180098902817,-1,1,0,-1,0,-5,2,-6
1570180098902817,1,-1,1,1,-1,-2,3,13
1570180098912011,-2,-2,-1,-1,-2,-6,0,-5
1570180098912011,0,0,2,0,0,3,-1,4
1570180098926854,0,-2,-1,0,2,1,0,1
1570180098926854,-2,-1,-2,0,-1,-3,-1,-3
1570180098928748,-1,0,1,1,-1,1,-4,-2
1570180098928748,0,-1,-1,-1,0,-1,3,2
1570180098949690,2,1,-1,-2,-2,2,0,1
1570180098949690,-2,0,0,0,-1,-3,0,0
1570180098950688,1,-1,-2,-2,-1,0,1,-7
1570180098950688,-1,-1,0,-1,1,0,-2,-5
1570180098971631,0,-2,1,-1,-1,0,-2,1
1570180098971631,-1,-1,-2,-2,-1,-1,-1,0
1570180098973626,0,0,-1,-1,1,-1,0,5
1570180098973626,1,0,-1,0,0,-1,2,-1
1570180098986592,0,0,-1,-1,-1,2,-1,1
1570180098986592,-5,-1,-1,-1,-1,-2,2,-6
1570180098988586,-2,-1,1,-2,-2,0,-1,-3
1570180098988586,-4,-1,-1,-1,0,1,7,-8
1570180099009530,0,0,-1,-1,-1,0,-5,3
1570180099009530,-3,1,-1,-2,0,-2,-2,-10
1570180099010528,-1,1,-1,-1,1,-3,1,-2
1570180099010528,0,0,-3,-1,-1,-1,0,0
1570180099031481,2,1,-1,-1,-1,2,-3,0
1570180099031481,-1,-1,2,0,-1,-1,-1,3
1570180099033768,3,1,-1,1,-1,-1,4,17
1570180099033768,0,-2,0,1,0,-2,-4,3
1570180099046432,0,-1,-2,-1,-1,-1,3,0
1570180099046432,-1,2,0,0,1,-1,-2,1
1570180099048426,-1,0,0,0,-2,0,-1,-2
1570180099048426,1,0,0,0,1,0,-4,3
1570180099069371,-3,0,0,0,1,3,1,-2
1570180099069371,-4,-2,0,-1,-3,-2,2,-7
1570180099070373,4,-1,-2,-3,-1,2,5,4
1570180099070373,-2,0,0,0,-2,0,-5,-2
1570180099091311,1,0,0,-1,0,-4,-1,0
1570180099091311,0,-1,-1,-2,-2,2,2,-3
1570180099093306,-3,-2,0,0,-3,-12,-5,-4
1570180099093306,1,-1,1,0,2,5,3,5
1570180099106271,4,-2,1,-1,-1,-1,-10,-4
1570180099106271,-2,-2,-2,0,-1,0,-1,-5
1570180099113253,4,0,0,2,-1,-3,0,8
1570180099113253,-2,-1,0,-2,-3,-3,-3,-4
1570180099129210,-4,-1,0,0,-1,3,3,-3
1570180099129210,0,1,1,-2,0,-4,-4,-1
1570180099131205,-3,-1,0,1,1,4,0,-6
1570180099131205,0,-1,-1,-1,-3,-2,2,0
1570180099152149,-1,-2,-1,0,0,-1,2,1
1570180099152149,0,-2,0,0,0,-1,-2,1
1570180099153146,-3,-2,-3,-1,0,1,0,-3
1570180099153146,1,-1,-1,0,1,-2,-2,0
1570180099165114,0,-2,0,1,-4,-3,0,-2
1570180099165114,2,1,-1,-1,-2,0,-5,1
1570180099173093,-1,0,1,0,1,1,-4,-3
1570180099173093,-1,-2,0,0,1,-1,0,0
1570180099188133,-2,0,-2,-1,0,5,-1,-9
1570180099188133,-3,-1,-3,-2,-2,-12,-1,7
1570180099189104,4,-1,0,-1,-3,-5,-2,1
1570180099189104,-1,0,-1,-1,0,3,-1,-1
1570180099210991,5,-2,-1,-1,0,-2,-7,15
1570180099210991,0,-1,-1,-2,-1,7,2,2
1570180099212032,-7,0,-1,0,1,4,-1,-8
1570180099212032,1,-1,-1,-1,-4,-5,-3,5
1570180099225368,2,-1,0,-2,0,-1,3,-3
1570180099225368,2,-1,0,1,-1,2,2,-2
1570180099234017,0,-1,-2,0,1,3,-1,3
1570180099234017,-3,0,0,0,0,3,0,-7
1570180099248890,-4,-1,-1,-1,0,-1,3,0
1570180099248890,0,-1,1,-2,0,0,-1,-8
1570180099248890,2,-3,1,-1,-1,-1,1,-3
1570180099248890,-2,0,-1,-1,0,0,-3,0
1570180099270927,0,0,1,0,-1,-5,-1,-3
1570180099270927,-1,-1,-1,-1,1,1,-1,2
1570180099271829,-2,0,-2,0,-1,0,0,-2
1570180099271829,0,-1,-2,0,0,-1,0,-1
1570180099285791,-2,-3,0,0,-2,0,-1,-2
1570180099285791,-2,-1,1,0,-1,0,2,0
1570180099293770,-3,0,0,-1,1,-3,-3,-7
1570180099293770,1,0,-2,-2,-1,4,-1,1
1570180099308732,-4,0,-1,-2,-4,-12,0,-2
1570180099308732,4,0,0,0,1,-3,1,13
1570180099309729,1,-1,1,-2,-2,-3,0,4
1570180099309729,1,0,-1,-1,1,4,-2,0
1570180099331672,-1,-1,0,0,0,3,2,0
1570180099331672,-2,-2,0,-1,-2,1,-1,0
1570180099331672,1,-2,-1,0,-2,-1,-2,-4
1570180099331672,0,0,0,0,0,-4,-6,1
1570180099345632,-2,1,0,-1,1,2,-1,-6
1570180099345632,-1,-1,-3,-1,1,-2,-1,-1
1570180099353758,-2,-1,-1,-1,-2,0,1,-1
1570180099353758,-3,-2,-1,-2,-2,-2,0,-3
1570180099368572,0,1,-1,0,-1,1,-1,-2
1570180099368572,-1,1,0,-1,-1,1,-4,-4
1570180099369571,1,-1,-1,0,-1,1,0,0
1570180099369571,3,-1,-1,-1,0,-4,0,-2
1570180099391510,1,-1,-2,-1,1,-2,-1,4
1570180099391510,0,-1,0,-1,-1,0,1,-3
1570180099391510,-2,-1,-1,0,0,1,-1,-1
1570180099391510,-2,0,-1,-1,1,-2,0,1
1570180099405476,-2,-2,-3,1,-2,2,-1,-2
1570180099405476,-1,-1,-2,-1,0,1,2,-3
1570180099413536,1,0,-1,-1,0,-1,-1,2
1570180099413536,0,-2,1,-1,0,-3,-2,0
1570180099429408,3,1,0,-1,0,0,-7,21
1570180099429408,-6,-2,0,-1,-4,-8,-7,-19
1570180099429408,3,-2,0,1,-1,-3,2,8
1570180099429408,2,0,0,0,-2,-1,-1,6
1570180099451352,-1,-1,-1,0,0,1,4,-4
1570180099451352,0,0,0,-1,-1,2,1,0
1570180099452351,-3,-1,0,-3,0,-2,0,0
1570180099452351,-3,0,0,1,0,-2,2,-5
1570180099465315,-2,-1,-3,-1,-1,-2,1,-4
1570180099465315,1,0,0,-1,1,2,-2,2
1570180099473463,-6,-1,-2,-3,-1,0,-3,-20
1570180099473463,-1,0,-1,0,0,1,1,3
1570180099488253,-1,0,1,-1,-1,-1,0,-5
1570180099488253,1,-1,-1,1,0,1,0,6
1570180099489249,-1,-1,0,2,-2,0,-2,1
1570180099489249,0,-1,-1,-2,-1,-2,0,-2
1570180099511201,0,-1,1,-1,-1,0,-1,-3
1570180099511201,1,-1,-2,-1,-1,-1,-1,-2
1570180099512188,1,-1,-1,0,1,1,0,8
1570180099512188,2,0,-1,0,-1,-1,-1,-8
1570180099525154,0,-1,-1,-2,-1,-1,1,-1
1570180099525154,0,0,1,1,1,1,0,2
1570180099534129,-4,-2,0,-2,-1,1,0,1
1570180099534129,1,0,-1,-1,0,1,2,0
1570180099549090,-7,-4,-3,-2,-1,0,11,-15
1570180099549090,5,1,2,0,1,-1,-6,1
1570180099549090,-1,0,1,1,-2,-1,-2,0
1570180099549090,0,-2,0,-3,-2,-7,-3,-2
1570180099571158,-3,0,0,1,-1,-3,-2,4
1570180099571158,-4,-3,-2,-2,-2,-2,0,-11
1570180099572033,-1,0,0,-2,1,-1,0,-3
1570180099572033,-6,-1,0,0,-1,2,2,-7
1570180099585159,3,-1,1,0,0,0,-1,8
1570180099585159,-4,-2,-1,-1,1,1,10,-11
1570180099593969,2,2,0,0,-1,-1,-10,-1
1570180099593969,-1,2,-1,1,1,1,0,5
1570180099608930,2,-1,-2,-1,-1,1,1,0
1570180099608930,-3,0,0,0,-1,-1,2,-2
1570180099608930,1,-1,-2,-2,0,0,6,-1
1570180099608930,-3,-2,-1,-1,0,1,-2,-5
1570180099630883,1,1,0,0,0,-1,-3,5
1570180099630883,1,0,-2,0,0,-1,-4,-3
1570180099631868,-2,-1,1,0,0,1,0,2
1570180099631868,0,-1,0,-2,-2,-2,-5,2
1570180099645830,-1,0,0,-1,2,0,-3,2
1570180099645830,-2,0,-1,-1,-1,0,-1,4
1570180099660790,0,0,-3,0,0,0,0,-1
1570180099660790,0,-1,-1,2,0,3,0,-2
1570180099668770,-4,-2,-2,-1,2,1,-3,-17
1570180099668770,1,0,-2,0,-1,6,-2,4
1570180099669883,1,0,0,-1,1,-5,-2,-3
1570180099669883,1,-1,-1,-2,-1,-1,2,6
1570180099690712,1,0,-1,1,-2,-1,-1,-2
1570180099690712,-2,1,0,2,-1,-1,-4,5
1570180099691708,2,2,2,1,0,0,-12,13
1570180099691708,-2,-2,1,-1,-2,-1,-2,-7
1570180099706763,2,1,0,1,1,2,1,3
1570180099706763,-1,-1,-1,0,-1,-1,-3,1
1570180099713655,-1,-1,-1,-1,0,1,3,-12
1570180099713655,-1,-1,2,-2,-1,-1,0,1
1570180099728608,-1,1,-2,-2,-3,-7,-7,1
1570180099728608,-2,-1,0,-2,1,8,5,-2
1570180099729610,-1,-2,-3,-3,-2,1,2,3
1570180099729610,1,1,-2,0,2,10,1,5
1570180099751547,-1,-1,-1,-2,-2,-3,2,-5
1570180099751547,2,-1,-1,-1,0,-6,-4,2
1570180099751547,-1,0,-1,-1,-1,-2,1,-1
1570180099751547,-2,0,-1,2,0,-1,-1,-5
1570180099765508,4,0,1,-1,0,2,-2,5
1570180099765508,2,0,0,-1,0,-3,-1,2
1570180099773488,0,-2,1,0,0,0,1,0
1570180099773488,-2,-2,-4,-3,-2,-3,0,0
1570180099788450,-4,-1,0,0,-1,0,-1,-4
1570180099788450,3,0,2,0,-2,-4,-12,11
1570180099789445,3,1,0,0,0,-1,0,2
1570180099789445,2,-2,0,-3,0,0,1,0
1570180099811482,-3,-1,0,-1,0,-1,-3,3
1570180099811482,0,-2,-1,-2,1,-1,2,-12
1570180099812386,-2,-2,0,-1,-1,6,2,-6
1570180099812386,-2,1,0,0,1,-3,-2,2
1570180099825350,1,1,-2,0,-2,0,3,2
1570180099825350,-4,-1,-1,0,-1,-2,0,-2
1570180099833328,0,3,0,0,-1,0,1,-1
1570180099833328,1,-2,-1,0,-2,-3,0,-4
1570180099848295,-2,-1,2,1,-1,0,-3,-3
1570180099848295,-5,-2,-2,-1,-1,-2,1,1
1570180099849289,-1,0,-1,-1,-2,-1,-1,-2
1570180099849289,2,0,-2,-2,0,-2,1,4
1570180099871227,-1,-1,-1,-3,-1,-2,0,-3
1570180099871227,0,-2,0,-2,-1,-3,1,1
1570180099872225,-1,-1,-1,-2,-1,-2,-1,-1
1570180099872225,1,-2,0,-1,-1,0,0,1
1570180099894166,-1,0,-1,-2,0,-1,0,-2
1570180099894166,-1,1,-1,0,0,-1,0,-14
1570180099895164,2,-2,-2,0,-2,-1,2,5
1570180099895164,-2,1,0,0,0,-1,0,1
1570180099908129,1,-1,-2,0,-1,0,-1,0
1570180099908129,-5,-2,-1,-1,0,-1,-2,-16
1570180099909130,4,-1,0,0,-1,-1,2,10
1570180099909130,-2,0,-1,-1,-1,-3,-4,-5
1570180099931072,4,0,1,1,0,-2,2,10
1570180099931072,-2,0,-3,-1,0,1,-1,0
1570180099939103,-3,0,-1,0,2,7,1,1
1570180099939103,0,0,-2,0,-1,-7,1,-10
1570180099953019,-3,0,1,0,-3,-2,-1,-5
1570180099953019,2,0,0,-1,-2,-1,1,9
1570180099961138,-2,-1,0,0,-1,-3,-2,-6
1570180099961138,-1,0,-1,0,2,1,0,4
1570180099968966,-3,-2,-2,-2,-1,2,1,-2
1570180099968966,0,0,0,0,0,0,1,3
1570180099968966,2,1,0,1,-1,-3,-15,2
1570180099968966,1,-2,2,1,-1,0,-2,-2
1570180099990964,2,-2,-1,0,-1,-2,-4,-6
1570180099990964,0,1,-3,-3,-2,0,-3,1
1570180099991905,1,0,-1,-3,-1,-2,5,0
1570180099991905,-1,2,0,0,-2,0,-2,-7
1570180100013846,0,-1,-1,0,-1,-1,-4,5
1570180100013846,-1,-3,1,0,-1,-2,3,9
1570180100014957,1,0,-1,-1,2,3,2,-8
1570180100014957,-1,-1,1,0,1,1,1,7
1570180100028807,-2,0,0,-2,0,-3,-1,-7
1570180100028807,2,1,0,1,2,1,1,5
1570180100029806,-3,-1,-2,0,2,10,5,1
1570180100029806,0,-2,-2,-2,0,-1,5,5
1570180100050753,-4,-1,-3,-1,-2,2,0,-6
1570180100050753,-1,-1,-1,1,-2,-2,-4,-3
1570180100051755,-4,-2,0,-1,-1,-2,-3,-8
1570180100051755,-1,0,-1,0,-2,0,-2,-3
1570180100074781,1,0,-2,-1,0,0,7,6
1570180100074781,0,-1,-1,-1,-1,-1,-1,1
1570180100074781,-3,-1,-2,0,-2,-4,2,-3
1570180100074781,2,0,-1,-1,-1,-2,-4,11
1570180100088659,0,-1,-1,0,-2,-1,0,-2
1570180100088659,-1,1,0,-1,-2,0,0,-2
1570180100089645,0,-2,-2,-1,0,-4,1,5
1570180100089645,-3,-1,-1,-2,0,-2,2,-7
1570180100111585,1,0,1,0,1,3,3,14
1570180100111585,-1,0,0,0,0,0,-2,-3
1570180100111585,0,0,0,0,-3,-3,-1,-1
1570180100111585,-1,-1,-3,-1,-1,0,-1,-2
1570180100134529,-3,0,1,0,-2,0,-2,-3
1570180100134529,1,-1,-1,-1,0,-1,-1,4
1570180100135521,-2,-2,-2,-2,-4,-4,4,1
1570180100135521,-5,-2,-1,-1,-2,3,10,-8
1570180100148533,0,0,-2,-2,2,4,-5,1
1570180100148533,1,0,0,1,-1,-5,0,-3
1570180100149484,0,0,-1,-2,2,2,-1,1
1570180100149484,-1,-1,-1,-1,-2,-2,-4,-8
1570180100171460,-1,-1,0,0,0,2,0,-4
1570180100171460,-1,-1,0,0,-2,-3,-2,0
1570180100171460,-3,-2,0,1,-1,-2,1,-4
1570180100171460,3,1,0,0,0,2,-3,-1
1570180100194543,-2,1,2,-1,0,-3,1,-5
1570180100194543,3,0,-1,-1,1,1,1,6
1570180100195361,-3,0,-1,-1,-1,-3,-6,-7
1570180100195361,5,1,1,1,-2,0,1,23
1570180100208360,-2,-3,-2,0,-1,-1,-3,-3
1570180100208360,-2,0,-1,-1,1,1,0,-6
1570180100209365,1,0,0,-1,-1,1,1,4
1570180100209365,-3,0,-2,-1,0,-1,-3,-9
1570180100231269,3,-1,-2,-1,0,-3,0,4
1570180100231269,1,1,0,-1,-2,1,-1,1
1570180100232264,0,-2,-1,-1,1,-1,-1,-1
1570180100232264,0,-2,0,0,0,-2,-3,-2
1570180100254204,-1,0,-1,-1,-1,-3,-2,-6
1570180100254204,0,0,-1,0,-1,1,2,0
1570180100255207,0,-1,-1,-3,-2,-5,0,6
1570180100255207,-1,-3,-1,-1,-1,5,-1,-2
1570180100277146,-1,-1,0,0,0,-2,-1,-1
1570180100277146,-2,-1,0,-2,1,1,0,-6
1570180100278189,1,-2,-1,1,-1,-1,0,4
1570180100278189,0,-1,-1,2,0,-3,1,2
1570180100291111,-2,0,-2,-2,-1,0,8,-9
1570180100291111,3,1,1,0,-1,1,-8,5
1570180100292104,0,2,-1,0,0,0,-2,-3
1570180100292104,-1,-2,-1,-2,0,-1,-2,-1
1570180100314056,0,0,-2,-1,0,-2,2,0
1570180100314056,-4,-1,-3,0,0,0,4,-4
1570180100315042,5,1,0,-1,0,1,3,14
1570180100315042,-2,2,0,0,-3,-1,-2,0
1570180100329009,-2,-2,-2,-1,-2,0,-2,-2
1570180100329009,-2,-2,-2,-1,-2,-1,2,0
1570180100329009,-3,-2,-2,0,-2,-4,-5,-9
1570180100329009,-1,-2,-1,-2,-1,-1,1,-3
1570180100351941,2,0,-1,0,-1,0,-2,7
1570180100351941,0,-2,0,-1,1,7,1,-3
1570180100351941,-3,0,-1,0,-1,-3,-2,-9
1570180100351941,0,0,0,-1,-3,-2,-1,0
1570180100374043,1,0,-1,0,-2,-3,-3,1
1570180100374043,-1,-1,1,0,-1,-2,-1,-1
1570180100374883,-3,0,-1,0,0,0,0,-6
1570180100374883,-1,0,-1,-1,0,-1,-4,6
1570180100388852,-2,-1,0,0,1,3,-3,-12
1570180100388852,1,-2,-2,-2,-1,-3,0,5
1570180100389842,-2,-2,-1,-1,-1,0,-2,-2
1570180100389842,3,0,1,0,1,-5,-14,11
1570180100410787,1,-1,-1,-1,0,-1,0,1
1570180100410787,-1,0,-1,-2,0,-3,0,0
1570180100411782,-3,1,-1,-1,1,-2,-3,-6
1570180100411782,-2,-2,-1,0,0,2,3,-8
1570180100434729,3,1,0,-1,0,-4,-2,7
1570180100434729,1,-3,-1,-1,-2,0,-2,7
1570180100434851,2,-2,0,-1,1,2,3,14
1570180100434851,0,0,-2,0,2,-1,3,-5
1570180100448683,-2,-1,-1,-1,0,-1,1,1
1570180100448683,0,-2,-3,-1,-1,-1,4,8
1570180100449683,0,1,0,0,-5,-5,-4,-11
1570180100449683,1,-2,-2,-1,0,4,3,-1
1570180100470625,-1,0,0,-1,-2,0,-9,0
1570180100470625,0,0,0,1,-2,-1,-2,-2
1570180100478608,1,-1,-2,-1,-2,-1,-2,2
1570180100478608,-2,1,1,-1,-2,-3,-1,0
1570180100494636,-5,-1,0,-1,-2,3,11,-12
1570180100494636,3,-1,1,1,2,9,-5,-4
1570180100494636,0,-2,-1,-1,-1,-5,-1,-1
1570180100494636,0,-1,0,0,-1,-1,3,-2
1570180100507528,-4,-2,-2,0,1,-1,0,-4
1570180100507528,0,-1,0,1,-1,-1,2,1
1570180100516611,1,-1,1,-2,-1,3,3,5
1570180100516611,0,-1,-2,-2,-2,-1,-1,6
1570180100531467,-2,1,-1,0,-1,-3,-2,2
1570180100531467,0,0,0,-1,0,-3,-1,-3
1570180100531467,0,-1,0,0,-1,-1,-1,3
1570180100531467,-2,1,0,0,-1,-2,-2,-5
1570180100554400,2,-1,-1,-1,-1,-1,-3,3
1570180100554400,-1,-1,-2,0,-1,-3,-2,-2
1570180100555581,-4,-2,-2,-2,0,0,0,-12
1570180100555581,0,-1,-1,-2,0,0,2,1
1570180100568364,0,-1,2,1,-3,-3,-2,-1
1570180100568364,-1,0,0,0,0,-1,0,0
1570180100576392,0,1,-1,1,-2,0,0,2
1570180100576392,-5,-1,-1,0,0,-1,-1,-6
1570180100591307,1,-2,-1,-1,2,6,-1,6
1570180100591307,-3,-1,0,-1,0,-9,-2,-14
1570180100592299,1,0,-1,0,1,2,3,5
1570180100592299,-2,0,-1,-1,-1,-3,-1,-7
1570180100614274,4,1,1,-2,-2,0,4,5
1570180100614274,0,0,0,-1,-2,0,-1,-3
1570180100615239,-1,-3,-1,-1,0,-1,-2,-7
1570180100615239,5,1,0,-1,0,1,-7,12
1570180100629205,-1,0,0,-1,-1,-2,1,3
1570180100629205,-2,0,-2,-1,-1,-2,-3,-2
1570180100636187,2,0,-1,-1,-1,-2,-2,5
1570180100636187,1,0,-1,0,0,2,0,0
1570180100651291,0,-1,-1,-2,1,-2,-3,-5
1570180100651291,-1,-1,-1,-1,0,-1,-2,-2
1570180100652140,-3,0,-2,-1,-1,1,1,-20
1570180100652140,-3,-1,-1,-1,0,-1,4,-3
1570180100674761,-4,-1,0,0,-3,-2,-4,-10
1570180100674761,0,-3,-3,-2,-2,0,4,5
1570180100675078,-1,0,0,0,0,6,2,2
1570180100675078,0,-2,1,-1,-1,-1,-2,-9
1570180100697033,-3,1,-3,0,-1,-3,3,-1
1570180100697033,0,0,-2,-1,-1,-2,1,1
1570180100698017,-1,-1,-2,-1,0,7,1,1
1570180100698017,-1,-1,-1,0,-2,-10,-3,3
1570180100711400,-2,-2,0,-1,0,-1,4,3
1570180100711400,0,0,-1,-1,0,3,-1,-3
1570180100711980,-1,1,-1,-1,0,-2,-2,1
1570180100711980,-1,-2,0,-3,1,3,4,-5
1570180100733994,2,-2,0,0,0,-1,-5,2
1570180100733994,0,0,0,-1,-2,-1,0,3
1570180100735228,0,1,0,0,-4,-6,-9,0
1570180100735228,-6,-5,-1,-1,-1,3,2,-11
1570180100747891,0,3,-1,1,-1,-4,-4,-3
1570180100747891,3,3,0,-2,-2,-1,5,3
1570180100755968,7,1,2,2,1,-2,-13,6
1570180100755968,1,0,0,-2,1,-3,-3,-1
1570180100771541,-4,-3,0,1,-1,0,-2,-2
1570180100771541,-1,-3,-1,0,0,0,1,-1
1570180100771827,-4,-3,-1,-2,1,-2,4,-7
1570180100771827,-1,1,-1,1,-3,-2,-2,2
1570180100800746,5,1,0,0,0,3,-2,20
1570180100800746,-5,-1,-1,1,0,0,5,-8
1570180100809718,0,0,0,0,-2,-3,-4,6
1570180100809718,2,0,-1,1,0,1,-2,8
1570180100811151,-3,-2,-2,-1,-2,3,5,-4
1570180100811151,-1,-2,-1,-1,-2,-1,-2,-4
1570180100815702,-2,-1,-1,0,0,0,4,-2
1570180100815702,-3,-2,-1,-2,-2,-1,4,-2
1570180100830726,3,1,1,0,0,-5,0,6
1570180100830726,-1,-2,-1,0,-1,5,-3,10
1570180100831661,-3,-4,0,0,0,-2,-1,-8
1570180100831661,4,2,0,0,0,3,1,8
1570180100853647,6,2,1,-1,1,-3,-6,22
1570180100853647,0,0,-1,0,1,7,-3,4
1570180100861580,-3,-1,0,-1,-1,-5,3,-4
1570180100861580,1,1,-2,0,1,0,-2,-1
1570180100876583,4,-2,-2,0,0,-3,-15,6
1570180100876583,-4,-1,-2,1,0,-1,0,-6
1570180100877537,1,-1,0,0,-2,2,-1,3
1570180100877537,-1,0,-1,-1,-2,-4,-3,-4
1570180100891499,-3,-1,0,-1,-1,3,2,-13
1570180100891499,2,0,0,-1,-1,-4,-3,3
1570180100891499,-1,-1,-1,-1,0,-1,1,-3
1570180100891499,-1,0,0,0,-1,0,0,3
1570180100914437,-3,-2,-1,-3,-1,-7,0,-7
1570180100914437,-4,-2,1,-2,0,4,1,-10
1570180100915434,-1,-1,0,0,0,-1,2,-2
1570180100915434,-8,-3,-1,-3,-1,-1,-6,-28
1570180100936819,2,0,-1,0,0,2,4,4
1570180100936819,1,-1,0,-2,-5,-12,-5,1
1570180100937376,0,0,-1,1,0,-2,0,2
1570180100937376,-2,0,0,1,0,0,-1,-3
1570180100951340,-2,-1,-2,0,-3,0,1,-8
1570180100951340,0,-1,1,-1,0,-1,3,2
1570180100951340,2,0,0,0,0,1,0,2
1570180100951340,-2,-1,-1,-1,-1,0,14,-3
1570180100974672,-8,-5,-2,-3,2,2,5,-11
1570180100974672,0,0,0,1,-1,-1,-1,1
1570180100975275,0,-1,-2,-2,-2,-2,-2,2
1570180100975275,1,-2,0,0,0,0,-2,8
1570180100997215,0,1,0,-1,-2,1,-1,-5
1570180100997215,-1,0,0,-1,2,-2,-3,-1
1570180100997215,-1,-1,-2,-2,0,-1,4,0
1570180100997215,2,1,1,-1,0,0,-1,6
1570180101011180,-2,-2,-2,-1,1,-1,-2,-3
1570180101011180,1,0,0,0,-2,-2,-3,1
1570180101012180,-1,-1,-1,-1,0,2,1,-2
1570180101012180,1,0,0,0,-1,-6,-4,-1
1570180101034117,0,-1,0,0,3,4,1,3
1570180101034117,3,1,0,0,0,3,3,8
1570180101035480,0,1,0,0,-1,1,3,0
1570180101035480,1,-1,-1,-1,-1,-2,-5,-3
1570180101057056,-3,-1,-1,-1,-2,-3,-1,-4
1570180101057056,3,1,0,0,1,-1,-16,7
1570180101058054,-2,-1,0,-1,-1,-2,-1,0
1570180101058054,2,0,1,-1,0,1,1,10
1570180101071020,3,2,-2,-1,-3,3,-3,-5
1570180101071020,-4,-2,-4,-3,-3,-13,1,-3
1570180101078999,0,-1,-1,0,-1,-3,-1,-2
1570180101078999,0,0,-3,1,0,0,-1,2
1570180101093960,-5,-3,0,-2,0,0,5,-6
1570180101093960,-2,0,1,1,-1,3,0,-7
1570180101095496,-2,-3,-2,-3,-1,-1,-3,-12
1570180101095496,1,-4,-1,-1,-1,-2,0,3
1570180101116898,-1,1,-1,-2,-2,-9,-3,-4
1570180101116898,0,-2,-3,-1,0,6,5,1
1570180101117895,-4,-1,-3,0,-1,-2,-2,-4
1570180101117895,-3,-1,-2,-2,-1,3,8,-9
1570180101130960,3,0,1,0,0,-3,-9,5
1570180101130960,2,0,0,-1,1,-1,-6,-1
1570180101138837,-2,0,1,0,-3,-4,-2,4
1570180101138837,7,0,-1,-1,-3,-7,-2,5
1570180101153800,1,-1,0,0,1,10,4,3
1570180101153800,-3,-1,-1,0,-1,-2,2,-7
1570180101154946,1,0,-1,0,0,1,0,2
1570180101154946,-1,0,0,0,0,1,-4,4
1570180101177307,-3,0,0,0,-1,-5,-1,0
1570180101177307,-1,-1,-1,-2,0,0,-2,-16
1570180101177735,-2,-4,-3,-2,-2,1,7,3
1570180101177735,-1,-1,-2,-1,-1,0,-1,-2
1570180101190707,0,-1,-1,-2,0,0,0,-1
1570180101190707,-3,-2,-2,-1,0,0,2,0
1570180101198678,-5,-1,0,-2,0,1,10,-16
1570180101198678,0,-1,-1,1,0,1,-8,-3
1570180101214641,2,-1,0,1,-2,-2,-1,3
1570180101214641,-1,1,2,-1,0,-3,2,3
1570180101214641,2,0,0,-1,-1,1,1,9
1570180101214641,-1,0,0,-1,1,0,0,-7
1570180101237579,1,-1,0,0,-1,2,1,3
1570180101237579,-1,0,0,0,-2,-2,-1,9
1570180101237579,3,-1,-1,0,1,0,-3,6
1570180101237579,-3,-1,-1,-1,-2,2,1,0
1570180101251613,-4,-2,-2,-1,2,-3,-3,0
1570180101251613,7,2,-1,2,-1,1,4,18
1570180101251613,-1,-2,0,0,0,2,-6,-4
1570180101251613,3,0,-1,1,-2,1,1,8
1570180101274478,-1,0,0,-1,-2,0,4,-3
1570180101274478,-1,-3,0,-1,0,-2,-2,-6
1570180101275475,0,0,0,-2,0,-1,-3,2
1570180101275475,-1,0,-1,0,0,-2,-1,1
1570180101296459,0,-1,-1,1,-1,0,-1,0
1570180101296459,-4,0,-2,-1,-2,-4,-2,-9
1570180101303399,2,0,1,1,1,3,-2,7
1570180101303399,-1,-1,1,-2,-2,0,-1,-5
1570180101311474,-2,-1,1,-1,1,0,1,-1
1570180101311474,-4,-3,-1,0,-2,-1,3,-8
1570180101312653,2,1,0,-1,0,-2,-13,6
1570180101312653,-1,0,0,0,0,0,-1,1
1570180101334552,-1,-2,-1,-1,-2,-1,-2,-8
1570180101334552,0,-2,-1,-1,-1,2,2,-2
1570180101335312,0,0,0,-1,-1,0,4,10
1570180101335312,8,3,4,4,3,1,-7,17
1570180101357255,-1,1,-2,-1,-1,5,-2,1
1570180101357255,-2,-1,0,-2,-2,-11,-5,-7
1570180101357347,0,0,-3,1,0,3,1,-6
1570180101357347,-5,-1,-2,-2,-1,-4,-1,-7
1570180101371219,0,-1,-1,-1,-1,4,6,2
1570180101371219,-1,-1,-1,2,0,0,-4,4
1570180101372322,1,-1,-2,-2,-1,-4,-1,-3
1570180101372322,-3,-1,0,-1,-1,-4,2,-2
1570180101394158,-3,1,0,0,1,0,-1,-4
1570180101394158,5,0,0,0,1,2,-14,9
1570180101395153,1,-1,-1,1,-1,-3,-2,1
1570180101395153,-2,0,-1,1,-3,1,1,-3
1570180101417163,-1,-3,-1,-1,-2,-4,-4,-1
1570180101417163,-1,-1,-1,-2,-2,2,4,-2
1570180101418312,-3,1,0,-1,-1,1,0,-4
1570180101418312,-2,1,0,1,0,0,0,0
1570180101431060,0,-1,-2,-3,0,-5,0,-3
1570180101431060,1,1,0,0,0,3,6,13
1570180101432055,-2,-2,-1,-1,-1,-1,-1,-4
1570180101432055,2,-1,-2,-2,-1,1,-3,-4
1570180101454001,-1,1,-1,0,-3,-3,-5,-7
1570180101454001,-2,-2,-1,-2,1,1,1,-8
1570180101455053,0,0,-2,0,-1,-1,1,0
1570180101455053,-8,-3,-1,-4,-2,-4,5,-1
1570180101477086,0,0,-1,-1,1,3,2,0
1570180101477086,-2,-2,-2,-2,-1,-1,-1,-2
1570180101477938,-5,-3,-1,-1,-2,-2,5,-12
1570180101477938,2,0,-1,-1,0,1,-9,0
1570180101498975,1,0,-1,-1,-2,-4,-3,5
1570180101498975,-1,-1,-1,-1,0,-1,4,-5
1570180101500167,-4,-1,-3,-1,0,0,-1,-14
1570180101500167,1,-1,-1,-1,-1,0,2,4
1570180101513836,1,0,1,0,1,-1,-3,0
1570180101513836,2,2,1,1,-1,1,-1,-1
1570180101520891,-1,-1,0,0,-1,0,-1,0
1570180101520891,-3,0,-1,0,0,-1,-1,-2
1570180101536775,0,0,0,0,-1,-2,0,3
1570180101536775,-1,-1,0,0,-2,0,-3,-4
1570180101537923,2,1,-1,-2,-1,-1,-2,3
1570180101537923,-6,-3,-1,-1,-1,-1,-1,-11
1570180101550741,3,1,0,2,1,-1,3,5
1570180101550741,-5,-2,-2,-1,0,-1,8,-14
1570180101558842,0,1,0,-2,-3,0,-4,1
1570180101558842,-8,-3,0,-2,-2,-2,3,-22
1570180101573676,-2,0,-2,0,-3,-2,-2,-1
1570180101573676,1,0,-1,0,-2,-2,-2,-6
1570180101574674,1,0,-1,0,-1,-2,-1,5
1570180101574674,1,-2,-2,0,-2,-6,-1,-3
1570180101595621,1,-1,-2,-1,0,6,7,6
1570180101595621,-2,-1,-1,0,1,-4,-2,1
1570180101603599,0,0,1,-1,-1,-1,1,-3
1570180101603599,3,0,0,0,-2,0,-3,4
1570180101610577,0,-2,-2,-1,-1,-1,1,-2
1570180101610577,1,-2,-2,-1,-4,-7,-7,6
1570180101618615,0,-1,-2,-2,-3,-10,0,8
1570180101618615,-1,1,-1,-1,0,1,3,-3
1570180101634620,0,0,0,1,0,-2,-4,-2
1570180101634620,-2,-2,-1,-3,-2,5,3,1
1570180101635512,0,0,-1,1,0,1,-1,4
1570180101635512,0,0,2,0,1,1,5,10
1570180101656454,6,1,-2,-1,0,-2,-14,16
1570180101656454,-1,0,0,-1,0,0,-1,2
1570180101657524,0,0,1,-1,0,-1,-3,-8
1570180101657524,2,0,0,0,0,2,-2,2
1570180101670471,-4,-2,0,-1,0,-1,3,-10
1570180101670471,0,-1,-1,1,0,1,1,3
1570180101678396,-2,-2,-2,0,1,0,2,-2
1570180101678396,-1,0,-2,1,-1,0,-3,-1
1570180101694582,-2,-1,1,0,-1,-3,0,-4
1570180101694582,0,1,0,0,-2,-2,-1,-5
1570180101696347,-1,-2,0,0,-2,0,3,2
1570180101696347,2,-2,-1,1,1,-1,-2,4
1570180101717293,0,-2,0,-2,-2,-1,1,-3
1570180101717293,2,-1,0,0,-1,2,-1,0
1570180101718288,-1,0,0,1,0,2,-2,-3
1570180101718288,2,-1,-1,-3,-1,0,0,0
1570180101730256,1,0,1,0,0,-1,-5,4
1570180101730256,-2,-1,0,-1,0,-1,2,-1
1570180101739233,3,-1,-1,0,1,0,-1,3
1570180101739233,-2,-2,-2,-1,-2,-5,-1,-6
1570180101754191,-4,-2,-1,-1,0,3,2,-6
1570180101754191,-5,0,1,-2,-1,-1,-2,-8
1570180101756186,1,0,-1,-1,-1,4,-2,7
1570180101756186,0,-1,-1,-2,-5,-13,-4,3
1570180101777132,-3,-2,-2,1,-1,-4,4,4
1570180101777132,-5,-2,-3,-1,-2,2,3,-13
1570180101778133,-1,1,2,-2,-2,-4,-4,-5
1570180101778133,0,-1,-1,-2,1,8,1,1
1570180101798074,-3,-2,-2,-2,-1,1,-3,-14
1570180101798074,0,1,0,-1,0,-6,-5,5
1570180101816026,-5,-1,0,2,-1,1,-3,-8
1570180101816026,2,0,1,0,-1,4,2,5
1570180101817336,0,0,1,0,1,-1,-10,2
1570180101817336,1,0,0,0,1,1,0,0
1570180101820015,1,1,0,-2,0,2,3,-2
1570180101820015,0,-2,0,0,0,-4,1,4
1570180101837266,-6,0,-1,1,-1,4,6,-8
1570180101837266,2,0,-1,-1,-3,-1,-5,-6
1570180101837968,0,-2,0,-1,-1,-2,-4,4
1570180101837968,-3,0,-2,-2,-1,0,-4,-18
1570180101859580,2,3,-1,-2,-2,-2,6,2
1570180101859580,-3,-5,-2,0,0,3,6,5
1570180101860911,-5,-1,-2,-1,-1,2,4,-13
1570180101860911,4,-1,-1,-1,-2,-3,-14,9
1570180101882043,0,-1,0,0,0,-2,-3,1
1570180101882043,0,1,-1,1,0,0,-3,1
1570180101883845,-1,-2,0,1,0,-2,0,-1
1570180101883845,-6,0,1,0,-1,0,2,-3
1570180101896811,3,-2,-2,-2,-4,0,1,2
1570180101896811,1,1,1,-1,0,0,-2,7
1570180101898860,-4,-1,-2,-1,-2,-5,-5,-14
1570180101898860,-3,-1,-1,0,2,14,6,-3
1570180101918752,-2,1,0,0,0,-5,7,-10
1570180101918752,-2,-1,-1,-3,-5,0,1,-4
1570180101920746,2,-3,-2,-1,0,0,9,8
1570180101920746,3,0,1,0,0,2,3,-4
1570180101934709,-3,-2,-2,-3,-2,1,3,1
1570180101934709,-1,-1,0,-1,1,2,0,2
1570180101936058,-1,0,-1,-1,0,3,5,8
1570180101936058,2,0,-3,-2,-2,-3,2,7
1570180101955652,-1,0,0,-1,-2,-2,-4,2
1570180101955652,4,2,0,0,1,-3,-1,6
1570180101964629,0,0,-1,-1,0,0,-6,3
1570180101964629,0,-1,1,-2,-2,-3,2,-2
1570180101979589,0,-2,-1,0,1,0,-1,12
1570180101979589,4,2,1,0,-1,-2,-14,8
1570180101980586,1,0,-1,0,0,-1,-4,-2
1570180101980586,0,1,-1,1,-1,0,0,6
1570180101993551,-2,-2,-2,-1,0,0,0,-5
1570180101993551,-5,-2,-1,-1,-3,-3,2,-5
1570180102000532,1,0,1,-1,-1,-4,-3,5
1570180102000532,-4,0,0,-2,3,3,-3,-7
1570180102015492,5,1,0,0,-2,-3,-8,5
1570180102015492,-4,-4,-2,-1,1,4,1,-9
1570180102024473,0,0,0,1,-2,-2,-5,-3
1570180102024473,-2,-2,0,0,-1,-4,1,-1
1570180102039464,-1,-1,0,0,-2,1,2,-1
1570180102039464,-1,-1,-2,0,-1,0,4,-1
1570180102040461,4,-1,-2,-2,-1,4,2,19
1570180102040461,-7,-2,-2,-1,0,-3,6,-8
1570180102053992,-2,-2,0,1,-1,0,0,-4
1570180102053992,2,-1,-2,0,-1,-4,-1,5
1570180102060181,2,0,0,0,1,3,-1,0
1570180102060181,1,0,-1,0,-2,-1,1,3
1570180102075878,0,0,-1,-3,-2,-3,-1,-2
1570180102075878,-3,-2,-1,-2,0,3,5,-1
1570180102084076,-3,-2,-3,-2,-1,-2,1,-13
1570180102084076,-2,0,-3,1,-2,-1,-3,-7
1570180102099852,0,-2,1,-1,-1,-1,-1,0
1570180102099852,3,0,-1,0,0,-1,-2,0
1570180102100921,-4,-2,-1,-1,-1,-3,2,-11
1570180102100921,2,2,1,0,0,-1,-2,7
1570180102113902,-7,-2,-2,1,2,5,-1,-4
1570180102113902,1,0,-2,-3,-5,-8,0,2
1570180102127988,0,0,0,0,-2,-1,1,-3
1570180102127988,7,2,2,2,0,-2,-19,10
1570180102137235,-2,-2,-2,0,-2,-1,0,-2
1570180102137235,-2,0,1,1,1,1,-2,-4
1570180102138306,-1,0,0,0,0,1,-1,1
1570180102138306,-1,-3,-2,-3,-2,-1,6,-2
1570180102159875,1,1,-1,-2,1,1,-2,-9
1570180102159875,4,1,1,0,0,-3,-10,1
1570180102161397,-1,-1,0,-1,1,-1,-2,4
1570180102161397,-2,-2,-1,-1,0,0,1,-1
1570180102173964,-5,-3,1,-2,-3,-9,-4,-5
1570180102173964,1,-1,-1,0,1,2,4,5
1570180102180718,1,2,-1,0,1,10,-1,0
1570180102180718,0,-1,-2,-1,-2,-2,0,0
1570180102197708,-1,-1,-1,-1,-1,0,0,-1
1570180102197708,2,-2,0,-1,-3,0,1,2
1570180102199098,-1,-2,0,1,0,-5,-4,-3
1570180102199098,-1,-2,-1,-2,-1,-2,1,0
1570180102219258,5,1,-1,0,0,0,1,3
1570180102219258,1,0,-1,-1,-1,-2,3,5
1570180102221239,-3,-2,-1,-2,0,2,-2,5
1570180102221239,-2,-2,-1,1,1,8,5,-8
1570180102233783,-2,-1,-2,-1,-4,-13,-6,-1
1570180102233783,-1,-1,-1,0,0,-1,1,-2
1570180102241119,-1,0,-1,2,0,-3,0,0
1570180102241119,0,0,-1,-1,-1,-2,-2,-1
1570180102257333,1,0,-1,1,0,5,3,2
1570180102257333,-2,-1,-2,-2,-1,0,-1,-5
1570180102258074,1,1,0,-3,-4,-6,-4,-2
1570180102258074,-2,0,0,-1,-1,-2,-4,-4
1570180102279970,-6,-7,-5,-5,-3,1,5,-13
1570180102279970,-1,-2,-4,-8,-3,-1,1,6
1570180102281043,-2,0,3,5,2,1,-1,-4
1570180102281043,4,4,-1,3,6,1,0,3
1570180102302112,5,7,5,1,-1,-2,-1,6
1570180102302112,-7,-4,1,2,2,2,-2,-11
1570180102303870,-3,-4,-6,-9,-5,-2,1,-3
1570180102303870,8,2,-3,-2,-1,-1,-1,5
1570180102316835,-3,-7,0,2,1,0,-1,-1
1570180102316835,3,12,9,10,5,2,-1,-8
1570180102318833,18,7,11,3,-1,0,4,27
1570180102318833,-9,2,4,-5,-3,-2,0,0
1570180102339821,-1,-16,-23,-14,-8,-2,-4,-2
1570180102339821,7,-6,-16,-4,-4,0,0,1
1570180102340886,-16,2,15,5,-1,-2,0,-6
1570180102340886,5,-18,1,8,4,0,1,0
1570180102361915,18,30,12,5,0,2,1,7
1570180102361915,-29,-28,-6,-8,-8,-2,-5,-9
1570180102363711,60,29,-12,-5,5,0,1,2
1570180102363711,-38,5,11,6,0,2,4,-3
1570180102376808,21,13,18,12,11,4,4,10
1570180102376808,-78,-53,-4,-3,-4,-3,-6,-10
1570180102378672,20,0,-1,-9,-7,-3,-2,-6
1570180102378672,37,28,0,5,-2,-4,-1,4
1570180102399660,-29,2,17,7,7,3,3,0
1570180102399660,15,7,7,-5,-4,-2,1,4
1570180102400613,-28,-30,-27,-12,-2,-1,-3,-5
1570180102400613,-6,-25,-46,-20,-13,-5,-5,-8
1570180102412580,7,7,12,6,-1,-1,0,4
1570180102412580,26,29,19,15,11,4,4,7
1570180102437512,-13,1,18,12,2,1,-1,-5
1570180102437512,10,4,7,-2,-2,-1,-1,2
1570180102438511,-16,-15,-17,-14,-8,-2,-3,-7
1570180102438511,3,-12,-24,-10,0,-1,-3,-5
1570180102439512,4,3,-3,1,-1,-2,-2,0
1570180102439512,-19,10,19,8,3,1,1,-1
1570180102459499,5,-15,-16,-12,-5,-1,-2,0
1570180102459499,10,7,-6,-1,0,-1,0,3
1570180102460451,-10,3,2,8,2,0,-1,0
1570180102460451,2,8,21,4,2,-1,-1,0
1570180102473421,-3,-5,-1,2,1,-2,-2,0
1570180102473421,14,12,-3,-1,-5,-1,2,3
1570180102482393,-16,-15,-12,-6,0,-2,-1,-2
1570180102482393,-2,-16,3,-2,-5,-1,-2,0
1570180102496356,14,24,7,3,2,1,-1,1
1570180102496356,2,-3,-11,-5,0,-3,0,0
1570180102503336,-11,-10,-12,-8,-2,-1,0,-4
1570180102503336,-3,-13,-3,-5,5,0,1,-1
1570180102520121,-2,-3,-8,1,-10,-4,-3,-2
1570180102520121,2,2,-2,1,-3,-1,1,3
1570180102527272,-8,4,14,5,-5,-1,-2,-7
1570180102527272,8,5,0,2,5,-1,0,1
1570180102543232,-6,-9,-13,-1,3,-1,0,-3
1570180102543232,7,8,23,2,-4,2,3,5
1570180102548218,-6,-8,-8,-4,2,2,0,0
1570180102548218,0,-5,-11,-4,-4,-1,-1,2
1570180102556195,9,6,2,3,-1,-3,-4,-4
1570180102556195,-4,-2,-10,-5,0,1,-2,-4
1570180102570157,4,-2,-1,-3,-5,-1,-1,0
1570180102570157,0,2,3,1,-2,-2,-2,-2
1570180102579133,-6,-13,-2,1,1,-3,-2,-3
1570180102579133,2,5,1,0,-1,0,-1,2
1570180102581128,0,6,12,6,1,0,-1,4
1570180102581128,-2,0,-1,-1,-1,0,0,-3
1570180102593097,-4,-8,-6,-7,-2,1,1,1
1570180102593097,0,-2,-4,-4,-6,-2,-2,-6
1570180102602077,8,8,8,9,18,-2,2,7
1570180102602077,-6,-12,-19,-9,-27,-3,-1,-2
1570180102616041,0,12,10,-2,10,-1,-2,0
1570180102616041,10,14,14,6,-1,1,1,7
1570180102623019,-3,-8,-7,-8,-4,1,-2,-4
1570180102623019,5,6,-2,6,8,3,4,12
1570180102638975,-11,-10,0,0,-6,-2,-4,-17
1570180102638975,-11,-9,-5,-5,-2,-1,-1,-3
1570180102641163,8,13,5,6,-2,-3,-5,-4
1570180102641163,0,-5,-2,-7,-4,-1,4,10
1570180102652978,-10,-7,-11,-3,-5,1,4,9
1570180102652978,8,-2,-2,6,9,-1,-5,-6
1570180102661922,1,9,11,1,-3,-2,-3,-12
1570180102661922,2,5,-3,0,4,1,2,6
1570180102676000,-4,-12,-2,-3,-4,3,5,16
1570180102676000,0,0,-4,1,-2,-2,-2,-3
1570180102683978,5,15,10,7,0,-1,2,7
1570180102683978,-1,1,0,-4,0,-3,-6,0
1570180102698945,-1,-10,-5,0,-2,-2,3,10
1570180102698945,-2,13,9,2,3,-2,-1,2
1570180102700937,-2,-8,-13,-12,-16,-1,3,11
1570180102700937,-1,0,-4,-3,8,1,-1,-3
1570180102713151,-6,0,11,7,2,1,-10,-31
1570180102713151,-10,-4,-4,-2,-2,1,2,-5
1570180102722200,-7,-11,-13,-8,2,1,4,-6
1570180102722200,1,2,7,8,1,-2,-7,-20
1570180102751794,9,4,-4,-3,-4,1,12,32
1570180102751794,8,1,-2,1,2,-2,-4,-2
1570180102753797,-20,-6,7,-2,-6,-2,-8,-30
1570180102753797,15,2,4,10,6,-2,-5,-10
1570180102758777,-3,5,5,1,2,0,0,-8
1570180102758777,-19,0,7,5,5,1,3,3
1570180102760771,40,-7,-22,-14,-8,-2,-1,13
1570180102760771,22,1,-5,-5,-1,0,3,12
1570180102781715,2,8,7,5,7,0,0,7
1570180102781715,-2,-1,1,-7,-15,-2,-4,-1
1570180102783712,-28,-16,-7,2,7,0,0,0
1570180102783712,4,2,-3,-3,0,0,2,9
1570180102804653,-3,6,0,3,2,-4,-8,-31
1570180102804653,14,-8,-6,-2,-3,-4,-4,-19
1570180102805653,-2,11,11,7,6,-1,-3,-9
1570180102805653,-9,6,4,-2,-4,-1,-1,-8
1570180102818616,-9,-16,-23,-13,-7,-2,4,11
1570180102818616,17,16,0,-1,-4,-2,-8,-25
1570180102826597,-8,-5,5,4,1,4,5,6
1570180102826597,-7,-25,-8,-4,-4,-2,-5,-4
1570180102865659,3,5,9,0,-2,1,2,-2
1570180102865659,-11,-16,-12,-3,3,1,-3,-12
1570180102867486,5,20,4,4,1,-2,-1,27
1570180102867486,1,13,4,-6,-7,3,1,2
1570180102868483,3,-5,-4,-4,-9,-1,-2,-20
1570180102868483,-14,-7,-2,3,15,1,3,-19
1570180102872603,-5,-3,-3,0,0,1,1,-38
1570180102872603,4,5,5,5,3,0,-5,-20
1570180102879490,10,-2,1,-5,-4,-4,-6,18
1570180102879490,3,5,1,-3,-4,-2,0,-3
1570180102880453,-10,-14,-12,-8,-5,-2,-2,-13
1570180102880453,7,6,5,6,4,-2,3,-37
1570180102917355,-25,0,5,-2,-5,1,0,-38
1570180102917355,3,2,1,-5,-2,-1,-3,-11
1570180102919354,-11,-10,0,6,10,-2,-1,-4
1570180102919354,2,-4,-10,-8,-6,-2,-2,-23
1570180102919354,6,4,1,2,-1,3,7,-28
1570180102919354,1,-2,1,-5,-9,0,4,-9
1570180102925337,5,2,5,8,11,0,-2,-13
1570180102925337,-13,0,0,-3,-1,-1,1,29
1570180102939294,-5,-9,-7,-1,5,0,-5,32
1570180102939294,-3,4,8,2,-1,-3,-4,32
1570180102941288,19,4,-10,-11,-17,-4,-1,42
1570180102941288,-19,-9,1,5,6,-2,-3,28
1570180102969213,16,8,3,5,6,0,1,43
1570180102969213,-16,-1,6,4,0,0,6,38
1570180102971212,15,0,-3,-6,-6,-1,-2,17
1570180102971212,1,-8,-7,-1,-5,-3,4,24
1570180102975209,-12,-4,-6,-6,-2,1,0,21
1570180102975209,1,8,9,12,8,0,0,21
1570180102992153,17,5,0,-1,0,-3,-3,21
1570180102992153,-13,-6,-8,-6,-4,0,2,17
1570180102999189,5,-5,-2,-1,-1,-3,-3,16
1570180102999189,12,7,-1,-1,3,0,8,31
1570180103001130,-12,-7,-2,0,-2,2,2,-10
1570180103001130,-1,2,9,8,4,-1,2,8
1570180103030055,-3,-3,-6,-2,-3,-3,-3,-1
1570180103030055,-1,-7,-6,-1,-1,0,6,17
1570180103031049,-15,0,3,0,-5,2,6,-4
1570180103031049,10,-10,-11,-9,-4,-2,3,18
1570180103044101,11,14,11,8,6,2,5,10
1570180103044101,-8,-12,-6,-17,-15,-1,6,-3
1570180103050131,-9,-5,-1,12,12,-3,-5,-23
1570180103050131,-14,-5,-3,-13,-2,-2,-3,-16
1570180103058973,0,-2,-4,-6,-3,3,1,-6
1570180103058973,2,3,1,9,7,-1,-13,-20
1570180103060970,-2,-1,1,-2,-5,0,1,10
1570180103060970,-3,-2,0,-4,-7,-1,-10,-21
1570180103081912,6,1,-1,-1,0,-2,-8,10
1570180103081912,4,1,-2,-2,-3,0,-4,1
1570180103083964,-2,2,-5,-6,-6,-1,-3,8
1570180103083964,7,-2,2,8,5,0,2,16
1570180103095883,-2,4,7,0,-1,-1,-7,-27
1570180103095883,1,3,2,1,-1,0,0,10
1570180103102856,-1,-2,-4,-2,-1,0,2,4
1570180103102856,2,1,-3,1,1,-2,-17,-10
1570180103119810,6,18,3,2,2,-1,0,8
1570180103119810,-6,-27,-4,-5,-4,-2,3,-6
1570180103120810,14,4,-9,-3,-1,-1,-3,6
1570180103120810,-20,-10,19,8,3,3,3,-23
1570180103149757,-5,-13,-22,-4,-4,-4,0,8
1570180103149757,-4,13,31,10,7,1,-6,-46
1570180103150729,-2,-19,-8,1,0,0,-4,-16
1570180103150729,8,3,-2,2,1,2,4,9
1570180103155725,-4,-9,-9,-3,-3,-1,2,-42
1570180103155725,1,2,-17,-6,-4,-1,3,38
1570180103164692,-6,-3,3,-2,-1,-1,-1,-3
1570180103164692,4,19,6,-1,-4,-2,3,10
1570180103179656,-3,3,14,9,5,0,2,10
1570180103179656,3,6,-5,-3,-1,-1,1,0
1570180103180649,-4,-3,10,1,0,1,1,-11
1570180103180649,21,5,-16,-6,-5,-3,4,34
1570180103201596,-13,-20,-12,-7,-4,1,2,19
1570180103201596,11,17,3,7,6,-1,-2,10
1570180103203869,4,8,17,2,-1,-2,0,-20
1570180103203869,-11,-6,-4,0,1,1,3,-6
1570180103215555,-14,-6,2,-4,-5,-2,-4,7
1570180103215555,-20,-13,-7,-3,0,-1,-4,-25
1570180103224576,9,8,-3,-2,-3,0,2,4
1570180103224576,-2,4,3,3,2,0,0,-13
1570180103246475,14,4,5,6,2,2,-1,-2
1570180103246475,30,0,-8,-4,-3,-1,-2,16
1570180103248468,-19,-5,-6,-5,-3,-2,-3,-13
1570180103248468,3,5,5,0,0,4,-2,-3
1570180103269462,-9,-10,-9,-2,-1,-5,-8,9
1570180103269462,-1,6,9,7,3,-1,-2,-2
1570180103271501,-2,-3,0,0,-1,0,1,16
1570180103271501,-2,-3,2,3,-3,-3,-1,-12
1570180103275810,5,17,6,1,2,3,5,8
1570180103275810,45,5,-4,-4,-4,0,0,19
1570180103284524,-20,-18,-15,-7,-5,-3,-9,3
1570180103284524,-1,-3,-1,-2,0,-3,-5,-5
1570180103307309,20,2,-1,-1,-1,0,-12,-1
1570180103307309,-32,-10,2,4,2,0,-7,-9
1570180103309337,12,10,10,6,4,5,1,11
1570180103309337,8,1,8,-4,-9,-2,3,3
1570180103322277,21,5,1,-5,-4,-2,6,-10
1570180103322277,-35,-12,-8,-3,-1,-1,-4,-14
1570180103323269,6,2,-4,0,-3,-5,-3,2
1570180103323269,-12,4,4,8,9,3,2,6
1570180103335697,27,2,-6,-4,-3,-2,0,-9
1570180103335697,-52,-26,-15,-13,-8,0,4,-1
1570180103360168,11,4,-8,4,0,-3,-7,11
1570180103360168,62,26,11,8,1,5,6,18
1570180103361261,-78,-20,11,-3,-4,-4,-8,-2
1570180103361261,-44,-3,3,5,10,5,7,-9
1570180103362163,48,-6,-9,-7,-3,-2,5,-13
1570180103362163,6,8,-2,-8,-6,-2,4,38
1570180103382109,10,4,2,9,5,-1,5,10
1570180103382109,26,5,4,1,6,0,3,-8
1570180103383109,-27,-5,-1,2,2,2,6,0
1570180103383109,-31,-12,-10,-12,-12,-3,-6,-5
1570180103395278,5,4,-2,9,10,3,4,11
1570180103395278,17,5,1,-1,-2,0,13,2
1570180103404058,2,-1,3,0,0,-1,-1,-27
1570180103404058,-47,-25,-4,-2,-2,1,1,-20
1570180103419011,53,29,-1,-5,-6,0,2,26
1570180103419011,-39,-17,-10,-4,-5,-3,-7,-21
1570180103421006,6,16,11,6,5,4,1,1
1570180103421006,4,-9,-3,-4,-3,-2,-3,-19
1570180103441953,5,-1,-2,0,3,2,-4,-11
1570180103441953,11,-1,-8,-7,-6,-4,-9,3
1570180103443051,-1,-1,1,-9,-18,-2,-1,17
1570180103443051,-2,-3,-6,-7,6,-1,-10,3
1570180103456032,-78,-33,2,25,26,5,-1,-28
1570180103456032,89,41,1,-6,-4,-3,-1,55
1570180103464291,-40,-16,-5,-1,5,-5,-7,-27
1570180103464291,8,6,-1,-6,-11,-2,5,20
1570180103478853,9,6,5,-11,-25,0,9,26
1570180103478853,23,2,2,12,11,-6,-2,-6
1570180103480847,-4,-14,-4,1,7,-1,2,24
1570180103480847,-46,-12,-1,4,4,4,10,-22
1570180103501797,-3,-7,-5,-9,-5,-6,-7,-7
1570180103501797,-7,-9,-9,-12,-20,-7,-6,-14
1570180103503785,87,34,6,2,-2,-1,0,53
1570180103503785,-36,-17,-7,0,1,-4,3,-18
1570180103515757,-36,-4,9,1,-2,-1,-9,-35
1570180103515757,46,16,0,-3,-3,1,4,22
1570180103524731,-15,4,-6,-1,-1,1,1,2
1570180103524731,-58,-24,-5,1,5,0,-7,1
1570180103538730,26,-5,-10,-2,6,-4,-5,-13
1570180103538730,-36,0,9,1,2,3,4,15
1570180103545905,48,2,-4,-3,-6,-3,-5,-23
1570180103545905,61,26,2,-7,-10,-1,-2,35
1570180103561665,-34,-1,1,4,9,-1,-1,15
1570180103561665,-50,-33,-5,0,-2,1,1,-24
1570180103563952,-6,29,-3,-7,-9,0,-1,16
1570180103563952,-56,-41,-6,-7,-15,-7,-10,-61
1570180103575620,43,19,9,9,17,5,7,32
1570180103575620,15,-7,-1,-1,1,-3,-6,-19
1570180103584571,-3,-2,5,-8,-24,1,4,0
1570180103584571,60,20,-6,9,20,-4,-19,21
1570180103598532,26,10,2,-2,-2,3,3,3
1570180103598532,-60,-21,17,9,6,9,8,-2
1570180103605599,-6,3,-7,-5,2,-4,-6,-7
1570180103605599,0,-5,-28,-23,-24,-14,-12,-16
1570180103621502,-25,-12,0,-1,-9,-1,-3,-9
1570180103621502,59,22,5,15,30,6,3,24
1570180103623536,-26,-21,-2,-3,-18,-1,0,0
1570180103623536,9,15,22,17,29,5,6,0
1570180103635434,16,8,-11,-11,-6,-3,-12,-20
1570180103635434,-15,-14,-12,-9,-14,-7,-1,31
1570180103644460,-43,-13,3,5,13,7,2,-18
1570180103644460,63,28,-14,-5,-11,-3,-2,35
1570180103658386,19,-14,0,-7,-21,-5,1,19
1570180103658386,26,-2,-5,-8,-8,-12,-3,-23
1570180103665363,22,1,8,7,8,7,8,10
1570180103665363,-6,-12,-3,-2,-16,-2,18,34
1570180103682312,11,4,-3,-10,3,-1,-11,10
1570180103682312,13,10,0,-1,-3,0,-5,-14
1570180103683304,-35,-16,-2,1,17,-3,8,-11
1570180103683304,34,21,12,4,-6,2,0,-6
1570180103704253,-4,6,-3,2,-10,-6,13,-14
1570180103704253,-10,-4,0,-8,-19,-5,-8,-4
1570180103706428,1,1,2,4,12,3,17,9
1570180103706428,15,5,-10,-2,-1,0,-11,-2
1570180103718272,-31,-10,7,1,-5,1,-5,-7
1570180103718272,15,21,9,11,19,7,1,26
1570180103725304,-1,5,10,2,-9,-3,0,-60
1570180103725304,-22,-19,2,7,22,5,2,6
1570180103742357,-6,5,-10,3,8,2,7,24
1570180103742357,91,47,13,-2,-12,-4,-9,23
1570180103743144,26,14,0,0,4,-5,-10,7
1570180103743144,-42,-28,-7,-5,5,0,1,-13
1570180103764178,-16,-15,-5,-9,-25,-4,13,-16
1570180103764178,-4,4,-5,5,20,4,5,14
1570180103766084,-4,4,3,-2,-4,0,-1,26
1570180103766084,-22,-5,5,9,16,1,0,-12
1570180103778234,66,17,3,0,6,-1,13,29
1570180103778234,-57,-18,-7,-4,-7,0,2,13
1570180103787027,-4,-17,-6,0,5,0,-9,0
1570180103787027,3,-2,0,-3,-9,1,3,6
1570180103801992,9,3,4,5,3,2,-2,32
1570180103801992,-31,-14,5,6,1,4,-2,-23
1570180103802985,20,-4,-8,-6,-3,-5,-11,14
1570180103802985,25,20,3,-1,-12,-1,4,4
1570180103824147,-10,-10,-5,-2,18,0,-6,-4
1570180103824147,-2,4,-1,0,-6,1,1,13
1570180103826199,-62,-25,-2,3,2,-2,-2,-16
1570180103826199,51,13,1,-3,-9,1,0,1
1570180103837893,-32,-2,-5,7,19,0,-7,-6
1570180103837893,35,9,1,-9,-12,0,7,4
1570180103846975,-24,-14,-6,-2,-13,-4,-6,-1
1570180103846975,-6,-11,2,-4,10,-2,4,-42
1570180103861830,18,4,-2,-3,-2,-1,-14,-6
1570180103861830,-17,-13,-3,-2,-14,-1,-1,-6
1570180103863822,17,9,4,3,-1,-1,2,7
1570180103863822,-28,-6,1,1,-1,1,2,5
1570180103884767,-12,-4,-4,-5,-11,-5,-3,-10
1570180103884767,-20,-10,-1,0,1,0,-1,-12
1570180103885767,18,8,6,3,4,3,0,12
1570180103885767,-33,-13,0,6,9,2,-2,-6
1570180103898729,-25,-23,-3,-1,-9,0,2,0
1570180103898729,51,18,-2,-5,-1,-1,-3,86
1570180103905709,-39,-15,-6,-1,1,-7,-16,39
1570180103905709,5,-3,3,5,11,4,4,48
1570180103921669,25,8,-1,-2,-8,0,2,-28
1570180103921669,-35,-8,-2,-2,6,-1,-10,-89
1570180103923662,8,5,0,-1,-1,-1,3,-38
1570180103923662,8,8,4,3,-3,0,-3,-21
1570180103944609,-7,-5,-7,-4,4,2,6,-41
1570180103944609,-28,-9,6,3,0,-2,5,-28
1570180103945605,12,15,4,1,5,2,4,-17
1570180103945605,2,-2,-2,0,-4,-2,-5,-6
1570180103958569,1,-1,1,-2,1,2,4,13
1570180103958569,3,-6,-1,0,5,0,4,4
1570180103965549,2,-3,-5,-4,1,0,2,18
1570180103965549,5,4,-1,-2,-7,-2,1,57
1570180103981507,-9,7,4,3,1,0,-4,75
1570180103981507,4,-5,-7,-4,-2,-2,-2,38
1570180103983502,2,3,-2,-2,-7,0,5,22
1570180103983502,-28,-14,-3,-4,-5,-4,8,-21
1570180104004446,26,12,5,3,4,0,-27,-18
1570180104004446,-2,7,-3,-2,-2,-1,-6,-8
1570180104005504,2,-1,1,0,2,1,5,95
1570180104005504,9,1,0,1,0,0,1,67
1570180104018466,-13,-10,-1,-1,-5,-1,7,100
1570180104018466,3,2,-3,0,-1,0,2,54
1570180104026433,-7,-6,-3,-5,-2,-5,-13,-39
1570180104026433,6,5,-2,-2,-2,1,-5,115
1570180104042018,-5,1,2,2,-3,-1,3,15
1570180104042018,-7,-7,-2,0,1,-1,-1,52
1570180104043344,-13,-2,-1,1,0,-2,1,123
1570180104043344,1,-1,-1,1,-1,-1,-3,104
1570180104064289,2,2,0,-1,-1,-1,2,13
1570180104064289,-6,-7,-3,-1,-1,-3,-1,-80
1570180104066280,-4,1,0,0,1,-1,-3,-127
1570180104066280,5,7,2,1,1,0,-2,-128
1570180104078248,-1,-6,-1,0,0,1,2,-105
1570180104078248,-8,0,-3,0,0,0,0,-96
1570180104087229,9,4,1,0,-3,0,-1,-78
1570180104087229,4,-1,-3,-3,-11,0,-2,-83
1570180104102302,-12,-7,-5,2,14,-6,-1,-63
1570180104102302,-4,-2,2,-4,-7,3,5,-34
1570180104103183,12,0,-4,0,5,-2,-2,-24
1570180104103183,-5,1,-3,-5,-12,-3,2,-54
1570180104124126,5,-12,-3,-6,7,-2,-7,-25
1570180104124126,15,5,4,4,8,1,3,2
1570180104126159,-1,3,6,9,1,0,2,-6
1570180104126159,5,4,5,-2,-8,1,-1,-29
1570180104138095,-2,-7,-7,-7,-8,-1,7,-3
1570180104138095,16,-3,-3,-3,0,-2,-1,11
1570180104147066,-8,11,2,-3,-4,-3,-2,-5
1570180104147066,49,11,6,13,12,1,1,-15
1570180104162026,15,14,2,0,-6,1,3,3
1570180104162026,-45,-20,-7,-3,-2,-3,0,1
1570180104163028,-16,-8,-2,-2,-4,2,1,-3
1570180104163028,-10,1,-2,-1,4,1,6,-6
1570180104184476,-4,0,3,0,-4,0,-1,1
1570180104184476,17,12,-2,-1,0,-3,-2,-5
1570180104185961,-1,-5,0,0,-2,3,11,-41
1570180104185961,-16,-5,-5,-3,7,0,-7,-40
1570180104197934,1,-6,-2,-1,-7,0,-2,-49
1570180104197934,-13,-2,7,6,-2,-1,-1,-37
1570180104207155,12,15,1,-6,-4,0,4,-39
1570180104207155,-9,-9,-7,-3,4,-8,-9,-26
1570180104221910,7,4,-2,-1,-6,0,0,-7
1570180104221910,-14,-7,3,3,-1,-1,-3,-5
1570180104223860,12,7,3,0,0,2,4,1
1570180104223860,0,0,-4,-3,0,0,-4,-2
1570180104244802,-35,-9,-2,-1,0,1,-1,-14
1570180104244802,-1,-9,-7,-5,-1,-1,-3,7
1570180104245803,20,-3,-8,-7,0,3,-3,-3
1570180104245803,-43,-2,3,6,5,0,2,7
1570180104258064,-1,7,16,11,6,-1,3,7
1570180104258064,22,9,3,2,2,-1,-1,3
1570180104266746,-6,-2,-6,-3,-1,-2,-6,-4
1570180104266746,-7,-19,-4,-2,-5,-1,0,-1
1570180104280838,9,9,1,1,-5,-4,-5,-10
1570180104280838,20,4,-3,0,1,-1,2,10
1570180104287696,-24,-12,-6,2,-1,1,-4,16
1570180104287696,4,1,0,-7,-3,3,3,6
1570180104304811,-4,8,9,6,-2,0,7,19
1570180104304811,13,-1,0,-2,-2,-1,-6,11
1570180104305645,-16,-4,-3,-6,3,-4,-5,3
1570180104305645,17,6,-1,-3,-3,-3,1,4
1570180104317947,-2,1,-3,-4,-3,1,-7,5
1570180104317947,-28,-16,-6,-5,-2,1,3,10
1570180104326585,23,4,-3,-4,-3,0,4,-4
1570180104326585,0,-2,5,2,0,-2,-1,-2
1570180104341618,18,21,2,0,1,1,2,4
1570180104341618,17,-2,-4,1,1,0,-2,14
1570180104343541,-30,-19,-1,-4,-9,-2,-3,3
1570180104343541,5,6,1,4,6,-1,-2,-3
1570180104364801,-16,-17,-7,-4,-3,-3,-4,10
1570180104364801,0,13,2,0,0,2,1,-14
1570180104365483,4,-2,-1,-4,-4,-3,-4,7
1570180104365483,7,7,1,1,-1,1,0,9
1570180104378446,-12,-15,-5,-3,1,0,-5,-7
1570180104378446,-8,-1,4,4,-4,-2,5,4
1570180104387424,12,7,-3,1,0,1,1,-8
1570180104387424,8,1,-1,-2,-4,0,-10,34
1570180104409397,-2,-4,-4,-5,4,2,0,-24
1570180104409397,-7,6,9,5,0,-2,3,11
1570180104410365,16,-2,1,7,6,1,2,11
1570180104410365,-20,-8,0,0,-2,0,2,-10
1570180104424415,52,10,-3,-4,-2,-1,4,25
1570180104424415,-57,-14,-7,-7,-4,-2,-9,-10
1570180104426320,-5,-3,4,4,4,0,-3,1
1570180104426320,6,7,-2,-2,1,0,0,-7
1570180104438372,9,-8,-5,-6,-5,-2,1,16
1570180104438372,23,7,-1,-1,1,3,8,21
1570180104447263,7,1,1,1,0,-1,0,18
1570180104447263,-8,-6,-2,-3,-3,-4,-16,10
1570180104461259,-9,2,3,4,1,0,3,10
1570180104461259,13,5,0,1,-1,4,5,44
1570180104469224,-1,-1,0,1,-4,-21,-9,22
1570180104469224,-9,-4,0,-1,3,14,18,-34
1570180104484162,-11,-4,-1,2,-4,0,-2,-29
1570180104484162,22,7,2,1,9,2,-20,56
1570180104486163,12,0,-1,-2,-1,-3,0,8
1570180104486163,-8,0,-2,-1,1,-4,3,-1
1570180104498129,11,4,1,2,2,-3,-11,32
1570180104498129,-5,-4,-3,-1,-13,0,3,-26
1570180104507103,-10,-4,-5,-11,-6,0,6,-8
1570180104507103,3,2,1,-2,-7,-9,-2,-7
1570180104521307,-10,-3,-1,-1,7,3,3,-14
1570180104521307,-11,-5,-3,-4,-8,-2,-7,-79
1570180104528053,13,3,1,5,2,-7,-1,14
1570180104528053,-10,-5,-1,-3,-3,-3,-3,-11
1570180104544209,-9,-2,-1,-2,3,-3,-3,-17
1570180104544209,8,4,-3,-4,-7,-3,-1,-27
1570180104546043,-9,0,2,3,6,6,-4,-10
1570180104546043,7,1,-2,-1,2,5,25,-19
1570180104566206,3,1,0,1,-1,-3,-1,7
1570180104566206,-4,-4,-2,-2,4,-1,1,7
1570180104582900,3,-3,-1,-2,-3,7,3,7
1570180104582900,13,5,5,2,-1,-1,-5,44
1570180104584070,5,1,-1,-1,-2,3,-3,15
1570180104584070,2,0,0,0,0,-1,5,-5
1570180104587890,-4,2,0,-1,1,2,3,2
1570180104587890,5,-1,0,2,-1,0,-10,-7
1570180104604082,-9,-3,0,0,-2,-2,1,6
1570180104604082,-5,-3,-3,-3,2,-1,-4,4
1570180104605840,-2,1,1,1,-2,1,4,9
1570180104605840,11,5,-2,-1,0,1,-4,-3
1570180104618068,-3,-1,-1,-3,-7,0,3,-4
1570180104618068,2,-3,-3,-1,3,0,5,-9
1570180104626920,-3,2,3,1,2,-2,-20,-13
1570180104626920,0,0,-1,-1,-2,0,2,-4
1570180104640744,-4,-1,0,-2,-5,-3,0,-9
1570180104640744,-2,-2,0,0,2,-2,-1,-3
1570180104647725,-1,0,-1,-1,-3,2,0,-5
1570180104647725,-3,-1,-1,-2,-1,-2,-8,6
1570180104664686,-4,-2,-2,-2,0,-2,1,7
1570180104664686,1,-1,2,1,-1,0,-3,9
1570180104665678,-2,0,-3,0,-1,2,6,1
1570180104665678,-3,0,0,0,0,-2,-6,1
1570180104686625,-6,-2,-1,1,0,1,6,4
1570180104686625,2,0,0,-2,-2,0,4,-1
1570180104688618,-3,-2,-2,0,1,9,4,-2
1570180104688618,10,-3,-4,-2,-5,-9,0,16
1570180104701591,-2,0,-1,1,1,-2,-4,-8
1570180104701591,-1,-1,-1,-2,-1,-1,-2,5
1570180104708564,-2,0,1,1,0,-2,-4,1
1570180104708564,-4,-3,0,-1,1,1,-1,-4
1570180104724520,-1,0,0,-2,0,-1,-1,3
1570180104724520,-1,-1,-2,-1,-1,-5,0,0
1570180104725521,2,0,1,-1,0,-2,2,-7
1570180104725521,-4,0,0,0,2,2,-1,-3
1570180104746644,-1,0,-1,-2,0,-2,0,-5
1570180104746644,1,1,0,-1,-2,0,-2,-10
1570180104748458,4,-1,-3,-1,-1,0,2,3
1570180104748458,-3,0,2,2,-2,0,-3,-2
1570180104761544,-2,-1,-2,2,-1,0,-3,0
1570180104761544,7,5,0,0,1,-1,1,1
1570180104768404,-11,-9,-2,-2,1,1,3,21
1570180104768404,1,-1,-2,-2,0,1,3,-4
1570180104784396,2,0,-1,-1,-1,-2,-3,-6
1570180104784396,1,0,-2,1,0,0,1,1
1570180104786356,-4,2,0,-1,-1,0,-1,-3
1570180104786356,-10,-3,-2,-1,2,9,1,-23
1570180104806446,4,1,5,2,-2,-12,-7,9
1570180104806446,-3,-2,0,-1,-2,-3,-1,2
1570180104808305,-1,0,0,-2,-2,-7,-4,-7
1570180104808305,0,-1,-1,-1,1,5,1,8
1570180104820358,-2,-1,-1,-2,1,7,3,-4
1570180104820358,-1,-3,-2,-1,-1,-4,-6,-2
1570180104830238,3,1,1,0,3,6,-3,-2
1570180104830238,0,-1,-1,0,0,-4,-2,1
1570180104844207,-7,-1,-3,-2,-2,1,1,-6
1570180104844207,-2,0,1,0,0,0,1,2
1570180104846195,3,0,0,-1,-2,0,0,-3
1570180104846195,-5,-2,1,-2,-1,-3,-4,6
1570180104867142,-1,-2,-2,0,0,-1,1,2
1570180104867142,-3,-2,0,-1,1,2,1,-4
1570180104868138,3,1,-1,2,0,0,-1,-2
1570180104868138,0,-1,-2,-1,-2,-5,0,1
1570180104880104,-1,0,0,-2,-1,1,-2,-10
1570180104880104,-2,-3,-1,-1,-1,2,-1,0
1570180104889081,2,0,0,1,-1,-1,3,1
1570180104889081,1,1,1,-1,0,-3,-1,4
1570180104903044,-2,0,-2,-1,-1,2,1,-1
1570180104903044,-2,-1,-3,-1,-2,1,-1,-2
1570180104912246,-1,-2,0,-1,-2,-3,-3,-1
1570180104912246,0,0,-1,-2,-1,0,-1,0
1570180104926986,1,-1,-2,-1,0,1,0,1
1570180104926986,-1,-2,-1,0,-1,0,0,-2
1570180104928122,0,2,0,-1,0,-3,-2,-1
1570180104928122,0,0,-1,-1,-1,-1,0,4
1570180104940945,1,1,2,1,1,-1,3,18
1570180104940945,-1,-1,0,-2,-2,-2,-1,0
1570180104947949,-4,-1,-3,0,-1,-2,-2,-2
1570180104947949,-1,0,1,0,0,-2,1,2
1570180104963882,-1,-1,-2,-2,-2,0,-1,-4
1570180104963882,1,-2,-1,-1,0,0,3,1
1570180104966003,0,0,-1,-1,-1,1,2,2
1570180104966003,0,-1,-2,0,-2,1,-1,-1
1570180104986821,0,0,1,0,0,0,-1,-3
1570180104986821,-3,1,-1,0,0,1,-2,-1
1570180104988815,-1,0,0,-2,-1,-1,0,-2
1570180104988815,0,-2,-2,0,-2,-2,-1,1
1570180105000786,-1,-2,0,-1,1,-1,0,-3
1570180105000786,-1,0,0,-2,0,1,-1,1
1570180105007765,0,0,-1,1,-1,0,0,0
1570180105007765,-2,0,0,-1,0,-1,0,-4
1570180105024717,-1,-1,-2,-1,-1,-2,1,-1
1570180105024717,0,-1,-1,-1,0,0,0,-3
1570180105025716,-1,-1,-2,-2,0,0,-1,-1
1570180105025716,-1,-2,0,-2,-1,-2,0,7
1570180105047658,-1,-2,0,-2,-2,0,1,-7
1570180105047658,-1,1,-1,0,0,-3,2,-6
1570180105048655,0,-2,-2,-1,-2,-1,-2,-7
1570180105048655,0,0,-1,0,1,-1,-1,-4
1570180105060625,0,0,-3,-2,1,-1,-1,1
1570180105060625,-1,-2,-1,1,0,0,-1,3
1570180105069598,-3,-2,0,-1,-1,0,-2,0
1570180105069598,0,0,0,-1,0,0,-3,-5
1570180105084854,-1,-1,0,1,-1,1,0,1
1570180105084854,0,0,-1,0,0,0,0,0
1570180105085556,1,0,0,0,1,-1,-1,0
1570180105085556,0,-2,0,-1,0,-1,1,2
1570180105106980,-1,-1,-2,-1,-1,0,-2,-5
1570180105106980,0,-2,-3,0,0,-1,-3,-3
1570180105108496,1,1,-1,0,1,0,-1,1
1570180105108496,-2,-2,-1,-1,-2,-1,-1,-3
1570180105121612,-2,-1,-1,-1,0,-1,0,-1
1570180105121612,0,0,-1,-2,-2,-1,-1,2
1570180105127445,0,0,-1,-1,-1,0,0,1
1570180105127445,0,0,-1,0,-1,0,0,2
1570180105144399,-1,0,-1,0,0,-1,-1,1
1570180105144399,-3,0,-1,0,0,-1,0,-1
1570180105145396,2,-1,2,-1,-2,-2,0,0
1570180105145396,0,-1,-2,0,-1,1,-1,-4
1570180105166339,0,-2,0,-3,-1,1,-1,-2
1570180105166339,0,-1,-1,-1,-3,0,0,-1
1570180105168335,0,-2,-2,-1,-1,-1,-1,-2
1570180105168335,-2,0,2,0,0,0,-1,1
1570180105180301,1,0,-1,0,-1,1,-1,0
1570180105180301,0,0,0,0,0,-1,-1,0
1570180105189278,-2,-2,-1,1,-2,-1,-1,-3
1570180105189278,-3,-1,-1,-1,-1,-1,-1,-4
1570180105212655,1,0,1,-2,0,-1,1,-2
1570180105212655,0,1,1,-2,-1,-1,0,6
1570180105213213,0,-1,-1,0,0,0,-1,-7
1570180105213213,1,1,0,-1,-1,-1,-2,-3
1570180105227196,0,0,-1,-1,-3,-2,-3,-6
1570180105227196,-1,-1,0,0,0,-2,-1,1
1570180105228455,-1,-1,1,-1,0,-1,0,2
1570180105228455,-2,1,-2,1,0,0,1,2
1570180105240144,-2,-2,-1,1,1,-3,-1,1
1570180105240144,1,0,0,-1,-2,-1,0,1
1570180105249624,-1,-1,0,0,2,0,-1,7
1570180105249624,-2,-1,-1,0,-4,-2,-2,4
1570180105264077,-1,1,0,-1,-1,1,1,5
1570180105264077,-8,-2,-2,-1,1,-1,-3,0
1570180105266073,6,1,-1,-1,0,-1,2,7
1570180105266073,1,-1,0,-1,0,-2,1,8
1570180105287018,-1,0,0,-1,0,-2,2,1
1570180105287018,-2,-3,-1,-2,-2,-2,0,0
1570180105288013,-4,1,0,0,-3,-2,-1,-3
1570180105288013,-1,0,-2,-2,-1,0,0,-3
1570180105299981,-1,0,-1,1,-4,0,-2,0
1570180105299981,2,1,0,0,-2,0,-1,-3
1570180105310017,0,-1,-1,-1,-2,0,-1,-1
1570180105310017,0,-2,-1,-1,-2,-2,0,-1
1570180105324510,-1,-1,0,1,2,0,1,1
1570180105324510,2,-1,1,0,-1,-2,0,-5
1570180105325913,-10,-2,-2,-1,0,-2,-4,-14
1570180105325913,2,2,-1,-1,-2,-1,-1,2
1570180105346866,-4,-3,-1,-1,0,-1,-2,-6
1570180105346866,6,1,-1,-1,-1,-1,1,8
1570180105348012,-1,-1,-1,-1,-1,2,1,-1
1570180105348012,-3,-2,-1,3,1,-2,-1,-4
1570180105360818,0,0,-2,-1,0,0,1,-2
1570180105360818,-2,1,0,0,0,1,-1,-2
1570180105377773,-1,-1,0,0,-1,0,-1,-1
1570180105377773,2,0,-1,-1,-1,1,-1,3
1570180105384757,0,-1,-1,0,0,-2,-1,1
1570180105384757,-1,0,-3,0,0,1,0,-3
1570180105385752,1,0,2,-1,-1,-1,0,2
1570180105385752,0,0,0,-2,0,-1,0,-3
1570180105406697,-2,-1,-1,-2,-2,-2,-2,-1
1570180105406697,-3,-2,0,-1,1,1,0,1
1570180105408696,1,-1,1,0,0,-2,-1,6
1570180105408696,-2,-1,-2,-2,-1,1,0,-11
1570180105420662,-1,0,0,0,-1,0,0,2
1570180105420662,0,-2,0,-1,-2,-2,1,0
1570180105429635,-1,0,-4,-2,0,-2,-1,1
1570180105429635,-2,-1,1,1,1,0,-1,1
1570180105443600,0,-1,-2,-1,1,-1,-1,1
1570180105443600,-1,-1,-1,-1,-1,-2,-1,-5
1570180105450578,0,0,-1,-1,-2,0,1,2
1570180105450578,0,0,-2,-1,-2,0,-1,0
1570180105466539,-1,1,0,-1,-1,0,1,-2
1570180105466539,-1,-1,1,-1,-1,0,-1,2
1570180105468531,-2,0,-1,-1,-1,1,1,0
1570180105468531,-1,0,1,1,1,-1,-1,2
1570180105489481,1,-1,-2,0,0,-3,-1,1
1570180105489481,-2,0,0,-1,0,0,-1,-6
1570180105490474,0,-2,0,-1,-2,-1,-1,0
1570180105490474,1,-2,0,-2,0,-2,0,1
1570180105503439,-1,0,-2,-1,-2,-1,-1,0
1570180105503439,-3,-1,-1,1,1,-1,0,-1
1570180105510511,3,-1,-1,-1,-2,1,0,-1
1570180105510511,-2,0,-1,0,-3,-1,-1,0
1570180105526383,0,0,0,-1,0,0,1,7
1570180105526383,0,-1,-2,0,2,-1,-2,-9
1570180105528811,-1,-1,1,-1,0,-1,-1,-1
1570180105528811,0,-1,-1,-1,0,-2,1,1
1570180105540339,-1,-1,-1,-1,-1,1,-1,1
1570180105540339,-1,0,0,0,-1,-2,0,1
1570180105549315,-3,-1,1,0,0,0,0,-1
1570180105549315,1,-2,0,-2,-1,0,-2,-3
1570180105563439,0,-1,1,-1,0,-1,0,-5
1570180105563439,0,-2,-2,-2,0,0,0,4
1570180105570258,2,0,-1,-1,1,0,1,3
1570180105570258,-4,-1,0,0,-2,-2,-2,-3
1570180105587213,2,0,0,-1,-1,1,-1,-2
1570180105587213,1,-1,-1,-1,-1,0,0,1
1570180105588212,-2,-2,-1,0,0,-2,0,-11
1570180105588212,0,-1,-1,0,-1,1,2,-1
1570180105609155,-2,-1,-1,-1,-2,-1,1,-2
1570180105609155,-1,1,-1,-1,-1,-1,0,0
1570180105611225,0,-1,0,0,0,-1,0,4
1570180105611225,0,0,0,-2,-1,-1,-2,1
1570180105624115,-1,0,1,0,-1,-1,-1,-3
1570180105624115,1,-1,0,0,-2,1,-2,0
1570180105626111,-2,-1,0,-1,-2,-1,-1,2
1570180105626111,2,0,-2,1,0,-1,-1,-3
1570180105647058,-2,-1,-1,1,-1,0,-1,-2
1570180105647058,1,0,-1,1,0,1,1,5
1570180105648051,-1,1,-2,-1,-3,-1,-1,-4
1570180105648051,0,0,-1,-1,-1,1,2,7
1570180105669196,-1,-1,-1,0,1,0,-2,-6
1570180105669196,-1,0,0,0,-2,0,-2,-4
1570180105670990,1,-1,-1,0,-2,0,-1,0
1570180105670990,2,0,0,1,-1,-1,-1,0
1570180105684055,0,-1,-1,-1,-3,0,-1,-1
1570180105684055,-2,-3,-1,0,-2,-1,1,-1
1570180105685950,-2,0,-2,0,-1,-1,0,-2
1570180105685950,-2,-1,0,1,1,-1,-1,-3
1570180105706898,-3,0,1,-1,1,-1,1,1
1570180105706898,-1,0,0,-1,0,-1,-1,-2
1570180105708822,0,-1,-1,1,1,0,0,0
1570180105708822,-1,0,-1,-2,0,0,-1,-1
1570180105729835,0,-1,0,0,-2,-1,0,1
1570180105729835,-1,0,-2,0,1,-3,-1,1
1570180105730834,-1,-1,-1,-2,1,0,-1,-3
1570180105730834,-1,1,0,-1,-2,0,2,-1
1570180105743799,1,1,-1,-1,0,0,-1,0
1570180105743799,-1,0,-2,0,-3,-2,-1,-3
1570180105746130,0,2,-1,2,-1,-2,0,0
1570180105746130,0,-1,0,-1,-2,-2,-1,-8
1570180105766777,1,-1,-1,-1,0,1,-1,4
1570180105766777,0,-2,1,0,0,1,-1,-1
1570180105768727,-2,1,1,0,0,0,-1,-2
1570180105768727,-1,-2,-1,0,0,-1,-1,1
1570180105789673,1,-2,-1,1,-1,0,1,0
1570180105789673,0,-1,-1,-2,-1,1,-1,-2
1570180105790671,0,-2,-1,-1,-1,0,0,1
1570180105790671,-1,-2,1,-1,0,0,-1,1
1570180105803717,-2,-2,0,-1,-1,-1,-1,-1
1570180105803717,-1,1,-1,1,-1,0,-1,1
1570180105810616,-3,-1,0,-1,-1,-3,-2,-1
1570180105810616,3,-1,-1,-1,1,-1,2,3
1570180105826577,-1,-1,-1,-1,2,0,1,0
1570180105826577,0,1,-1,-1,-1,0,-1,-1
1570180105829566,0,-1,-1,1,0,1,-2,-2
1570180105829566,-2,-1,-2,-1,-1,-2,-2,-3
1570180105849511,0,0,0,0,-1,-1,0,-2
1570180105849511,-1,-1,1,-2,0,0,-1,1
1570180105850510,0,-1,-1,-1,-2,-1,-1,-1
1570180105850510,-2,0,0,-1,-2,-1,0,1
1570180105863474,-1,-1,-1,0,-2,0,-1,-4
1570180105863474,-1,-2,-1,-1,-1,-1,0,-1
1570180105870456,1,0,-1,-1,-1,-1,0,0
1570180105870456,-1,0,0,1,-1,-1,-1,-2
1570180105887412,-1,0,-1,2,0,1,-2,0
1570180105887412,0,-2,-2,-3,-2,-1,0,4
1570180105888409,1,-1,0,-2,0,1,2,-3
1570180105888409,0,-1,-1,0,-1,0,0,3
1570180105909351,-2,-1,1,-2,0,-1,0,-3
1570180105909351,1,-1,0,-1,0,-1,-1,1
1570180105911402,1,-1,-1,-1,-1,0,1,5
1570180105911402,-1,0,1,-1,0,1,-1,-2
1570180105923315,-1,-1,-2,0,-2,-1,-1,-1
1570180105923315,0,-1,0,-2,-1,-1,-1,-4
1570180105930295,1,0,0,1,0,-1,-1,-2
1570180105930295,-3,-1,-1,-1,-1,-2,-1,-4
1570180105954236,0,2,-1,-1,0,0,-2,6
1570180105954236,0,1,-2,-1,0,-1,3,1
1570180105956361,0,-1,-2,-3,-1,-1,-2,-1
1570180105956361,-2,-2,-1,-1,-1,1,0,-2
1570180105969236,-1,-3,-2,-1,-2,-2,-1,-3
1570180105969236,-1,0,0,0,0,-1,1,0
1570180105971194,-1,0,0,-1,-1,-2,0,3
1570180105971194,-1,-3,-2,-1,-3,-2,-4,-14
1570180105983198,0,0,-2,-2,-1,-1,-2,2
1570180105983198,-1,-1,-1,0,0,0,-3,-5
1570180105990153,-2,-3,-1,-1,0,-1,0,-3
1570180105990153,2,-1,-1,-2,0,-1,1,4
1570180106007120,-1,-1,0,0,-1,0,2,1
1570180106007120,-1,1,-1,-1,0,-3,-3,-1
1570180106008091,-2,0,1,-3,-1,-1,-1,-5
1570180106008091,0,0,-2,-1,0,1,0,4
1570180106029228,-1,0,-2,-1,0,0,-1,-2
1570180106029228,-3,-2,0,0,0,0,-1,-5
1570180106031204,7,1,-1,-1,-4,-2,0,15
1570180106031204,0,-1,-2,0,-2,1,1,-1
1570180106052070,1,0,-1,-1,1,-1,-3,2
1570180106052070,-5,-2,0,-2,-2,2,13,-14
1570180106052968,-1,1,-1,0,2,-2,-8,0
1570180106052968,0,0,0,0,1,-2,0,1
1570180106066931,-2,-1,-1,0,-1,-2,-2,-7
1570180106066931,-1,-1,-1,-1,0,0,0,4
1570180106068130,-4,-2,0,1,-1,0,1,-5
1570180106068130,1,0,1,1,-1,-1,0,2
1570180106089800,0,-1,-2,-2,0,0,0,-3
1570180106089800,3,-2,-1,0,1,-1,-2,3
1570180106090797,3,1,2,0,1,1,-13,11
1570180106090797,-2,-3,0,-1,1,0,-4,2
1570180106103261,0,0,-1,0,-1,0,3,4
1570180106103261,2,1,-1,1,0,-1,-4,1
1570180106112046,-1,-1,-2,-1,0,-1,4,-4
1570180106112046,-1,1,-1,-2,-1,0,3,-3
1570180106127332,3,1,2,0,1,1,1,19
1570180106127332,1,0,1,0,-1,-1,-2,1
1570180106128599,-3,0,0,1,-3,1,4,-2
1570180106128599,-1,0,-1,0,0,0,1,-1
1570180106149073,-3,-1,-1,-2,-1,0,0,-7
1570180106149073,1,0,-2,-1,-2,0,-3,-1
1570180106155827,-1,-3,-1,0,-2,1,3,0
1570180106155827,1,-1,-2,-2,-1,-2,-3,1
1570180106163011,-1,0,-2,-1,1,0,0,-4
1570180106163011,-1,-1,-1,-1,0,0,-2,0
1570180106172146,0,0,-1,-1,-1,0,-1,-4
1570180106172146,1,-1,-1,-2,0,0,1,0
1570180106187175,-2,-1,1,0,-2,-2,-2,-6
1570180106187175,1,0,0,0,0,-1,0,3
1570180106188368,-2,-2,0,-1,0,-1,1,-6
1570180106188368,-2,0,-1,-1,0,-2,0,2
1570180106209810,-3,0,-1,0,-2,-1,1,-3
1570180106209810,-2,-2,0,-2,-2,-3,-2,1
1570180106210925,-3,0,-2,-2,-1,0,0,-3
1570180106210925,-1,-1,-1,0,-2,0,0,6
1570180106223079,-2,-1,0,0,1,-1,-2,-4
1570180106223079,0,-1,-2,-2,0,0,-1,0
1570180106231835,-1,0,-2,-1,1,0,2,-2
1570180106231835,0,-1,-1,-1,-1,-1,-1,3
1570180106246593,1,0,-1,-1,-1,0,-1,1
1570180106246593,1,0,-1,0,-1,-1,-3,2
1570180106248587,0,-1,0,0,0,0,1,0
1570180106248587,0,-1,-1,0,-1,-1,1,-2
1570180106269344,0,-1,0,1,-2,-1,0,-1
1570180106269344,1,-1,-1,0,-2,0,1,1
1570180106271422,-3,-1,-2,-1,-2,-1,0,-4
1570180106271422,-2,0,1,0,-2,0,-2,-3
1570180106283112,-2,-2,-1,-1,0,-1,0,1
1570180106283112,-2,1,-1,-1,-1,-1,-3,0
1570180106291877,-2,0,1,1,0,-1,-1,-2
1570180106291877,-1,0,1,-1,-1,1,-1,4
1570180106307121,0,0,0,-2,-1,0,-2,-7
1570180106307121,-3,-1,-1,0,1,0,1,4
1570180106308577,5,-1,0,0,-1,-1,0,5
1570180106308577,1,0,0,1,-1,0,1,-3
1570180106329359,1,-1,-2,1,-2,-2,0,9
1570180106329359,-2,-1,-2,-1,-1,-1,1,-2
1570180106331250,-2,-1,0,-2,-1,0,-1,-4
1570180106331250,-1,-1,-1,-1,-1,-2,-1,0
1570180106343224,-2,-1,-2,-1,-1,-1,-3,-6
1570180106343224,2,0,1,-1,-1,-1,0,-3
1570180106352449,1,0,-1,-1,-1,-1,-1,2
1570180106352449,-1,-1,-1,-2,1,0,-1,-2
1570180106367392,-1,0,-1,0,-2,0,-1,-1
1570180106367392,0,0,0,-2,0,-1,-2,0
1570180106368152,0,0,-1,0,0,0,-2,-1
1570180106368152,0,-2,-2,-2,-1,0,0,-1
1570180106389291,1,-1,-1,-1,1,0,0,-1
1570180106389291,0,-2,0,-1,0,-1,0,0
1570180106391091,-3,-1,-1,-1,-1,-2,-1,-4
1570180106391091,-1,1,0,-1,-1,-3,-1,0
1570180106403056,-2,-1,-3,-2,0,-2,-1,2
1570180106403056,-1,0,1,0,0,-2,-1,6
1570180106412406,-2,-3,-1,-2,0,1,-1,-8
1570180106412406,-1,-1,-1,0,-1,1,1,-1
1570180106427243,1,-1,-1,-2,-2,0,1,1
1570180106427243,0,0,-1,0,-2,0,0,3
1570180106428414,0,-1,-1,-1,-2,-2,-1,1
1570180106428414,1,1,-2,0,1,-1,-2,-3
1570180106448934,0,-1,0,0,-2,0,0,0
1570180106448934,-4,-1,-2,-2,-1,1,-2,-6
1570180106450929,-1,-1,-1,0,-2,-1,0,3
1570180106450929,-1,0,1,-1,0,0,0,-4
1570180106463900,-4,-1,-2,0,1,0,-2,-8
1570180106463900,2,-1,-2,-1,-1,-1,1,4
1570180106472871,-1,-1,1,-1,0,-1,-1,-1
1570180106472871,-1,-1,-1,-1,-2,1,1,5
1570180106487830,-2,0,-2,-1,0,0,1,-4
1570180106487830,9,3,1,2,-1,-2,-18,24
1570180106489447,4,2,-1,0,0,-3,-10,11
1570180106489447,-3,-2,0,0,0,-1,0,-6
1570180106509919,1,1,1,0,-1,-1,-2,4
1570180106509919,-1,-3,-1,-1,0,1,5,-9
1570180106510770,-1,-1,-1,0,-1,-1,3,-2
1570180106510770,0,-1,0,0,0,-1,-5,1
1570180106522738,0,-1,-1,0,-1,0,2,2
1570180106522738,-1,0,-1,-3,-1,-1,4,-5
1570180106531715,-2,0,-1,-1,-2,0,0,-4
1570180106531715,-1,0,-2,-1,-2,-1,1,-2
1570180106546801,-3,0,1,-3,-2,0,0,-1
1570180106546801,-2,-1,0,0,-1,-1,0,-8
1570180106548668,0,0,0,-1,0,1,2,-2
1570180106548668,1,0,-1,0,-1,-1,-2,1
1570180106569611,3,-1,0,1,-2,-2,-2,-2
1570180106569611,-2,-2,-1,0,0,3,1,-3
1570180106570611,-2,-2,-2,-2,1,0,2,0
1570180106570611,3,1,-1,1,1,1,4,16
1570180106591552,-1,0,0,-1,0,-1,-1,-1
1570180106591552,0,0,-1,-1,-1,-1,3,-4
1570180106598535,-2,-1,-2,-2,-1,-1,0,3
1570180106598535,-1,-1,-2,0,0,0,-4,-15
1570180106606771,-2,-2,-2,-1,0,1,1,2
1570180106606771,3,2,0,1,1,-2,-5,-2
1570180106608508,0,0,-2,1,-1,-1,0,-1
1570180106608508,0,-1,-1,-1,-3,0,0,0
1570180106629452,-2,-1,1,0,-1,-2,0,0
1570180106629452,-4,-1,-1,-1,-2,-2,-2,-4
1570180106631450,-2,-1,-3,-1,0,0,0,-4
1570180106631450,-3,0,-2,-1,0,-1,-3,-6
1570180106651398,7,-1,0,-2,-1,-1,0,6
1570180106651398,-2,-2,1,-2,-2,0,-1,0
1570180106654023,1,0,1,0,1,0,-1,-1
1570180106654023,-2,-1,0,1,1,-1,0,-1
1570180106666615,-1,1,-3,1,0,-2,0,-2
1570180106666615,-2,-1,-1,1,0,-2,1,0
1570180106668347,0,2,-1,0,-1,1,0,-2
1570180106668347,-2,0,0,-2,0,0,-2,-5
1570180106689293,-1,0,0,-1,-1,1,0,2
1570180106689293,1,1,-2,-2,2,-1,1,1
1570180106691288,-2,-2,-2,0,-1,-2,-2,-13
1570180106691288,1,-1,-1,0,0,-2,0,-2
1570180106712231,1,1,0,0,0,-1,1,7
1570180106712231,-1,-3,-2,-2,-2,0,1,-2
1570180106713228,-1,-1,0,-1,1,-1,-1,3
1570180106713228,0,-1,1,-2,-1,-2,-2,-4
1570180106726193,0,0,-1,-3,-2,-2,-3,-7
1570180106726193,-2,-1,-1,-1,0,-1,-1,-2
1570180106733284,0,0,-2,-1,0,0,1,4
1570180106733284,-1,0,-1,0,-1,-1,1,1
1570180106749245,-4,-2,-1,-2,0,2,-1,0
1570180106749245,0,-1,0,0,0,-1,0,0
1570180106751127,0,-1,0,-1,-3,-1,0,1
1570180106751127,-1,-1,0,-1,-2,-1,-2,-2
1570180106772074,-3,-1,-2,0,-1,1,-1,-8
1570180106772074,6,-1,-1,-2,-3,0,1,10
1570180106773068,1,-1,1,-1,0,-1,0,0
1570180106773068,0,-1,-1,-1,1,0,-1,1
1570180106786036,-3,-1,1,1,0,-2,-2,-2
1570180106786036,-3,-2,0,0,-1,1,-1,-5
1570180106793020,-2,-2,-2,-1,0,-1,0,1
1570180106793020,-1,1,-1,-2,0,-1,-1,-2
1570180106809131,3,-1,0,0,-1,0,1,12
1570180106809131,0,1,-2,1,-1,0,0,-2
1570180106810968,1,0,-1,-1,-1,2,0,0
1570180106810968,-1,0,-1,-3,-1,-1,0,-1
1570180106831911,0,-1,-1,0,0,-2,-1,-4
1570180106831911,-4,-1,-2,-1,0,-1,-2,-6
1570180106833083,1,-1,2,1,-2,-1,1,5
1570180106833083,0,1,0,-1,0,0,0,2
1570180106845937,-2,-1,-1,-2,-1,-1,-1,-3
1570180106845937,1,-1,-2,-2,-3,-1,0,2
1570180106853048,-2,-1,-1,-2,-1,-1,-3,-5
1570180106853048,0,-1,-1,-1,-2,-1,1,1
1570180106868814,1,-2,-2,-1,-2,-1,-1,-1
1570180106868814,-4,-1,0,-2,0,-1,5,-9
1570180106876892,4,2,-1,2,0,-2,-12,9
1570180106876892,3,1,1,2,0,-2,-11,7
1570180106899730,0,-1,0,-1,0,1,0,0
1570180106899730,-2,-2,0,-1,-1,-1,1,0
1570180106900813,-4,-3,-2,-1,-2,0,7,-7
1570180106900813,-2,-1,-1,-2,0,1,2,-2
1570180106906065,0,0,-1,0,-1,-2,-3,2
1570180106906065,-5,-1,-1,0,-2,-2,-5,-1
1570180106913692,1,1,-1,-1,0,0,4,-1
1570180106913692,0,-1,-2,0,0,1,1,5
1570180106928703,-2,-1,0,-2,-2,-1,1,-4
1570180106928703,1,0,2,-1,-1,-1,0,-3
1570180106929649,-3,0,0,-2,-1,-2,0,0
1570180106929649,-1,-2,-1,1,0,-1,4,-3
1570180106951612,1,-1,0,1,-1,-1,-2,-2
1570180106951612,3,1,-1,-1,1,1,-1,2
1570180106951612,-1,-1,-1,1,0,-2,-5,-1
1570180106951612,-3,-1,-2,-1,-2,-3,-4,-20
1570180106965557,-2,-1,-3,-1,-1,0,2,2
1570180106965557,-1,0,0,-1,-1,0,-1,-1
1570180106974047,0,-1,-1,0,0,1,-2,2
1570180106974047,-2,-2,-1,-1,0,-1,3,0
1570180106988496,0,-2,0,1,0,0,3,6
1570180106988496,-1,1,-2,-1,-3,1,-1,-5
1570180106989497,-1,-1,0,0,0,-2,2,-5
1570180106989497,4,2,0,0,0,-4,-15,10
1570180107011502,0,3,1,-1,-1,-1,-2,1
1570180107011502,2,-2,-1,-1,0,0,1,7
1570180107011502,0,-1,-1,-1,-1,0,1,-2
1570180107011502,-2,-1,-1,-1,0,0,4,-4
1570180107025398,1,1,-2,1,-1,-1,0,-2
1570180107025398,-1,0,0,0,0,-1,-4,-2
1570180107033614,-2,-2,-2,0,-1,0,0,-2
1570180107033614,0,1,-1,1,0,1,4,11
1570180107048331,0,1,-1,-1,-2,1,0,1
1570180107048331,-3,0,0,1,1,-3,0,-2
1570180107049330,2,0,0,-1,-1,0,0,5
1570180107049330,-3,-3,0,-3,-1,0,4,-3
1570180107071270,-4,-1,0,0,0,-2,-2,-4
1570180107071270,0,-1,-1,0,-1,0,1,4
1570180107072272,-2,0,0,0,0,-3,-1,-2
1570180107072272,-3,0,0,0,-1,0,5,-10
1570180107085232,2,2,-1,0,0,-2,-13,-2
1570180107085232,3,-1,-1,-2,0,-3,1,3
1570180107093264,-2,-2,-2,-1,-1,0,0,-2
1570180107093264,-1,-3,-1,-1,-2,2,3,-2
1570180107108561,-5,-5,-1,-2,-1,-2,1,-11
1570180107108561,-2,1,1,0,0,-1,-2,-4
1570180107109170,0,1,-1,0,-3,-1,-3,2
1570180107109170,-2,0,0,0,0,0,-1,-1
1570180107131114,0,0,-2,-1,-2,1,0,1
1570180107131114,0,0,0,1,-1,-1,-3,-2
1570180107132109,-6,-1,1,-1,0,1,1,-9
1570180107132109,4,1,0,0,-1,0,-1,2
1570180107145074,2,3,0,0,1,0,0,3
1570180107145074,0,-1,0,-1,-1,0,1,-2
1570180107154049,-2,-1,0,-1,1,0,0,3
1570180107154049,-2,0,0,-1,-2,0,-1,-1
1570180107169008,0,-1,1,-1,2,-1,0,2
1570180107169008,-1,-1,-1,-1,-1,-1,-1,-2
1570180107169194,0,-2,0,-2,-1,0,1,2
1570180107169194,-2,0,0,-1,1,-2,-2,0
1570180107190962,4,1,0,-1,-1,0,-6,9
1570180107190962,1,1,-1,-1,1,0,4,13
1570180107191947,4,3,1,0,0,-2,-4,1
1570180107191947,0,0,-1,-1,-2,-1,-3,1
1570180107205912,-3,-1,0,1,-2,0,3,-4
1570180107205912,-3,-1,0,-1,0,0,0,-8
1570180107213892,6,1,0,0,0,-1,-6,9
1570180107213892,-1,0,0,-2,-1,-1,2,1
1570180107228850,-1,-1,1,-1,2,-1,0,-6
1570180107228850,0,-1,-1,1,-2,0,0,8
1570180107228850,-3,-1,-3,0,-2,-1,1,-11
1570180107228850,-4,-2,-1,-1,-1,-1,-4,-7
1570180107250911,4,1,-1,0,0,0,0,4
1570180107250911,-1,-2,-2,1,1,1,-1,0
1570180107251788,-1,-1,0,-1,0,0,5,0
1570180107251788,-3,-1,-2,0,0,-1,-3,-11
1570180107265750,-4,0,0,0,1,0,2,-3
1570180107265750,-2,-2,-1,-1,0,-2,1,-1
1570180107273773,0,0,0,-1,0,-1,-1,-1
1570180107273773,1,-1,0,1,1,2,0,-3
1570180107288696,-3,0,0,-3,-3,-1,1,-3
1570180107288696,0,0,0,-1,-1,-2,-11,8
1570180107289686,-1,-1,-1,-1,0,-2,-2,-5
1570180107289686,0,-2,-1,-1,-1,0,1,4
1570180107310729,0,-1,-2,0,0,0,-2,0
1570180107310729,-1,-1,-2,-2,-2,0,3,-5
1570180107311628,-2,-1,-1,-2,-1,-2,1,0
1570180107311628,0,0,-1,-1,-1,0,-1,4
1570180107325695,-3,-1,-1,0,-1,-1,3,-4
1570180107325695,-2,0,0,0,-1,-2,-1,-7
1570180107333568,-4,-2,-1,-1,0,1,10,9
1570180107333568,2,-2,0,1,-1,-1,2,-3
1570180107348530,-1,-3,-2,0,-1,-2,-3,-1
1570180107348530,2,1,0,-2,-2,-2,0,0
1570180107349528,-2,0,-2,0,-2,-3,-3,-4
1570180107349528,0,1,-1,-1,-1,-1,-3,3
1570180107371468,-2,-1,-2,0,0,1,1,0
1570180107371468,-10,-3,-1,-3,0,2,10,-22
1570180107371468,4,1,-1,-1,-1,1,-3,4
1570180107371468,1,0,-1,-1,0,0,0,1
1570180107385429,0,-1,-2,0,-2,-2,-1,1
1570180107385429,-1,-1,-1,2,1,0,-1,-3
1570180107393421,0,0,-3,-1,-1,0,-2,-3
1570180107393421,-1,-2,-1,1,0,-1,-1,1
1570180107408516,0,1,0,-2,0,0,0,-1
1570180107408516,-4,-2,-1,1,0,1,1,0
1570180107409740,0,-2,0,-1,0,-2,-3,-1
1570180107409740,0,0,-2,0,-2,-2,0,4
1570180107431311,-1,-1,-1,-1,-1,-1,0,-3
1570180107431311,1,-3,0,1,-2,0,-2,2
1570180107432305,-3,0,-1,-1,0,-1,-5,-16
1570180107432305,-4,0,-2,0,-1,-1,1,-3
1570180107445553,-1,-2,-1,1,-2,-2,1,-2
1570180107445553,5,2,0,0,-1,-2,-4,2
1570180107453334,-5,-2,-2,-1,0,-1,0,-3
1570180107453334,1,0,0,-1,-2,1,-1,0
1570180107468734,-1,0,1,-2,1,-2,-3,-4
1570180107468734,0,0,-1,0,-2,-3,-4,-2
1570180107469988,0,0,1,0,0,0,1,4
1570180107469988,-1,0,1,0,1,-3,2,0
1570180107491153,-2,-2,-1,-1,-1,-1,6,2
1570180107491153,5,3,1,1,1,0,-7,5
1570180107492146,-1,-1,-1,0,0,-2,1,0
1570180107492146,2,-3,-2,0,0,0,-1,6
1570180107514086,0,-2,1,0,1,1,-3,0
1570180107514086,-1,-1,0,-2,-1,-1,0,-2
1570180107515083,0,1,-1,-1,-3,-1,-1,2
1570180107515083,-2,0,0,-1,1,0,0,-4
1570180107529046,-3,-2,-3,0,-1,-2,-4,-20
1570180107529046,1,-1,-2,-3,-1,0,7,11
1570180107529046,1,0,2,0,-2,-3,-4,1
1570180107529046,-1,0,-1,0,-2,-1,0,-4
1570180107550995,0,0,0,-1,0,0,-1,1
1570180107550995,-2,0,-2,1,2,-1,-1,-2
1570180107551985,1,0,-1,0,-1,0,0,0
1570180107551985,0,0,0,-1,0,-1,-1,0
1570180107573926,0,1,-1,-1,-3,0,-3,3
1570180107573926,-3,-1,0,-2,-2,-1,1,-3
1570180107575054,0,0,1,0,1,0,1,3
1570180107575054,-2,0,1,-2,-1,1,2,-5
1570180107588886,5,2,1,0,0,-3,-15,9
1570180107588886,1,-1,1,1,-1,-1,-1,0
1570180107589765,0,-3,0,-1,-1,1,-1,-3
1570180107589765,-3,1,0,0,0,0,2,0
1570180107610830,-2,-2,0,-2,-1,-2,0,-15
1570180107610830,0,2,-2,0,1,1,-2,0
1570180107611867,-2,-1,-1,0,0,1,-2,3
1570180107611867,-5,-4,-2,-4,-1,-2,5,-7
1570180107634768,0,0,0,-2,-1,1,4,4
1570180107634768,-1,-1,-2,1,1,0,-5,-4
1570180107634894,-1,-1,-3,0,-2,-1,1,1
1570180107634894,1,-2,0,-1,-2,-1,-5,1
1570180107648779,-1,0,0,0,0,0,1,1
1570180107648779,0,-2,-2,-2,-1,-1,-1,-4
1570180107649726,1,-2,0,0,-1,-1,0,3
1570180107649726,-1,0,0,0,0,-1,-3,2
1570180107670672,1,0,-1,2,-1,1,4,11
1570180107670672,0,0,0,0,-2,-1,-1,-5
1570180107671672,-2,0,-1,-3,0,-2,0,-4
1570180107671672,3,0,-1,-1,0,-1,-1,1
1570180107694607,-1,1,-1,-1,0,-2,1,2
1570180107694607,-1,-2,-2,-2,-1,-1,-1,-4
1570180107694607,1,-1,0,0,0,-1,0,3
1570180107694607,1,-1,0,1,-2,-1,-2,1
1570180107709944,1,-2,-1,-2,-1,-2,-3,1
1570180107709944,-2,-2,-1,1,-1,0,1,7
1570180107709944,-1,-2,-1,-2,0,-1,-2,-6
1570180107709944,2,0,-2,0,0,0,0,6
1570180107731505,0,-1,-1,0,0,1,-2,1
1570180107731505,-2,1,0,-1,-1,-2,-1,-4
1570180107731505,0,0,-1,0,1,0,0,2
1570180107731505,0,-1,-1,0,-1,-1,-4,-5
1570180107754460,-4,-2,-3,-1,-1,1,5,-2
1570180107754460,-1,-1,2,-1,0,-1,0,-8
1570180107755443,1,0,-1,0,-1,-2,-1,0
1570180107755443,2,-1,0,-2,-1,-2,-1,1
1570180107769060,-3,0,1,1,1,0,-1,-6
1570180107769060,4,0,-1,-2,0,0,-2,7
1570180107769404,-4,-1,-2,-1,0,-1,-1,-6
1570180107769404,-1,1,-1,-1,0,2,-1,-2
1570180107791415,-3,-3,-2,-1,-2,-3,-2,-13
1570180107791415,2,0,-2,0,0,1,-2,0
1570180107791415,0,0,0,0,-2,-2,0,-2
1570180107791415,0,0,0,-1,-1,-1,-2,2
1570180107814284,-1,0,-1,-1,-1,1,1,-1
1570180107814284,-1,1,0,-2,-2,1,2,-1
1570180107815281,-1,0,0,-1,0,0,-5,2
1570180107815281,1,-2,-1,-1,1,-2,-1,5
1570180107828337,1,1,0,-1,-1,-1,0,2
1570180107828337,0,-1,-2,1,-1,-2,-2,6
1570180107829488,-2,-2,-1,3,-1,0,0,0
1570180107829488,-2,-1,-1,0,0,0,-1,-1
1570180107851189,0,-2,0,-1,0,0,-2,1
1570180107851189,-3,-2,-2,-3,-1,-1,3,-4
1570180107853181,3,2,2,0,-1,0,0,4
1570180107853181,1,-1,-1,-2,-2,-1,3,13
1570180107873214,2,-1,-2,-1,-2,1,-3,2
1570180107873214,-2,0,-2,-1,0,-1,-2,-3
1570180107874369,-4,-2,-1,-2,-1,0,6,-1
1570180107874369,-2,-2,-1,2,-1,-1,-2,-6
1570180107888095,1,-1,-1,0,0,0,2,2
1570180107888095,2,-2,-1,0,-2,0,-4,4
1570180107889090,-4,0,-1,-2,0,1,-1,-7
1570180107889090,0,0,-2,0,1,0,1,-2
1570180107911126,-2,-1,-3,-1,-2,-1,3,4
1570180107911126,-2,-1,-1,1,0,0,0,-5
1570180107912026,-1,-2,-3,-1,-2,-2,-2,0
1570180107912026,-2,1,1,-1,-1,0,-4,-8
1570180107934053,3,1,0,0,-1,0,1,10
1570180107934053,-1,-2,0,0,0,-2,0,-1
1570180107934965,1,2,1,0,-1,0,0,5
1570180107934965,-2,-2,-2,-1,0,-1,-1,-16
1570180107948973,-1,1,0,0,0,-1,-2,-5
1570180107948973,3,1,1,0,-2,0,3,16
1570180107948973,-1,0,0,0,-2,1,-3,-3
1570180107948973,-3,-2,-2,0,-2,-1,4,0
1570180107970865,1,1,-1,0,1,-1,-2,1
1570180107970865,-2,-1,-1,1,1,-1,-2,-3
1570180107971875,1,-1,-2,2,0,0,-1,0
1570180107971875,1,-1,-2,0,-1,2,1,6
1570180107993898,-1,-2,-2,-1,-4,-1,3,-4
1570180107993898,6,2,0,0,-1,-1,-13,12
1570180107994801,0,-1,-1,-3,1,-2,-1,0
1570180107994801,-1,2,0,0,-1,-1,-1,-5
1570180108008768,-3,-3,-3,-1,2,2,1,2
1570180108008768,-2,-2,0,-1,-1,0,0,-8
1570180108009766,0,0,-2,0,-1,-1,2,14
1570180108009766,1,0,0,0,-1,-2,-3,5
1570180108030708,-2,-1,0,1,-1,0,0,-1
1570180108030708,-3,-1,-1,-1,1,0,3,-2
1570180108031711,0,1,0,0,1,1,-4,-6
1570180108031711,-3,-1,0,-1,0,-1,2,-3
1570180108054648,0,1,-2,-1,-2,-4,-2,0
1570180108054648,0,-2,-2,-1,-1,1,2,-1
1570180108054648,0,-2,-1,-1,-1,-2,-1,-5
1570180108054648,1,0,-2,-1,-1,0,-1,0
1570180108068806,1,1,0,0,0,-1,-4,-3
1570180108068806,-2,-1,-1,-2,0,0,0,-5
1570180108069602,0,0,1,0,-1,1,-2,0
1570180108069602,1,0,0,1,-2,1,-3,12
1570180108090547,-1,-1,0,-1,-1,1,1,-9
1570180108090547,4,1,1,1,0,1,0,10
1570180108091546,0,0,1,0,-1,-1,-3,-1
1570180108091546,-2,-1,-2,0,-2,-2,0,-7
1570180108114489,2,2,0,-3,-2,-1,-2,1
1570180108114489,-1,0,-3,0,1,-3,-1,-5
1570180108115480,-3,-2,-3,-1,1,0,3,-3
1570180108115480,1,0,1,0,0,0,-4,3
1570180108128444,0,-1,1,-1,-1,-2,1,3
1570180108128444,-2,-3,-3,-2,-3,-1,-1,-13
1570180108136426,0,-1,-2,-1,-1,0,0,0
1570180108136426,-2,-2,-2,-2,1,0,2,-3
1570180108151478,1,-1,1,1,0,-1,-3,3
1570180108151478,-3,-1,1,-2,1,-1,1,-3
1570180108152381,-1,-2,-1,0,0,-1,-1,-5
1570180108152381,-1,-1,-1,-1,0,0,0,1
1570180108174327,-8,-2,-2,-1,-2,1,12,-15
1570180108174327,-1,2,-2,2,-2,2,2,7
1570180108175319,4,0,-1,0,-1,-1,0,2
1570180108175319,1,-1,0,-1,-2,-1,-2,3
1570180108188286,-1,-1,-2,-1,-1,-1,-1,-1
1570180108188286,-1,-2,-1,-1,-2,-1,1,-7
1570180108196385,-3,0,0,-2,-1,-1,0,-2
1570180108196385,-1,-1,-1,-1,-1,1,3,4
1570180108211222,8,0,1,1,2,-1,-10,12
1570180108211222,-3,-1,-1,-2,0,0,-3,-5
1570180108212278,0,-1,-1,-3,-1,0,-1,0
1570180108212278,1,1,0,0,-1,-3,-2,0
1570180108234160,-1,0,-2,0,0,-1,-2,-1
1570180108234160,-1,0,-1,-1,-2,-3,-1,2
1570180108235370,-2,-1,-1,0,-2,-2,-3,-4
1570180108235370,-4,-2,0,0,-1,0,1,-4
1570180108248133,3,-2,-1,-3,0,0,2,17
1570180108248133,-1,-2,-2,-2,-1,-2,1,-3
1570180108264081,0,0,-2,-1,-1,-1,2,1
1570180108264081,3,-2,-1,0,0,1,-10,15
1570180108271071,-4,-3,-3,-1,0,0,-1,-4
1570180108271071,-3,1,-1,1,0,-2,-5,-8
1570180108272061,0,0,0,0,0,-1,-3,1
1570180108272061,-1,-1,-1,0,0,-1,1,-4
1570180108294001,-2,-1,-1,-1,-1,-3,-1,3
1570180108294001,-1,0,0,-1,-1,0,-1,-3
1570180108294999,-1,-1,-1,-1,-1,-1,2,-4
1570180108294999,0,0,-2,-2,0,-1,1,-7
1570180108307963,0,-3,0,1,-1,-1,-2,-3
1570180108307963,0,-1,-2,0,-2,-1,1,2
1570180108315943,-3,-1,-1,-1,-1,0,1,-4
1570180108315943,4,2,0,0,1,-1,-3,4
1570180108330960,-3,0,-1,-1,-1,0,-2,-3
1570180108330960,1,-2,0,0,0,-2,0,3
1570180108331990,-2,-1,-2,-1,-1,-1,0,-3
1570180108331990,-2,0,-1,-1,0,0,0,-7
1570180108354839,-5,-2,-1,-3,-1,0,4,-11
1570180108354839,10,2,1,2,1,-1,-11,14
1570180108354839,-1,0,-2,1,-1,0,0,1
1570180108354839,2,1,-1,-1,-1,-1,-2,0
1570180108368320,-2,0,0,0,-2,-1,0,-5
1570180108368320,-3,-3,0,-1,-1,-2,3,-7
1570180108375784,1,-2,0,-1,-1,-1,-2,1
1570180108375784,-1,-2,-1,0,0,-1,-2,0
1570180108390746,0,-1,-2,-1,-2,-1,0,0
1570180108390746,-6,0,-1,-3,-1,3,4,-3
1570180108391805,3,0,0,1,-1,-2,-1,7
1570180108391805,1,-1,1,-2,-1,-1,2,-3
1570180108414678,0,0,0,0,1,1,-2,0
1570180108414678,-3,0,0,-1,1,0,3,-3
1570180108414678,-2,-2,-2,-2,-1,0,-1,0
1570180108414678,-4,-3,-2,-1,1,0,0,-6
1570180108427649,4,3,2,-1,0,-1,0,13
1570180108427649,1,0,-1,0,-2,0,1,3
1570180108436620,-1,-2,-2,-1,0,0,-4,-2
1570180108436620,4,0,1,1,-2,-2,-12,7
1570180108451452,-2,-1,0,0,-1,-1,-2,-5
1570180108451452,-3,-1,-1,-1,0,-1,1,-1
1570180108451585,-1,-2,1,-1,0,-1,2,-1
1570180108451585,-3,-1,-1,-2,-2,1,6,-3
1570180108474571,-2,0,-2,1,-3,-2,-2,-5
1570180108474571,0,-1,1,-1,-1,-1,-5,-3
1570180108475517,-2,0,-1,-1,-1,0,-2,5
1570180108475517,-3,0,-1,0,-1,1,0,-1
1570180108496466,-1,-2,-3,-1,-2,-2,-2,-19
1570180108496466,0,-1,0,-1,-1,0,2,-3
1570180108497616,0,0,1,0,-1,-1,0,2
1570180108497616,0,-1,0,0,-1,-1,0,0
1570180108511425,-3,0,-1,-1,0,0,-1,-1
1570180108511425,-2,-1,-1,-1,-1,-2,2,-4
1570180108512423,-1,0,-2,-2,-1,0,-3,-2
1570180108512423,0,0,-1,-1,-1,-1,0,3
1570180108541555,0,-3,-1,-1,1,-1,1,1
1570180108541555,-2,-2,-2,-1,-1,1,2,-2
1570180108542336,-2,-1,0,-1,-1,-1,2,-2
1570180108542336,-1,-1,-2,-1,-1,2,1,-4
1570180108556304,2,-2,1,0,-2,-2,-2,12
1570180108556304,3,1,0,0,0,0,-1,0
1570180108557500,-3,0,0,-1,2,0,0,-5
1570180108557500,-2,-2,-1,0,-2,-3,1,1
1570180108571258,-2,-1,0,0,-1,-1,0,0
1570180108571258,-1,0,0,0,-1,-3,-5,3
1570180108572257,1,0,-1,1,-1,-1,-1,-3
1570180108572257,0,0,1,-2,-1,-1,0,-6
1570180108594198,0,0,0,-1,-1,2,0,2
1570180108594198,-1,-2,-3,-2,-2,0,0,-1
1570180108595194,-1,-1,1,0,0,1,0,-2
1570180108595194,-8,-2,-1,-1,-1,2,13,-14
1570180108617141,0,-1,-3,-1,0,0,-5,0
1570180108617141,0,0,1,0,-1,1,1,2
1570180108617141,0,-1,1,0,-2,-1,0,1
1570180108617141,-2,0,-1,-1,-1,-3,-3,-2
1570180108631103,-2,-3,-4,0,0,-1,7,-5
1570180108631103,3,1,1,0,-1,-1,-4,4
1570180108632098,2,0,-2,-1,-3,-2,0,1
1570180108632098,0,-2,-1,-2,-1,-1,-5,-6
1570180108654043,1,1,2,-1,1,0,3,9
1570180108654043,1,-1,-2,-2,0,-1,0,7
1570180108655036,-1,0,-1,-1,-1,-1,-1,-4
1570180108655036,0,1,0,2,-1,-1,-2,6
1570180108676981,-1,1,-1,1,-2,-1,-3,-4
1570180108676981,-4,-2,0,-2,1,-1,3,-9
1570180108677973,7,3,1,0,1,-2,-15,15
1570180108677973,1,0,-2,0,1,-1,-1,2
1570180108691383,-1,-3,-1,-2,0,0,-1,0
1570180108691383,-2,-2,0,0,-1,-1,-2,-2
1570180108691937,-2,-1,-1,-1,-2,1,3,-5
1570180108691937,-1,0,-1,-2,0,0,-4,0
1570180108713877,0,2,0,0,1,0,-2,2
1570180108713877,-2,-2,-1,0,0,-2,-2,-3
1570180108714881,0,-3,0,0,-1,0,3,0
1570180108714881,4,0,1,1,1,0,-1,17
1570180108736816,0,-1,-1,-2,0,2,4,-2
1570180108736816,3,2,1,1,1,0,-8,8
1570180108737816,-3,-1,-2,-1,-2,0,1,-2
1570180108737816,-1,-2,0,-1,-3,-1,0,-4
1570180108750778,-1,0,0,-1,-1,-1,-3,-2
1570180108750778,-2,0,-1,0,-1,-2,-1,-4
1570180108751924,1,-2,-1,1,0,-1,-1,2
1570180108751924,2,0,-2,-1,-1,0,-1,-2
1570180108774715,3,2,2,0,0,-3,-16,12
1570180108774715,-2,-2,-2,1,-2,0,3,-4
1570180108774715,-3,-1,-3,-1,-2,-1,1,-3
1570180108774715,-1,-2,0,-1,-2,0,-2,-4
1570180108796659,-1,-1,0,0,-1,-1,1,-4
1570180108796659,1,0,-1,-1,0,0,2,5
1570180108797654,-2,1,0,0,1,-1,-2,-7
1570180108797654,-3,1,1,0,0,-3,0,-3
1570180108810618,0,0,0,0,-1,-2,0,-2
1570180108810618,2,0,1,-1,2,-1,-4,7
1570180108818600,-2,-1,0,-1,-1,0,1,-5
1570180108818600,0,-2,-1,-1,-1,-1,-3,-2
1570180108834557,-3,-2,-3,-2,-3,0,6,-11
1570180108834557,-1,0,-2,1,-1,0,-1,-2
1570180108835554,-3,1,0,-1,1,-1,-2,-6
1570180108835554,1,-1,-1,-2,-2,0,1,-3
1570180108856502,1,0,-3,-1,-1,-2,3,4
1570180108856502,-1,-2,0,-1,-1,-1,1,-2
1570180108857498,-1,-2,-1,-2,0,1,2,-1
1570180108857498,-3,0,0,0,-1,-1,5,3
1570180108871529,-1,0,-1,-2,1,1,-1,-1
1570180108871529,-2,-2,-3,-2,-2,-2,1,5
1570180108871529,0,-1,-1,0,1,-2,-6,-15
1570180108871529,0,-1,-2,-2,-1,0,2,2
1570180108894396,2,0,0,-1,-1,-4,0,0
1570180108894396,-1,0,1,-1,0,-1,0,-2
1570180108895393,0,-1,1,0,-1,-1,2,-1
1570180108895393,1,0,0,0,0,-1,-1,-1
1570180108917335,-1,0,-1,-1,-1,-1,-2,-2
1570180108917335,-3,-1,0,0,-1,0,2,-2
1570180108918333,1,1,0,0,0,0,0,5
1570180108918333,-1,-1,-1,0,0,-1,-3,-2
1570180108931364,-1,-1,0,0,-1,-1,-4,0
1570180108931364,0,-1,-2,-2,-1,0,1,-3
1570180108932295,2,1,-1,-1,0,-3,-9,9
1570180108932295,-1,1,-1,0,0,0,-2,0
1570180108954235,2,3,1,0,0,-2,-12,5
1570180108954235,2,-1,-1,-2,-1,-1,-2,3
1570180108955355,-2,2,-1,-1,-1,-1,2,8
1570180108955355,0,-2,1,-1,1,-2,-2,-3
1570180108977177,-1,-1,-1,-1,-2,1,1,-3
1570180108977177,-1,-2,0,-1,-1,0,1,-2
1570180108977177,-1,1,0,-1,-1,0,1,2
1570180108977177,-1,-1,-2,0,-1,-2,0,-3
1570180108991179,-1,0,-1,-1,-2,-1,2,-3
1570180108991179,0,1,-2,0,-2,-1,-1,-5
1570180108992135,-1,-3,0,1,-1,-1,0,-7
1570180108992135,1,-2,-1,-1,-1,2,-1,1
1570180109014154,1,-3,-1,-3,-2,0,2,0
1570180109014154,-1,0,-1,-1,-1,-1,-2,-2
1570180109015074,0,-2,1,-1,-1,-1,-1,4
1570180109015074,-2,0,-1,0,-2,-2,-1,-4
1570180109036021,1,0,0,1,0,0,1,3
1570180109036021,0,0,-1,-2,0,-3,-1,-2
1570180109037022,-5,-3,-1,0,-1,0,9,-7
1570180109037022,3,2,1,0,0,-2,-18,0
1570180109050976,0,-1,0,0,-2,0,3,7
1570180109050976,-1,1,2,-2,0,0,-2,1
1570180109059045,0,-1,-1,0,-1,-1,0,-4
1570180109059045,-3,0,-1,0,-1,0,2,-6
1570180109074045,2,-1,-1,0,1,-1,-2,-3
1570180109074045,2,0,-3,0,-1,0,-2,5
1570180109074915,0,-1,0,-2,0,0,-3,3
1570180109074915,-3,-1,-1,-1,0,0,4,0
1570180109096916,-2,-1,1,-2,0,0,1,-5
1570180109096916,-1,-1,0,0,0,0,-2,-2
1570180109097851,-1,0,0,0,-1,0,-1,-4
1570180109097851,0,-1,-2,0,-1,-1,3,8
1570180109110818,0,-1,0,-1,0,-1,2,-2
1570180109110818,-1,-2,1,-2,0,-1,0,-4
1570180109118795,1,0,0,-2,0,-1,-2,-1
1570180109118795,1,0,-1,-1,-2,-1,0,0
1570180109134753,-2,-1,0,1,-1,0,-1,-1
1570180109134753,0,-1,-3,0,0,0,-1,-1
1570180109134753,-1,-1,0,-1,0,-2,-9,-3
1570180109134753,-3,-2,-1,-4,-1,-1,7,-10
1570180109156781,-1,0,-1,-1,1,-1,-4,-3
1570180109156781,1,-1,-3,1,-2,1,-1,4
1570180109157696,-1,-3,-2,-1,-2,-1,0,-1
1570180109157696,-1,0,0,-1,-1,1,2,1
1570180109170663,-4,-1,-2,-1,0,-2,3,-6
1570180109170663,-1,1,1,0,1,-2,-1,-7
1570180109178638,0,-1,-2,0,-2,0,3,5
1570180109178638,-1,-1,0,-1,-2,0,-1,2
1570180109193695,-2,-1,0,0,-1,0,1,-1
1570180109193695,-2,-1,0,-1,0,-1,0,0
1570180109201574,0,-1,-1,1,-1,-2,2,2
1570180109201574,1,0,1,1,0,0,-4,2
1570180109217174,-1,-1,-2,-2,-1,-1,1,-1
1570180109217174,-6,-2,-2,-2,-2,-2,2,-23
1570180109217535,6,1,1,-1,2,0,-10,13
1570180109217535,-1,-1,1,-3,0,0,-2,-4
1570180109230902,-3,-2,-1,1,-2,-1,-1,-2
1570180109230902,4,3,1,0,0,0,-4,10
1570180109238478,1,-3,-1,-1,0,1,4,-1
1570180109238478,-2,-2,-3,0,1,0,2,0
1570180109254437,2,-1,0,-1,-1,1,-3,-2
1570180109254437,-2,0,0,-2,-2,-1,1,1
1570180109255429,-1,-2,-2,-1,0,0,1,-3
1570180109255429,1,-1,-1,1,0,-1,-1,3
1570180109276607,-1,1,0,-1,1,-1,0,0
1570180109276607,-4,-2,-2,0,0,-1,-1,0
1570180109277372,-7,-2,-2,-3,-1,1,9,-24
1570180109277372,0,0,-1,0,-1,-1,-4,-8
1570180109290339,0,0,-1,0,1,-1,1,-1
1570180109290339,2,-2,-1,1,-1,0,-1,8
1570180109298318,-2,0,0,0,0,0,0,0
1570180109298318,-2,0,-1,1,0,-1,-1,1
1570180109314320,0,0,0,0,-2,-1,-2,-2
1570180109314320,2,0,1,0,0,0,-1,-1
1570180109315402,-4,-2,-1,1,0,-1,-1,2
1570180109315402,-1,-2,-2,-3,1,2,7,4
1570180109337218,5,-1,-1,0,1,1,-5,7
1570180109337218,-5,-2,-1,-2,-2,0,4,-2
1570180109337428,0,-1,-1,-1,-2,-2,-2,3
1570180109337428,-1,0,-1,1,-1,-3,-1,2
1570180109350581,-4,-1,0,0,-2,-2,2,-17
1570180109350581,2,1,-1,1,0,1,4,19
1570180109359154,-1,0,0,0,0,0,1,3
1570180109359154,5,-3,1,-1,-1,-2,-1,2
1570180109375181,-4,-1,-1,-2,0,0,1,-2
1570180109375181,1,-2,-2,-2,-3,-2,-3,0
1570180109376108,-3,0,-1,0,-2,-1,0,-2
1570180109376108,-3,0,1,-1,-1,0,-2,4
1570180109397151,-2,-2,-1,0,0,0,-1,3
1570180109397151,-1,0,-2,-2,1,0,1,-8
1570180109398057,1,0,-1,-2,0,-1,-2,2
1570180109398057,-1,1,0,-1,0,-1,-1,-5
1570180109418996,2,-1,-1,0,0,0,0,3
1570180109418996,-2,1,-1,-2,0,-2,-3,-8
1570180109419991,-6,-3,-4,-3,-2,1,7,-15
1570180109419991,3,-1,-1,0,0,0,-2,6
1570180109432959,-1,0,-2,0,-1,-2,0,0
1570180109432959,-1,-1,-1,-1,-2,1,-1,0
1570180109441931,-2,1,1,0,-2,-1,-3,-3
1570180109441931,0,-1,-1,0,-2,-1,1,-1
1570180109456933,-4,0,-2,-1,-2,0,8,-15
1570180109456933,-1,-2,0,-2,0,0,1,0
1570180109457888,2,1,0,-1,0,1,-2,4
1570180109457888,-2,1,-1,-2,1,-1,-4,-4
1570180109478894,4,-1,-2,-1,-1,0,-1,12
1570180109478894,-2,1,-1,0,-2,-2,-1,-2
1570180109480832,2,1,0,0,-1,-1,0,6
1570180109480832,-4,-1,-1,-1,-1,-2,1,-6
1570180109492842,4,1,-2,-1,0,-1,-2,5
1570180109492842,-2,-1,1,0,1,0,-2,-3
1570180109501772,3,-1,-1,0,0,-1,-3,5
1570180109501772,0,0,-1,0,1,1,3,10
1570180109516784,-1,-2,-1,0,1,-1,1,-2
1570180109516784,1,0,-2,1,1,0,-3,1
1570180109518728,1,1,-1,1,0,-1,1,1
1570180109518728,-4,-2,-1,-1,-1,-1,5,-19
1570180109539712,1,1,-2,-2,-1,-1,-7,7
1570180109539712,2,-2,0,0,-1,0,2,-1
1570180109540738,0,0,-1,0,0,0,1,-1
1570180109540738,0,0,1,0,-1,-1,0,-5
1570180109553068,-2,-1,-1,0,0,0,-2,4
1570180109553068,-3,-1,0,0,-2,-1,-1,-6
1570180109561611,1,2,-1,0,-1,-1,-2,4
1570180109561611,0,0,-2,0,-2,0,-5,3
1570180109576633,1,2,1,-1,0,0,0,11
1570180109576633,-1,-1,-2,-3,0,0,-3,-3
1570180109578623,-2,-1,-2,-1,-1,-3,2,-1
1570180109578623,-1,-1,0,0,0,-2,-2,3
1570180109599552,-1,-1,0,0,0,0,-1,-6
1570180109599552,3,2,0,1,0,0,1,-4
1570180109600508,0,0,-2,-1,-1,1,-2,2
1570180109600508,0,-1,-1,-3,-3,0,-3,-2
1570180109614030,-1,-1,0,0,0,-1,-6,-4
1570180109614030,5,1,3,0,0,-2,-14,12
1570180109620754,-1,-2,-1,0,-2,-1,0,-4
1570180109620754,0,1,0,1,-1,0,-2,0
1570180109636412,-1,1,-1,0,-1,-2,1,-4
1570180109636412,-5,-2,-1,-3,-2,-1,5,-2
1570180109638406,1,-1,-1,0,-2,-2,-2,4
1570180109638406,-1,-1,0,0,-1,-1,-2,-2
1570180109659357,0,-1,0,-2,-1,0,2,2
1570180109659357,-4,-2,-2,-1,0,0,1,-2
1570180109660346,-3,-1,-1,-1,1,1,-1,-5
1570180109660346,-2,1,-2,0,0,-1,1,-6
1570180109673533,0,-1,0,-1,1,1,-1,-4
1570180109673533,4,1,-1,1,-1,1,-2,0
1570180109680385,1,-1,0,0,0,-2,-2,0
1570180109680385,3,-1,1,-1,0,1,-4,8
1570180109697252,-2,-2,-2,-1,-2,-1,-1,-3
1570180109697252,-5,-2,-1,-1,0,-2,2,-3
1570180109699245,1,-3,-1,-3,-1,0,4,2
1570180109699245,0,1,-1,0,0,-3,-1,2
1570180109719488,-3,-1,-3,-2,-1,-2,-1,-8
1570180109719488,-1,-2,-1,0,-1,0,2,2
1570180109721185,-3,-2,-1,-1,-1,1,1,-7
1570180109721185,-1,-1,-1,-1,-2,-1,0,-2
1570180109733216,-1,1,1,0,0,-1,-1,0
1570180109733216,-4,-2,-1,-1,-3,-3,1,-20
1570180109740137,2,0,1,1,-1,0,-4,0
1570180109740137,0,-1,-1,0,0,0,-1,1
1570180109764070,0,1,-2,0,-2,-2,-3,4
1570180109764070,1,-1,1,-2,0,-2,-1,0
1570180109766065,-1,0,0,-1,1,-1,-1,0
1570180109766065,-1,1,-1,0,1,0,0,1
1570180109779297,-1,-1,-1,0,-2,-1,-1,-8
1570180109779297,-2,1,-1,1,-2,1,4,-1
1570180109781111,5,3,2,1,0,-3,-18,6
1570180109781111,-1,-1,0,-2,-2,-2,-5,-4
1570180109793994,-2,-1,-1,-1,0,2,2,4
1570180109793994,-6,-3,-3,-1,-3,1,7,-6
1570180109800971,0,0,-1,-1,-1,1,2,0
1570180109800971,-2,0,0,-2,-1,0,2,-6
1570180109816931,2,-1,1,0,-1,0,-4,8
1570180109816931,1,-2,-2,-1,-1,0,-2,-6
1570180109818278,-3,-2,-2,-2,0,-1,5,-9
1570180109818278,3,-1,-1,1,0,-1,-1,6
1570180109838887,-1,-2,0,0,-2,0,5,-1
1570180109838887,0,1,0,-1,1,-1,-1,6
1570180109840865,-2,-2,-2,-3,-1,0,0,-1
1570180109840865,0,-2,-2,0,-1,0,-1,-1
1570180109853829,-1,-2,0,1,1,-1,-3,-2
1570180109853829,1,0,-1,0,-1,1,-2,4
1570180109860822,-3,0,-1,0,-1,-1,1,-3
1570180109860822,3,0,1,0,0,1,6,18
1570180109876768,-1,-1,0,-2,-1,-1,-1,-5
1570180109876768,2,0,0,-1,2,-1,-1,5
1570180109878766,0,-1,-1,0,0,-1,1,-2
1570180109878766,-1,-1,-1,-1,-1,1,1,-5
1570180109899708,1,-2,1,-1,-2,-2,-1,-2
1570180109899708,4,0,0,0,1,-1,-7,9
1570180109900704,-1,-1,0,1,-2,0,-1,0
1570180109900704,-2,-1,-1,1,-1,0,3,-9
1570180109912673,4,3,1,1,1,-3,-12,10
1570180109912673,-2,-1,-3,-2,-2,-1,2,-1
1570180109938603,-1,-2,-1,-2,-2,1,2,-2
1570180109938603,-2,0,-1,0,0,-1,-4,-4
1570180109940040,-3,-2,-1,-2,0,0,5,-3
1570180109940040,-2,0,0,2,0,0,-1,-1
1570180109942752,0,-2,0,-1,1,0,0,6
1570180109942752,0,-1,0,-1,-2,-1,-1,2
1570180109959550,-1,-1,-1,-1,-1,2,4,-6
1570180109959550,0,2,0,0,0,0,-1,3
1570180109960544,-1,-1,1,-1,-2,0,-1,-5
1570180109960544,-1,-1,-2,-1,-1,1,1,-1
1570180109972516,-2,0,-1,0,-1,-3,0,-1
1570180109972516,0,1,-1,0,-2,0,1,-6
1570180109981489,-2,0,-1,-1,0,-1,-2,-1
1570180109981489,-1,-1,-1,0,0,-2,-2,-2
1570180109996449,1,1,0,0,0,0,0,0
1570180109996449,-3,-3,-2,-1,0,-1,1,0
1570180109998443,-3,-2,-2,-2,-2,0,11,-10
1570180109998443,-1,-2,-1,-1,0,0,-5,3
1570180110018430,0,-1,0,0,0,-1,0,-3
1570180110018430,2,0,1,-2,-1,0,0,5
1570180110027365,0,0,-1,0,-1,-2,0,-13
1570180110027365,0,1,-1,-1,-2,-3,-2,-1
1570180110033350,-2,0,-1,-1,-1,-1,0,-7
1570180110033350,0,1,0,0,-2,-1,-1,6
1570180110042326,1,0,-1,0,-2,1,-7,8
1570180110042326,-4,0,0,-1,0,1,0,-6
1570180110056295,-1,1,-3,0,-1,-1,-3,0
1570180110056295,-2,0,1,-2,0,1,-1,-5
1570180110058825,0,0,1,1,0,1,-3,4
1570180110058825,-2,-2,0,0,0,1,4,2
1570180110079278,0,-2,-2,-2,-1,0,3,0
1570180110079278,0,0,1,-1,-1,0,1,-4
1570180110081266,0,0,0,-1,-1,-2,0,4
1570180110081266,0,-2,-1,0,-1,0,-2,-5
1570180110092841,-3,-1,-1,0,0,0,-2,3
1570180110092841,-7,-1,-3,-3,0,0,10,-14
1570180110102154,0,-1,-2,-1,-1,-1,-8,0
1570180110102154,2,2,1,-1,-1,0,2,3
1570180110116388,-1,-2,0,-2,0,-2,1,-5
1570180110116388,0,-2,-1,-1,-1,0,-1,-1
1570180110118377,-6,-1,-1,-2,-1,-1,-2,-14
1570180110118377,1,1,-2,-2,0,-2,1,1
1570180110139398,-1,-1,-1,0,0,0,-1,-3
1570180110139398,0,-2,-2,0,0,-2,-5,-1
1570180110141362,2,-2,-1,1,-1,0,-2,1
1570180110141362,2,2,0,2,0,1,-7,2
1570180110152942,-1,0,-2,-1,-1,0,-1,2
1570180110152942,0,0,0,0,0,0,-2,3
1570180110162134,-1,-2,-1,-2,0,-1,4,6
1570180110162134,-2,-1,0,0,0,0,1,-5
1570180110177142,-2,-1,1,0,0,-1,2,2
1570180110177142,-2,-3,0,0,-1,-1,6,-10
1570180110178092,2,0,0,1,0,0,-4,2
1570180110178092,-3,-1,-1,0,-1,0,0,-5
1570180110198552,2,0,0,-2,-1,1,-3,2
1570180110198552,-1,-1,-2,-1,-2,-2,-2,8
1570180110207232,0,0,-1,-3,0,0,2,3
1570180110207232,1,-1,-2,-1,-1,-1,-1,2
1570180110213550,-1,-1,-1,-1,-1,-1,2,0
1570180110213550,1,-1,0,-1,-2,-1,-4,2
1570180110221740,1,0,0,0,0,1,1,3
1570180110221740,-1,-2,0,0,0,-1,-4,0
1570180110237183,-2,-1,-2,-1,-2,0,-1,-4
1570180110237183,6,3,1,2,1,-1,-8,2
1570180110238145,0,-2,0,-1,-2,-1,-2,1
1570180110238145,-2,-2,-1,-1,-1,0,3,-2
1570180110259723,-1,-1,0,1,-1,0,1,-2
1570180110259723,3,0,-1,0,1,-1,-15,10
1570180110260679,3,1,-1,0,0,-1,0,8
1570180110260679,1,0,0,-1,-1,-1,0,0
1570180110272959,-2,-1,0,-1,-1,0,-1,-2
1570180110272959,0,0,0,-1,1,1,7,11
1570180110282181,-1,-1,0,-1,0,-1,2,-2
1570180110282181,-2,0,-2,-1,-2,-1,-3,-1
1570180110296989,0,-1,-1,0,0,0,0,-1
1570180110296989,-4,-3,-1,0,0,1,2,-9
1570180110298031,-2,-1,-1,-1,0,-1,0,-2
1570180110298031,1,0,1,-2,-1,-1,1,5
1570180110319960,-1,-1,-2,-2,-2,-1,-2,-2
1570180110319960,-1,-1,-1,-1,0,-1,1,-2
1570180110321057,0,0,-1,0,0,0,-1,2
1570180110321057,-1,-1,-1,1,0,0,1,2
1570180110333344,-1,-1,-1,-1,-2,-2,-3,-6
1570180110333344,-2,-1,0,-1,-1,-1,-1,-6
1570180110342144,4,-1,0,0,-1,0,2,3
1570180110342144,-2,-1,-1,0,-1,-1,0,1
1570180110356964,0,1,0,-1,0,0,-1,4
1570180110356964,-3,0,-2,-1,1,0,1,-5
1570180110358466,0,0,-1,-2,0,0,2,8
1570180110358466,-8,-4,-2,-2,-1,0,-4,-26
1570180110379582,3,-2,-1,-2,-2,0,0,8
1570180110379582,-12,-1,0,-4,-8,-10,-3,-15
1570180110380538,6,4,1,0,3,12,2,12
1570180110380538,18,4,0,5,18,4,-1,-1
1570180110401475,-27,-12,-5,-6,-21,-22,-2,15
1570180110401475,-3,0,-2,0,-3,-1,1,-24
1570180110403413,-2,0,-2,-1,-12,-6,-2,-4
1570180110403413,4,1,2,-9,-9,-18,-7,7
1570180110416378,46,30,4,8,14,11,1,-5
1570180110416378,-80,-45,-7,4,5,2,3,15
1570180110423360,16,11,3,4,4,-1,-3,-9
1570180110423360,15,0,1,-3,-2,7,3,8
1570180110439318,-31,5,0,-4,-10,-4,-2,-21
1570180110439318,53,4,-8,-9,5,6,-1,17
1570180110441313,42,34,13,9,14,8,6,-4
1570180110441313,40,-26,-23,-9,-3,-4,-2,-6
1570180110461383,50,21,10,3,1,-3,-16,18
1570180110461383,-17,-10,-1,-1,-5,1,-1,-8
1570180110463321,23,37,-12,-3,3,1,4,9
1570180110463321,-8,-3,15,8,0,-2,1,-2
1570180110475221,-22,-22,10,4,4,4,8,-3
1570180110475221,51,25,14,8,3,0,-1,3
1570180110485197,-36,-36,-3,0,1,-4,-6,-3
1570180110485197,-21,12,-4,0,-2,2,0,1
1570180110499159,40,5,-12,-2,3,3,2,2
1570180110499159,-31,6,9,-1,2,-2,0,0
1570180110502150,-29,-27,-12,-12,-10,-3,2,-10
1570180110502150,-19,-1,-8,-4,-3,1,0,1
1570180110522139,-11,-16,-10,-3,1,0,0,-1
1570180110522139,36,15,1,2,-3,-2,0,2
1570180110523093,-5,-7,9,7,-5,-8,-6,-7
1570180110523093,-9,2,-3,4,6,3,-1,0
1570180110535069,-2,2,-1,5,3,0,1,0
1570180110535069,4,-5,-4,-5,-17,-4,0,0
1570180110544413,-11,-5,1,-2,7,1,-3,-8
1570180110544413,4,8,9,-6,-11,-1,-1,2
1570180110558997,-25,-15,-9,-2,3,-1,-2,-9
1570180110558997,28,9,-3,4,15,3,0,4
1570180110560993,2,3,11,-1,-7,-2,-1,2
1570180110560993,-9,-10,-13,-5,-1,-4,-2,-4
1570180110580938,11,5,-15,-9,-11,0,8,12
1570180110580938,-10,2,17,3,2,1,-3,-6
1570180110595905,0,-10,-9,-4,-6,-4,-3,1
1570180110595905,-13,-1,-2,2,-4,-2,-3,-8
1570180110596896,1,2,18,4,2,-1,-3,-3
1570180110596896,-1,10,0,6,5,0,1,2
1570180110604875,-7,-5,-2,-1,-7,-1,0,-5
1570180110604875,11,1,-2,-4,0,1,4,10
1570180110618837,-11,-11,-9,-1,6,-3,-5,-18
1570180110618837,1,-2,-10,-9,-5,-3,1,7
1570180110620831,0,-2,0,-2,1,-3,-5,-11
1570180110620831,1,-1,-2,2,-6,1,5,14
1570180110642132,-2,-6,-4,-4,2,0,-2,-5
1570180110642132,-2,-2,4,5,2,1,4,6
1570180110643774,3,8,4,3,-1,-2,-8,-18
1570180110643774,-5,-5,-4,-2,-1,-1,-1,-3
1570180110655739,-2,8,4,-1,-1,1,4,1
1570180110655739,24,-8,-13,-7,-5,-1,0,5
1570180110664719,-16,-4,-1,-3,-2,-1,4,13
1570180110664719,-8,-3,11,3,4,-1,-8,-30
1570180110679676,4,8,4,4,1,-2,-1,-4
1570180110679676,-4,-6,-10,-6,-3,2,0,4
1570180110681121,-4,-7,-2,-1,-2,-1,-4,-11
1570180110681121,14,14,-1,-2,1,0,6,19
1570180110701966,-13,-7,2,-4,0,2,2,-2
1570180110701966,-1,-10,-16,-9,-2,0,-4,-11
1570180110702959,20,44,25,14,6,-1,2,14
1570180110702959,-14,-47,-1,4,1,5,6,6
1570180110715926,0,-2,-1,0,1,2,1,3
1570180110715926,-22,-8,8,9,3,0,-5,-13
1570180110724902,12,-10,-22,-17,-7,-1,2,8
1570180110724902,6,21,2,-1,0,-1,-4,-8
1570180110738866,20,13,13,5,2,-1,1,9
1570180110738866,-32,-1,2,-1,-11,-1,-2,-11
1570180110740967,2,-8,-6,-1,10,2,8,25
1570180110740967,0,10,0,0,-5,-5,-9,-21
1570180110761972,19,-19,-12,-5,2,-2,-6,-9
1570180110761972,-20,16,5,-3,-8,-3,-4,-9
1570180110763800,9,-4,-2,4,6,-1,3,9
1570180110763800,-22,-4,3,3,2,2,1,7
1570180110775765,2,0,-1,-4,-5,2,-1,5
1570180110775765,10,0,0,-1,-2,-7,-1,7
1570180110784743,-5,-19,-8,-5,1,7,-1,-6
1570180110784743,20,30,2,-3,-1,-2,0,10
1570180110799703,-37,4,-4,-2,-5,-3,10,-2
1570180110799703,17,-15,2,2,0,-5,-23,-8
1570180110800810,-19,-11,-5,0,1,0,-6,-28
1570180110800810,11,10,4,12,9,-1,-1,-5
1570180110821795,0,7,5,-8,-18,0,4,5
1570180110821795,8,7,1,1,8,-1,4,-5
1570180110823641,-21,-17,-5,-3,-4,1,5,2
1570180110823641,8,-2,-3,-4,0,2,-1,5
1570180110835719,3,-10,-3,-2,-7,-5,-7,-7
1570180110835719,18,-1,-7,-5,0,0,6,2
1570180110844583,-31,15,19,7,-7,-2,-9,-13
1570180110844583,32,1,4,4,5,0,7,11
1570180110859582,-26,-5,-2,-2,1,-1,-1,2
1570180110859582,1,1,-4,-7,0,1,3,1
1570180110861536,12,-6,-5,5,4,-4,1,-4
1570180110861536,-1,0,1,-1,0,0,-1,-15
1570180110881483,-15,-3,-3,-1,-4,1,-5,-11
1570180110881483,26,4,5,4,6,1,2,16
1570180110883477,1,1,-4,-6,-8,-3,-1,12
1570180110883477,-21,-14,-14,-10,-8,-2,0,15
1570180110895447,28,20,6,8,11,-1,-7,-10
1570180110895447,-24,7,9,-3,-19,-7,-5,-12
1570180110935345,6,1,8,13,25,5,2,-3
1570180110935345,-9,-14,-11,-13,-25,-4,-2,-11
1570180110936428,18,4,3,15,24,2,0,1
1570180110936428,-3,-4,-6,1,2,4,9,11
1570180110944316,9,11,6,-6,-10,-4,-4,-15
1570180110944316,-20,-9,-1,4,7,0,-3,-18
1570180110944316,17,1,-3,-5,-19,-6,-2,-17
1570180110944316,-1,0,2,3,7,5,3,-27
1570180110948303,4,5,-7,6,6,3,4,-5
1570180110948303,13,-2,0,-3,0,-1,-5,-18
1570180110955641,-50,-5,12,2,-1,-3,-1,14
1570180110955641,23,-1,2,0,-7,-1,-3,5
1570180110964264,-4,-10,-13,-11,-5,-6,-3,-51
1570180110964264,0,18,16,4,-3,2,4,-54
1570180110987232,0,-6,-9,-16,-4,2,2,-11
1570180110987232,-13,-2,0,10,11,1,-1,-24
1570180110988198,-1,0,4,-1,-5,-1,0,-8
1570180110988198,1,6,3,9,9,-1,0,-47
1570180111009144,21,-2,-4,-12,-15,0,-1,-27
1570180111009144,-32,-9,-4,-1,1,-2,-3,-23
1570180111011219,14,-6,-10,-12,-7,-1,2,27
1570180111011219,4,1,3,1,0,-2,-4,44
1570180111015287,-26,-8,-3,5,9,2,2,49
1570180111015287,10,7,0,-8,-17,-2,1,32
1570180111024142,-5,-2,0,3,-2,-1,-5,16
1570180111024142,5,-1,-1,-7,-10,-6,-1,43
1570180111039062,18,1,-1,8,14,4,1,28
1570180111039062,-18,-8,-5,-4,-1,0,1,33
1570180111041056,-8,-4,-4,-9,-6,-2,-6,-25
1570180111041056,-5,-8,-2,3,1,2,3,26
1570180111062002,23,5,7,3,-3,-3,-7,13
1570180111062002,3,2,4,4,0,-1,2,-4
1570180111062998,8,6,2,1,-3,-1,3,11
1570180111062998,-10,-4,-4,-5,-4,1,-2,10
1570180111075571,24,0,-3,3,0,0,-1,11
1570180111075571,-58,-13,-4,-1,5,0,-3,-11
1570180111084947,-4,-6,-4,-5,-5,-3,2,11
1570180111084947,7,4,5,10,13,1,5,14
1570180111099011,-14,-6,-3,-3,2,0,-4,-3
1570180111099011,11,5,1,1,0,0,-1,-4
1570180111105893,12,1,0,5,-1,0,-4,-3
1570180111105893,-10,-3,-5,-5,-3,-2,-2,13
1570180111121985,-5,2,-3,-4,-3,2,10,25
1570180111121985,20,7,5,4,8,-1,6,15
1570180111123842,-7,1,4,8,1,-4,0,-9
1570180111123842,8,-2,-4,-8,-8,0,4,-5
1570180111135851,-20,-5,-1,5,6,2,6,-9
1570180111135851,13,-2,-5,-1,6,1,4,11
1570180111144781,0,-5,-3,-6,-7,0,5,10
1570180111144781,-7,-2,1,1,1,1,2,-3
1570180111159743,7,5,0,-1,-4,-3,-4,7
1570180111159743,-8,-16,-15,-12,-9,0,16,27
1570180111160736,12,9,-16,-3,0,-1,0,6
1570180111160736,-9,-7,15,8,3,-3,-19,-36
1570180111181680,-7,-23,-9,0,-2,-1,-1,7
1570180111181680,4,20,7,3,1,2,-5,-7
1570180111183676,4,-18,2,2,5,1,-25,9
1570180111183676,-8,-11,-16,-8,-3,1,8,38
1570180111195649,-9,-6,-5,-6,-9,-4,23,-47
1570180111195649,20,8,-9,2,2,-1,-22,-18
1570180111204619,2,22,10,3,0,2,13,5
1570180111204619,-19,-15,6,4,1,1,-5,-16
1570180111218584,24,10,2,-4,-4,-5,7,40
1570180111218584,-18,-9,11,-1,-3,-4,4,-4
1570180111225570,-1,8,-1,-2,-1,-1,-13,-50
1570180111225570,7,6,-1,-1,-2,1,1,15
1570180111241521,-24,1,-1,0,-2,0,-13,-16
1570180111241521,12,3,-4,-2,-2,0,-3,12
1570180111243516,7,-3,2,1,0,1,0,18
1570180111243516,-28,-4,3,5,6,6,14,29
1570180111255516,86,22,-2,0,0,0,-6,26
1570180111255516,-72,-28,-10,-7,-5,-6,-10,-12
1570180111264460,25,-3,-1,-3,-1,-3,6,22
1570180111264460,-8,7,-7,-4,-2,-3,-1,0
1570180111278957,-23,2,8,4,3,6,-8,15
1570180111278957,51,8,-1,-1,-1,2,-14,1
1570180111285690,-45,-11,4,6,2,-2,-3,14
1570180111285690,27,9,-3,0,-1,-2,-10,-15
1570180111301360,-32,-9,-3,1,0,1,-11,25
1570180111301360,2,13,21,7,3,0,-11,-52
1570180111303356,-3,-7,-9,-5,-4,0,-5,6
1570180111303356,17,1,-4,-3,-3,-2,-1,-7
1570180111324300,-1,-8,-2,0,-3,-3,2,-6
1570180111324300,24,2,5,1,5,3,16,17
1570180111326293,-24,6,-3,-4,-3,-2,6,25
1570180111326293,-11,-12,-5,-2,-1,-5,1,-9
1570180111338263,-19,-5,6,2,2,4,5,-10
1570180111338263,63,8,-10,-7,-5,-1,5,9
1570180111345523,-19,-2,8,4,2,1,4,-10
1570180111345523,20,15,2,3,1,2,6,-7
1570180111362198,-19,-23,-7,-4,-2,-3,-4,-16
1570180111362198,-17,7,-4,0,-1,-2,2,10
1570180111363195,8,0,10,4,1,1,4,-35
1570180111363195,-11,-8,-9,-6,-5,-2,3,-6
1570180111384147,0,4,1,-1,-1,-1,1,-12
1570180111384147,-31,-14,-4,0,-2,0,0,0
1570180111386231,39,14,-2,0,-1,-1,-3,-6
1570180111386231,14,5,6,5,3,0,-4,23
1570180111399107,1,8,3,-2,-1,0,1,24
1570180111399107,-22,-7,-6,-4,-3,-2,-1,-12
1570180111405116,19,1,-3,-4,-2,-2,-3,5
1570180111405116,14,-8,-3,-8,-15,-1,-5,-16
1570180111421044,-10,-6,-6,-3,7,-2,-2,19
1570180111421044,-38,-1,-2,2,4,0,-4,-19
1570180111429031,-2,-3,5,9,11,2,1,-17
1570180111429031,30,22,0,-1,-1,-2,-1,22
1570180111443982,-21,-22,-10,-12,-10,-1,7,-30
1570180111443982,10,-2,4,11,13,2,-1,6
1570180111445975,14,-1,-5,-6,-9,-4,3,-21
1570180111445975,-23,-6,-2,0,9,-1,-2,-7
1570180111457952,-23,7,2,3,-3,3,4,-1
1570180111457952,-12,-6,3,-1,0,2,1,-13
1570180111466923,-26,11,2,-2,-4,-4,-4,-20
1570180111466923,7,-6,-5,-4,-3,-5,0,-22
1570180111481877,28,11,2,3,1,1,0,9
1570180111481877,-37,-8,1,1,1,2,2,17
1570180111483876,-2,-6,-10,-10,-10,-7,-8,5
1570180111483876,-41,-11,-4,-6,-20,-3,-5,20
1570180111504933,40,17,8,16,17,1,-1,0
1570180111504933,-53,-9,3,1,7,5,6,-4
1570180111505817,-3,-15,-21,-7,6,-4,3,3
1570180111505817,-14,-5,5,-2,-11,-3,-5,13
1570180111517870,29,5,-6,-9,-14,-7,-6,-3
1570180111517870,15,5,2,2,-4,-2,-1,23
1570180111526759,-14,-9,11,4,-1,6,5,-18
1570180111526759,45,-1,-5,1,6,-1,3,10
1570180111541762,-69,-11,-3,-3,-2,-3,-9,-9
1570180111541762,92,19,1,0,-4,-2,4,10
1570180111543712,-15,-21,-6,2,4,1,-3,7
1570180111543712,55,17,-13,-11,-5,-9,-6,1
1570180111564691,-4,-17,5,2,1,2,3,54
1570180111564691,-28,-2,4,3,-5,-3,-3,107
1570180111566658,59,24,11,10,5,9,12,127
1570180111566658,7,-9,-7,-5,-7,0,-1,127
1570180111577624,35,22,6,1,-7,1,3,34
1570180111577624,35,-4,-12,-8,6,-7,-4,-66
1570180111592583,-3,-1,4,2,-4,-2,-22,-87
1570180111592583,-15,9,10,5,1,4,2,-128
1570180111601754,1,7,-2,1,-8,-4,-1,-69
1570180111601754,46,14,7,-3,-5,3,5,-50
1570180111603649,-27,-25,-7,-4,6,-3,-4,-81
1570180111603649,-4,5,-3,0,3,2,0,-56
1570180111624575,-51,-12,2,0,0,0,-4,-32
1570180111624575,89,31,2,1,0,1,3,51
1570180111625494,22,-1,-3,-7,-8,-5,-1,85
1570180111625494,7,11,19,13,11,10,21,92
1570180111638462,80,23,-2,-2,2,1,-6,112
1570180111638462,-98,-50,-19,-11,-8,-7,-11,75
1570180111646448,30,37,15,4,-2,0,2,-33
1570180111646448,67,33,19,12,15,4,3,-50
1570180111661580,13,-23,0,1,-17,5,16,-128
1570180111661580,4,-6,-16,-14,13,-5,2,-119
1570180111663461,18,-3,-5,-4,0,0,3,-85
1570180111663461,-23,19,8,9,-2,4,-5,-94
1570180111684340,-6,-4,7,4,27,3,-1,-57
1570180111684340,64,25,13,4,-15,7,14,2
1570180111686590,21,4,-25,-20,-16,-17,-18,-41
1570180111686590,-38,-32,-11,-6,3,-3,3,-37
1570180111698347,-44,-31,-16,-4,-6,-11,-38,-44
1570180111698347,12,-15,-4,-7,-20,-2,1,-26
1570180111707274,39,36,20,16,5,7,0,41
1570180111707274,-21,-3,-10,-4,-5,-10,-13,-29
1570180111723239,-5,7,-1,-1,25,1,6,-47
1570180111723239,32,21,7,8,8,7,-2,-8
1570180111725227,-87,-30,-5,-1,-3,-4,-12,-15
1570180111725227,-8,-6,-17,-10,-10,-9,-11,-28
1570180111744177,-92,-15,0,-3,-13,-5,6,-1
1570180111744177,-20,-6,2,3,3,-4,-7,-35
1570180111746173,21,25,17,12,13,12,20,19
1570180111746173,-88,-55,-9,-4,-7,6,21,-23
1570180111758145,88,32,-2,3,19,-3,-20,41
1570180111758145,-16,3,4,5,-10,0,4,38
1570180111767117,-64,-37,-9,-10,-7,-2,-2,-8
1570180111767117,-36,-12,8,3,6,2,-7,12
1570180111782077,8,15,13,7,6,8,7,69
1570180111782077,24,-10,-12,-14,-9,-1,-7,-14
1570180111783078,86,31,7,8,9,2,4,14
1570180111783078,-22,-11,19,20,12,10,5,24
1570180111804020,69,40,-29,-25,-30,-16,-6,-16
1570180111804020,-47,-17,-3,3,-1,-2,-4,3
1570180111806202,1,-7,-4,-5,-4,0,5,6
1570180111806202,9,0,0,0,2,0,-10,35
1570180111817983,24,8,11,8,-2,2,5,-4
1570180111817983,23,17,0,-6,5,-3,-1,-16
1570180111826956,1,0,-1,-4,-14,-3,-4,-34
1570180111826956,73,15,11,8,12,0,-2,31
1570180111841982,-57,-38,-17,-10,-11,-4,-2,-23
1570180111841982,-2,2,-2,4,3,-1,-3,3
1570180111842912,-48,-25,-2,-5,3,-3,4,8
1570180111842912,58,28,-5,-4,-4,0,1,15
1570180111863910,9,0,11,12,11,9,10,10
1570180111863910,-14,-8,-2,-4,7,-3,-5,-20
1570180111870948,-10,4,-2,2,3,-2,-1,5
1570180111870948,-10,2,4,-5,-10,0,9,-6
1570180111877947,35,-2,-4,-3,-1,3,8,-15
1570180111877947,-26,-34,-6,-1,-5,-1,3,0
1570180111886800,5,21,-6,1,-3,-2,-3,1
1570180111886800,6,-1,-8,-9,-3,-5,-6,-7
1570180111901758,-76,-19,7,1,-2,1,8,-4
1570180111901758,-8,-5,-4,-2,-9,-5,-9,-20
1570180111903749,6,-11,3,-1,-8,0,4,0
1570180111903749,-3,1,-2,3,5,0,11,-5
1570180111924693,-2,0,6,3,7,1,-14,-3
1570180111924693,-20,-3,4,5,3,5,5,-2
1570180111925692,27,2,-8,-7,-7,-2,-7,48
1570180111925692,-15,5,-1,2,5,0,5,-1
1570180111937840,3,-7,3,6,-1,0,-5,7
1570180111937840,10,17,-8,-12,-16,-5,11,-44
1570180111947069,3,0,10,14,33,5,-22,-20
1570180111947069,4,-10,-9,-8,-5,-5,-7,-9
1570180111961598,4,-4,-8,-3,-3,1,3,2
1570180111961598,-3,17,13,5,-2,4,3,1
1570180111963595,-21,-10,1,-1,-7,-2,8,-3
1570180111963595,2,-3,-2,-3,-2,-2,1,-49
1570180111984579,-8,-4,-8,-3,-1,-1,1,-4
