timestamp,emg1,emg2,emg3,emg4,emg5,emg6,emg7,emg8
1570179572860115.0,4.2796914240567085,3.7873872015225136,1.4252692203286852,2.2069347508111146,0.7478364342879936,1.499112867902673,1.5527585028479365,9.875158609977422
1570179572860115.0,3.6341546649407652,2.863546758350569,1.4153801316515469,2.044184943429156,0.41383762148153513,0.7390415008176646,0.6739590324283485,8.67016737288484
1570179572861231.0,3.5491003264244143,2.8052835772937192,1.4057874595960556,1.9859198373834963,0.4335949096406257,0.7173442349515229,0.6676145010416148,8.529687354162139
1570179572861231.0,3.343746030328511,2.537625213446696,1.3965932305959374,1.9208062807355395,0.40022437233190206,0.4804121214251386,0.5697266429914509,8.207708976379662
1570179572863099.0,3.2733818088591344,2.4890567766495426,1.3887379100708959,1.8721470665060949,0.42788428894532604,0.490398538114237,0.635360432355849,8.100290398490337
1570179572863099.0,3.1502329317673166,2.3384709544652384,1.381695825870326,1.8303749249590726,0.44157499381196696,0.38166179448702875,0.7190752666185113,7.9432884637718795
1570179572863099.0,3.097833143210409,2.2999790480613087,1.3731623206370198,1.793281885700502,0.46330887314778796,0.40412117565474476,0.7959328067957276,7.8878912607194
1570179572863099.0,3.0042201925144636,2.1980052146609226,1.364259154832098,1.7611645597954346,0.4854345267626774,0.3618076537516561,0.9030793157839498,7.788943689856061
1570179572873185.0,2.937012812567669,2.161547426015519,1.3548439957414957,1.7273509590455478,0.5064461712686154,0.3914463079598692,0.9646337269686353,7.6683968743385895
1570179572873185.0,2.842885459393898,2.0795185233555373,1.3478279455789706,1.6997827313290956,0.5333771576439739,0.3847535330515433,1.061059506322201,7.508730635611851
1570179572876598.0,2.780600842779017,2.043600495773389,1.3451787489495353,1.6731301695759635,0.5544546338056132,0.4137743759989403,1.1193007369718693,7.361129063407513
1570179572876598.0,2.7014972568220537,1.9726983968448548,1.3429311091988636,1.6530826964450265,0.5827595206752492,0.42564296463494683,1.2132741429083114,7.218544548204048
1570179572892037.0,2.6420803982704193,1.9345535469231216,1.3381906227774245,1.629696781093142,0.6026693128908085,0.45493870391975444,1.2721648163577473,7.084405851327727
1570179572892037.0,2.57076062350104,1.8713155956840426,1.332797551545821,1.6115613857040831,0.6293278374629133,0.4769368459535786,1.365848615092873,6.970005257407932
1570179572900052.0,2.521514284395854,1.8375261429186074,1.3269228676548892,1.5908521101241595,0.649655391747233,0.5060826925798935,1.4261985227789855,6.868565342258098
1570179572900052.0,2.466051793744116,1.7860943878996127,1.3174269347586969,1.5742456173622834,0.676503778218904,0.5329294721845789,1.5117787404426242,6.782345219977957
1570179572907988.0,2.4330254445863897,1.7607357337678726,1.3043570444065082,1.554776243740949,0.6921015024259243,0.5600474114892201,1.5649394328234025,6.697778667865783
1570179572907988.0,2.3931515442156814,1.7174699326623852,1.2883316322148277,1.540187972132971,0.7100586393238437,0.5829828336661366,1.641637597071029,6.627768100292531
1570179572929928.0,2.3710417071719463,1.695769370251797,1.2703751535513914,1.5217988582916973,0.7211377299496889,0.6034129347587737,1.6890131114602907,6.558170194017073
1570179572929928.0,2.3382811323553017,1.6578731607514932,1.2530778004892023,1.507732419734144,0.7390308639766949,0.6226734624542818,1.7523129826898185,6.49329021349063
1570179572969887.0,2.3212670892999094,1.6389874714097123,1.2387053906966576,1.4917833644276008,0.7517366149129903,0.6398193626808799,1.7875523148465298,6.42460344367455
1570179572969887.0,2.296285910344878,1.6066488430753527,1.2271220661076574,1.4811191503726655,0.7692870768302786,0.6564031789934047,1.844073312544366,6.3728399499043
1570179572970834.0,2.290353370449989,1.5973599251351294,1.2175513573432193,1.467996358493813,0.7801935725893854,0.6706319630190033,1.8796570931992902,6.336465530022861
1570179572970834.0,2.2780953175396808,1.5766739264162282,1.2078096596715597,1.4578463629622713,0.7947961869455917,0.684667162321386,1.9284587493736818,6.315741968331427
1570179572974802.0,2.280712578150886,1.5767314545949462,1.1989286873671614,1.4458030121256107,0.8024077647521937,0.6962808615750912,1.9596950912473494,6.303928966896786
1570179572974802.0,2.2707971768264295,1.565249892508849,1.1928466911563078,1.4405935008458148,0.8118255282649918,0.7079942184612904,2.0114340818497842,6.298343267475422
1570179572974802.0,2.273520239636548,1.5739071428084903,1.1896578602917176,1.434727454329486,0.8156848386767817,0.7182679328515144,2.048356990187342,6.300538388754831
1570179572974802.0,2.261069239178913,1.5670202195799356,1.190358627259933,1.4303937365162742,0.8244676777774905,0.7309190323911593,2.1029358317678883,6.307052573482345
1570179572981927.0,2.2496392446066755,1.573744230284423,1.1958988167002997,1.4189760272460785,0.8304895733462889,0.7429098552009391,2.1456370518633077,6.2969785558281846
1570179572981927.0,2.217708051084666,1.56413785127077,1.204241935772564,1.407673393132985,0.8405655756035044,0.7574664274785525,2.203398236404439,6.263406973072905
1570179572990759.0,2.1946834022427675,1.5691323017718293,1.2123164157176558,1.3934175848288206,0.8461791995693517,0.770209670566842,2.2437162220623796,6.222027117662592
1570179572990759.0,2.1660023106118307,1.559700644588661,1.2202789201831048,1.3826272742304904,0.8563315248468246,0.7836206168723604,2.2951527596669585,6.189391146396733
1570179573005020.0,2.1572278311457875,1.5651813591211885,1.229032545044194,1.3674649298379389,0.864320001267087,0.7934642574811198,2.3360455309795114,6.17485217266972
1570179573005020.0,2.1472235055436624,1.557404921015106,1.2386726431306017,1.3523578768863043,0.878432809793819,0.8031369337472196,2.391533940676602,6.176862614673446
1570179573011887.0,2.1570915168638605,1.56161283388569,1.248103651093933,1.3317411614389332,0.8907318007576639,0.81156107998295,2.4361473551541577,6.194359849003976
1570179573011887.0,2.1633394345769235,1.5532179197219078,1.256533353500157,1.3139692906586322,0.9074167544756822,0.8216832822154455,2.4901611015482814,6.219093007562838
1570179573018899.0,2.186608525555925,1.5592858130868772,1.2649245529508166,1.2957619991129699,0.9201892060273668,0.8296270700425675,2.5229493454385827,6.261796941227924
1570179573018899.0,2.2013355043224676,1.5534243589934715,1.2743551124722745,1.282019152469411,0.9345465368769771,0.8393798912366985,2.5501970601267936,6.3143234882225
1570179573042069.0,2.2282322819294165,1.5603525952189796,1.2837384830317944,1.2671728208763564,0.9454051052676922,0.8489837150101391,2.5636848824721192,6.384615664451569
1570179573042069.0,2.24332461337319,1.5567729972862414,1.2922565967952022,1.2584484680495278,0.960928956219008,0.8592096195782156,2.5862786315220823,6.464355087046182
1570179573042624.0,2.264550109814431,1.5644498017225252,1.299894541233909,1.251765337092634,0.9734311011733743,0.865569503481105,2.6008277462579428,6.552393179165488
1570179573042624.0,2.266713465771223,1.5590184082369334,1.3057969144141865,1.248388584764468,0.9893130178822972,0.8728369020033923,2.6267527023002724,6.624278975294211
1570179573057418.0,2.2781286353561643,1.5627306887977774,1.310975825952251,1.2401819770944271,1.0022211464979018,0.880387843322845,2.645998528674621,6.695922255715429
1570179573057418.0,2.282279636096763,1.5531177055032814,1.3174390225051729,1.2319931226667953,1.0159508402529591,0.8907125914658269,2.670354586381824,6.767978996071666
1570179573057580.0,2.298973459063426,1.5485541797578724,1.32129990307133,1.219361817040781,1.0235949745134254,0.9022579770124385,2.690310492332304,6.846137794630897
1570179573057580.0,2.308012689543803,1.5324402013142153,1.3187251964620337,1.2059855817098442,1.0312724034905463,0.9173879150875154,2.718605099837686,6.916665152665288
1570179573079649.0,2.326791397664712,1.5263569347178327,1.3116187875872338,1.1901388155205201,1.037081796798685,0.9316310372983042,2.740232000649492,6.9971870571646155
1570179573079649.0,2.335496667023599,1.5122534275974027,1.3027592031760296,1.1791500960278871,1.0461566115856782,0.9433924472243597,2.762652096898781,7.0834813402798
1570179573080563.0,2.355320190648913,1.507363146251938,1.294095985313133,1.1709536917027867,1.0528557985864961,0.9472399764082566,2.7691308623231157,7.175473524986226
1570179573080563.0,2.3603805467170917,1.4900791631098609,1.2855474063205652,1.1661204685873112,1.0616247482867651,0.9478900872543975,2.768736237558874,7.244772530407935
1570179573102463.0,2.363413638782136,1.4781440718084515,1.2771282153499384,1.1563327200989637,1.0680926849766978,0.9489525047313667,2.7515677315376017,7.2860787181877384
1570179573102463.0,2.3524769394996587,1.457951406091324,1.268773101756081,1.1472303924366274,1.0741930019858272,0.9502274677999256,2.732757562062901,7.311799566338099
1570179573102682.0,2.3529469251203836,1.4480769713864026,1.2584994289397384,1.136841565425629,1.0748131111268886,0.9480892540700462,2.710120980530095,7.351789960189048
1570179573102682.0,2.3489316010759502,1.433365211064778,1.247997643762791,1.1270845832078722,1.0750303452990777,0.9430546648829439,2.6927006121643298,7.410191107970545
1570179573117540.0,2.358487781632131,1.4299735373375477,1.2403777187751501,1.117631753743563,1.0735371176175976,0.9367147805848566,2.675385360140616,7.484580383108597
1570179573117540.0,2.363055334856947,1.4212031677406194,1.2346847405617372,1.11388036883272,1.0753511110347176,0.9312919850775823,2.664192568240921,7.56803465683959
1570179573118152.0,2.37726780608264,1.4256567569176726,1.2289854143177514,1.1127250887349738,1.0779884174308847,0.9284629797459547,2.6471373310136292,7.663766431779306
1570179573118152.0,2.3852219227444573,1.4260150017909479,1.2230962694665493,1.1138837681838791,1.0841793979424672,0.929671688290382,2.631039868132811,7.766102142508616
1570179573139544.0,2.4003809364224793,1.4363261395249145,1.219039378681361,1.111742063339645,1.0898496727637308,0.9342539199856519,2.6135910937183477,7.880383274037535
1570179573139544.0,2.3998602128116158,1.4356673218110627,1.217813144912257,1.1079168236114867,1.097951546763195,0.9419920303343302,2.604751437639435,7.98378927470714
1570179573140366.0,2.3967595251175227,1.440279265935927,1.2185469371747921,1.1029847051495265,1.105395368656417,0.9498898363743412,2.597153998159263,8.04283311609301
1570179573140366.0,2.382710989944848,1.4353228649427263,1.2191859775321572,1.1021503154949304,1.1119123334161594,0.9591724216989466,2.595453970247884,8.08060547480446
1570179573162299.0,2.3773455352833315,1.4400964109957286,1.2207214329751113,1.1040458007919507,1.114572984587562,0.9705782370484519,2.5952651460994156,8.124339525639892
1570179573162299.0,2.365651202273776,1.4368317423309456,1.2231872705532767,1.1085344198538423,1.11682889224861,0.9842438948099751,2.6044871605753106,8.175214609863113
1570179573163298.0,2.35937478884358,1.4380989336167371,1.223638540507564,1.1120381017945022,1.116467155811829,0.9950399711224668,2.61453664763634,8.191431379254345
1570179573163298.0,2.3445323679324925,1.4294349549358836,1.223926104115568,1.114783245886624,1.1145265810280693,1.0044014223034707,2.6268944549648174,8.167442563925995
1570179573177260.0,2.3373871268370814,1.4291479266554015,1.2251824890973673,1.1172654029009434,1.108420209178712,1.0132437637885676,2.633182343167982,8.124895712748728
1570179573177260.0,2.3207410369071138,1.419939750941177,1.224400448274629,1.1210599006797894,1.1009656586826655,1.0195352082151374,2.643662698878732,8.08153319716423
1570179573177260.0,2.303667157610286,1.4158534632160806,1.2225091772868768,1.1219124912298002,1.0915849474586492,1.020766177691342,2.6532691240515986,8.016667277617751
1570179573177260.0,2.276699376578592,1.4033618781639707,1.221469364145236,1.1207273833969904,1.0836472505648234,1.0214448695700817,2.6673644672273675,7.947056303016833
1570179573200199.0,2.258201826009785,1.3984011821954254,1.2204299170288406,1.1181871071205225,1.0764743868070246,1.0240539626266505,2.6788050506526853,7.8617833844524165
1570179573200199.0,2.237406334716853,1.3870595398032766,1.217356515816431,1.117468668120215,1.0703502561359575,1.0278744432612517,2.6966034452366663,7.780512088341849
1570179573200199.0,2.2287550171098003,1.3845611305731018,1.2112137711483248,1.117704177502018,1.064962909270454,1.0317465081165058,2.7164721978515693,7.69734162500012
1570179573200199.0,2.2191025561652133,1.373812484429913,1.2027385600558989,1.1188918712320093,1.06141365031613,1.0338310963100363,2.7421519956805533,7.625031396562645
1570179573222188.0,2.2214652243151507,1.3701966155378862,1.194863667120439,1.1200936107204158,1.0584327817397314,1.0332154978077828,2.7648004355499745,7.543444027170028
1570179573222188.0,2.223067336798449,1.3631892386298614,1.189588313906743,1.1230875014110393,1.0569957287298175,1.0306735606187096,2.7935482636679856,7.471522685347024
1570179573223139.0,2.238503574426031,1.3693175517935696,1.1871021583204993,1.1292421927246445,1.051922465354978,1.0255277728020615,2.823491582312667,7.398319092383871
1570179573223139.0,2.251752416077383,1.3711197424233663,1.1854504471766287,1.1383853806324424,1.0428858091740414,1.0181760679807497,2.8615525588568627,7.346304240310184
1570179573245277.0,2.2722450282913003,1.3831192149159122,1.1826122466292464,1.1479557489577257,1.0330230264905256,1.0110923238602958,2.899621584507495,7.298738953160102
1570179573245277.0,2.2856462146161514,1.390223002959541,1.1804253992455687,1.158478925645529,1.027112827636241,1.0046370620269909,2.9419416393790896,7.267919382059154
1570179573246078.0,2.307912382594288,1.4059735936238704,1.1790936957494538,1.1675550038743931,1.0236922571038034,1.0013837720901007,2.9793680227555672,7.23229911111981
1570179573246078.0,2.3243112970495923,1.412980803878427,1.1755780531708384,1.174581271276512,1.0218103613245555,1.000895517854987,3.0172017922773366,7.209826443109341
1570179573260038.0,2.3486997931824223,1.4256129220314802,1.1697550418507754,1.181039451690358,1.0204236146721501,1.0016343120507492,3.053030101050328,7.195594731091051
1570179573260038.0,2.3610987161790726,1.4262295570550574,1.16348023328987,1.1884842575473944,1.02150987803787,1.0032120466300911,3.08244335229961,7.192777650959464
1570179573274175.0,2.3701331715196163,1.4306944272523514,1.1568457500160039,1.1955375073047911,1.0217175329991823,1.006939157396069,3.0941464356072457,7.146000614135579
1570179573274175.0,2.36923201803817,1.426817329746272,1.1497097612853735,1.2017088693361226,1.020438743867029,1.0116033112071208,3.1069111736476853,7.068429773003269
1570179573283204.0,2.379388178835699,1.43091187110055,1.1431098337156977,1.2074885775941009,1.0167204731714579,1.014500844130891,3.1186124304233873,6.970954423233978
1570179573283204.0,2.3884549074680996,1.4284840056282677,1.1369974702707573,1.212635729802228,1.0128096170460836,1.0143549944240922,3.128345822146901,6.887337812061601
1570179573284248.0,2.402479487655765,1.43141150148857,1.1314203826156515,1.2125930338613407,1.0085061299561167,1.0134141180348026,3.1376338188758948,6.800271006749136
1570179573284248.0,2.4036754841141317,1.4248691059385832,1.1263083748328513,1.2076735884746168,1.0049785761229209,1.011346093395505,3.1543661024534324,6.722268832897119
1570179573297025.0,2.4117716151768565,1.425746910724012,1.1217054692493784,1.1998889356720666,1.0030844870285192,1.0094353396630311,3.1707043306915366,6.630919518954104
1570179573297025.0,2.417873100613473,1.4214938316096746,1.117529065937532,1.191854546521413,1.0045665478005938,1.0103538636599985,3.186842870091025,6.553535173661339
1570179573297938.0,2.4329399511932133,1.426482170682472,1.1148103911082319,1.1857807254374813,1.0050892568079164,1.0134656887661202,3.19778813369228,6.483304193015911
1570179573297938.0,2.443206946112527,1.4267512656643633,1.1135635734905442,1.1836636502904274,1.0051733590387126,1.0155521729696375,3.208607084429218,6.436371396188622
1570179573319884.0,2.462827761404246,1.4331083205605328,1.112833782186723,1.183937384300583,1.004595008924653,1.015847074722375,3.218151946533399,6.396744725938083
1570179573319884.0,2.47585539688857,1.4300154087196342,1.1125627200810226,1.1863340311599466,1.0035876613888592,1.0150601158556614,3.233489004687533,6.383573084763067
1570179573320118.0,2.4863237778412812,1.4331158852197967,1.112788247772873,1.1891989530948606,1.0021744430444395,1.015410959037112,3.251870607576494,6.371897644496775
1570179573320118.0,2.4833024038056433,1.4302081146251502,1.1134915291414178,1.1940865692461886,1.0032621579128187,1.0177015861352945,3.2754117938527707,6.363907477841823
1570179573342021.0,2.4892057965666687,1.432896642895239,1.1137532584756682,1.2005373096156957,1.003430901915741,1.0231147496103639,3.305127098576557,6.353950690247936
1570179573342021.0,2.4940066476369918,1.4271599376617827,1.1115396728223377,1.209094920451548,1.003154250342425,1.0305710164648512,3.345721577965827,6.369066114747962
1570179573342820.0,2.5056669106501603,1.4240691226946254,1.1067731304436819,1.2193887860331263,1.0022057159560225,1.0382079872606729,3.3875071076650745,6.381941235824079
1570179573342820.0,2.5101861193604695,1.4105702893352683,1.1013171800141897,1.2300363362159805,1.000732049870184,1.0449855499614116,3.4101531044440256,6.382378023154936
1570179573356910.0,2.5215933988344275,1.402504895265652,1.0971880640872225,1.2386027504554729,0.9977579550997191,1.0491116386063775,3.401712793553641,6.3603859251347235
1570179573356910.0,2.528964898016971,1.3900491295519202,1.0954246845604756,1.2445605931906731,0.9953905806256481,1.0513439988245517,3.3835348131056278,6.344100404528019
1570179573357786.0,2.5428820305853326,1.3866398228105725,1.0941735802669241,1.2482515341295126,0.9924142277548265,1.0549297303182115,3.368728221854998,6.321333093269409
1570179573357786.0,2.5487533844840704,1.3785822607501874,1.0903934211508703,1.2512638402297527,0.9899427815727374,1.06064492929992,3.3574031166823457,6.302773534823055
1570179573379768.0,2.5556533303098936,1.3763706404616947,1.0839816182300788,1.253990940845203,0.9867733414741547,1.063250562111301,3.340861159141749,6.268478897618927
1570179573379768.0,2.5544311759918448,1.3682284734882788,1.0768055118431956,1.256325339996343,0.9829851440915598,1.056111093472929,3.312916616376704,6.232794205370627
1570179573386701.0,2.5591328679640486,1.3671466090370457,1.0699135854775388,1.2554501094036774,0.9766783158017961,1.0443746385254167,3.273222362218949,6.189706715283801
1570179573386701.0,2.5569300457693522,1.3593305007576877,1.0622972635609251,1.252931836789705,0.9701403908590648,1.0320431894141329,3.2241363434931203,6.16053068952396
1570179573401894.0,2.555921952559946,1.357030919197842,1.0529026771383987,1.2488564254681194,0.9632436714752538,1.0200561644377846,3.1740735381231153,6.130575978420427
1570179573401894.0,2.5475678150820658,1.3491924218058162,1.0435772071884233,1.2450678889294429,0.9581885077414655,1.0083526269878553,3.1291697603762647,6.109922714547198
1570179573402757.0,2.5495487818598246,1.3489837461940004,1.0354151191658925,1.2407722957878944,0.9556351122566908,0.9998978569277102,3.0917371661991666,6.0793912953734885
1570179573402757.0,2.551793573362186,1.343546413128037,1.0263826992905076,1.2358939427237057,0.9563680905670404,0.9939867982629886,3.061236204340059,6.046978209412128
1570179573416624.0,2.5628295584653085,1.3457237179006958,1.0174031320192884,1.2293275742769638,0.957055499501396,0.9904035042394554,3.0352067880973315,6.0029347925420335
1570179573416624.0,2.570457139369358,1.3435535168550765,1.0104702245684258,1.2219346697590887,0.9592976276062857,0.9894918936038363,3.0109660418810233,5.961158376759089
1570179573424882.0,2.584947368845574,1.3491274555200736,1.0056363370669679,1.2134427590115542,0.9635166390977515,0.9918704274272593,2.9918927242636744,5.917173945225012
1570179573424882.0,2.5962877372895363,1.3489180887576349,1.0028884192821736,1.2068291542413638,0.9694690304436183,0.9951234499251603,2.979534051663645,5.89554062000923
1570179573447645.0,2.6181278320975383,1.3571584826195036,1.0012188412024128,1.2022612451212311,0.9719724584656417,0.9995363940002495,2.96964662299745,5.8872822495509425
1570179573447645.0,2.638501528229158,1.3608084632812525,0.9996130259495182,1.2009756154167741,0.9732643668840072,1.005874628709155,2.954710826397629,5.899618776663266
1570179573448537.0,2.6628980915177327,1.3713988370484331,0.9990468255157127,1.2012269488382787,0.9748544628513214,1.0143233907463323,2.9320925858397993,5.912295165995438
1570179573448537.0,2.67869338174652,1.3752432387594336,0.9994804707587555,1.202061514219241,0.9777433423643983,1.0238043661299605,2.9046722962577483,5.932896325090062
1570179573461498.0,2.7023806892204045,1.3857191345644615,0.9979091007686591,1.2013491856691905,0.9795437444325237,1.0324340367008067,2.8770473183040544,5.944004559212235
1570179573461498.0,2.725384585144289,1.3897606090114802,0.994456379639172,1.1998442124329534,0.9816700921077227,1.0411613407334555,2.8483447017158783,5.956604910504494
1570179573462562.0,2.7542642749142514,1.4003802476580351,0.9930878618886146,1.1983280346625818,0.9816653583126913,1.052092491115604,2.8202217455314154,5.970292463372036
1570179573462562.0,2.7775154830890743,1.4039835464093577,0.9937071092812688,1.200149144147135,0.9802677657060154,1.0612816840598185,2.7917894161110746,5.998803375924873
1570179573477506.0,2.809856307003375,1.4157980539590926,0.9943335467310869,1.201832900788084,0.9772746836688154,1.065968416687589,2.7636635257949136,6.034732793486377
1570179573477506.0,2.838043186405819,1.4245703594426038,0.9970251787703226,1.2010659046481116,0.9739901646331578,1.0688247740345778,2.7378894376491734,6.08133314392584
1570179573477978.0,2.8683118532047263,1.4423239847892517,1.0015365260453195,1.198281050488977,0.9694083589905094,1.0711980549222733,2.718264294056441,6.120397727653721
1570179573477978.0,2.89275998671458,1.453207115122144,1.0049410432935681,1.1976732228914333,0.967907145176202,1.0736507402325313,2.7032392061420714,6.170243238614473
1570179573499399.0,2.9194407282678,1.4658494592246767,1.007323095075859,1.1978913644662212,0.9682898088101429,1.0768150250330457,2.6924197654984834,6.213804778551767
1570179573499399.0,2.930678298123397,1.4653386290879387,1.0087461471934678,1.1952784764211408,0.9688042361129734,1.0771557136769103,2.681345354107449,6.232797237005981
1570179573500398.0,2.935919079811352,1.468166024731667,1.0092873690081332,1.1858449831551003,0.9676449456180538,1.0771679470512159,2.6642926323539546,6.216140331422337
1570179573500398.0,2.9319290214204905,1.4668458713680634,1.0110224001650452,1.1728331782088137,0.9684375899053285,1.0773068397586854,2.6474226323787606,6.19621476415234
1570179573522337.0,2.9319805067096834,1.4740174495214582,1.0147425457946888,1.1587075417181851,0.9703908662559456,1.0745176007497725,2.6392293733346577,6.165244777952787
1570179573522337.0,2.925132023516429,1.4737604633470895,1.0193944221168105,1.1471103993463314,0.9748379481826648,1.0684489767452634,2.6385374627795697,6.138780284961632
1570179573522337.0,2.919842061029913,1.4767892701413705,1.024001888887173,1.1361183034718945,0.9800844607946709,1.0631289215503668,2.642621350102958,6.112537249443224
1570179573522337.0,2.9103840353185095,1.4725726777080412,1.0296477722726483,1.1268287175896703,0.9875579250101931,1.0575925579369734,2.650309711122919,6.101398978229738
1570179573537362.0,2.9035977571766525,1.4753181198015028,1.0360989472787776,1.1191737607601648,0.9953376784892529,1.0513656462466228,2.649187479413933,6.08574788677774
1570179573537362.0,2.888661732876263,1.4730629634262047,1.041397558011393,1.113661881662485,1.0027697989887339,1.0389424165088093,2.6229932675392376,6.05577185536404
1570179573538296.0,2.879428821657058,1.4776434286570381,1.0436885072386595,1.1080179959812835,1.0068937574093355,1.0218760170693624,2.586073759792146,6.00075518823891
1570179573538296.0,2.8707804179929535,1.4777130352822743,1.0433108042525794,1.1032600302316165,1.0105231485502302,1.0030846330814271,2.552891062124606,5.951428614371882
1570179573559275.0,2.8662170735960117,1.484057636494865,1.0422782801531614,1.0991047333572594,1.0110156839148596,0.987423753974102,2.5209729498929043,5.884242415985465
1570179573559275.0,2.8545973985325444,1.4790896071819433,1.0425786754145325,1.0980055764419359,1.009562291939982,0.9727104067443698,2.489901936997008,5.794353425431077
1570179573560237.0,2.848871560312661,1.4746395628423574,1.0458752426833648,1.0972609468402301,1.0070060085777623,0.9583987994155687,2.4619433846938463,5.680738743043972
1570179573560237.0,2.8415387273105033,1.4658058800201605,1.0489035009043899,1.0957390025722842,1.0065994083614611,0.9446148065758606,2.4400227530802012,5.577499573995522
1570179573582225.0,2.838074791915073,1.4677183406016734,1.0470345874572478,1.093035354324726,1.007360263127723,0.9341967091136739,2.4252327694244395,5.473863028746552
1570179573582225.0,2.8295198297123054,1.4686503367607777,1.0436490870470427,1.0904664212166755,1.0094109467348595,0.9247695578726822,2.416748994081489,5.386723406872665
1570179573583182.0,2.8217973957908327,1.4797654063759054,1.0413970435103814,1.0857627753507144,1.0103379418663665,0.917762218376426,2.4152630001691766,5.298923666072567
1570179573583182.0,2.810383935503152,1.4874174839087229,1.0381726086376724,1.0809350739806824,1.010673656941943,0.9109265109046263,2.4220816340785443,5.216164296110622
1570179573596146.0,2.8106011832882754,1.5005182191693522,1.031029640175329,1.0741285008915804,1.0085005510590617,0.9044140739625612,2.43329518724292,5.128943600781051
1570179573596146.0,2.8133082744487243,1.5055370811865871,1.0182933995872747,1.0640317335716052,1.0076751029830646,0.8968824302226805,2.4467368581709232,5.05788614175697
1570179573604221.0,2.823562985192247,1.5160675000787398,1.0040612387712273,1.0516351136237037,1.0082790957233259,0.8903847963839492,2.4625616117847393,4.992468131209453
1570179573604221.0,2.8340675290954276,1.5219383595091744,0.9931297664004863,1.040614346402065,1.0114994638154196,0.8839640193315026,2.4827050969001214,4.948972082624655
1570179573619178.0,2.847844633838644,1.5342168045119486,0.9851980169075474,1.027861452516382,1.0164070994483114,0.8774996079210662,2.506868442011642,4.91723343544423
1570179573619178.0,2.8472101449573515,1.5382925125434677,0.9782571734195443,1.0149635143418854,1.021711563498226,0.8719796339270347,2.5356866390315873,4.902862463690299
1570179573620076.0,2.8328944074541327,1.5445067444582716,0.97233725520378,1.0038451047642403,1.0225056382213948,0.8693885772707732,2.559613314164122,4.874053852928851
1570179573620076.0,2.802659153457758,1.5432656154795965,0.9683882437536647,0.9955425790394491,1.0202002580047687,0.8680795015522206,2.573995109924668,4.82816398792033
1570179573642017.0,2.776918858203301,1.547757220935204,0.9652791762278314,0.9857496005454812,1.0151713524085626,0.8686402518091638,2.5814153499317065,4.7679128479126645
1570179573642017.0,2.7551099299147532,1.5456831654045624,0.9631437652414684,0.9759227219964278,1.0130277860533614,0.869590456139967,2.5882191363121514,4.722620842644898
1570179573643132.0,2.743837474176744,1.547946126224712,0.9628041905388345,0.9680420766944844,1.0142617732369121,0.8702835770143971,2.5957854319913407,4.6856714053422515
1570179573643132.0,2.7335098747664026,1.5437630265559399,0.9631635809198786,0.9630663840525173,1.0174427231772163,0.8713317766391793,2.6021961214548353,4.664991268249452
1570179573656044.0,2.7277316793531394,1.5449147587023992,0.9632644152275807,0.9568712499949963,1.018631319685052,0.8750112523619727,2.605726815302501,4.649751140635755
1570179573656044.0,2.715466591872751,1.5416798040849231,0.96415331081179,0.9502543083639787,1.0210852869598814,0.8811803826809109,2.611739248244355,4.644189370280892
1570179573663974.0,2.7027428956194735,1.5464957399191814,0.9645424346391106,0.9412744314554315,1.026034228387134,0.8879681490036261,2.6207477678475923,4.624967935740175
1570179573663974.0,2.6844805827157394,1.547299724633755,0.9627493334384634,0.9285551938655973,1.0351030341978857,0.8933171262740424,2.6357051158877804,4.597217080649255
1570179573679925.0,2.6712201000045477,1.5527103219018745,0.9599360171176515,0.9121477433850926,1.044953730385232,0.8953421705013207,2.651683828535569,4.565543082648303
1570179573679925.0,2.657045621384286,1.5519732405491056,0.9571671042963159,0.8951911995701523,1.0529417922882716,0.893931547058979,2.6644928267604464,4.54696638924208
1570179573679925.0,2.6501152369311556,1.556512245348093,0.9553009231953976,0.8765311078581972,1.0558995606731958,0.8921275078657713,2.673641432619348,4.528867997401458
1570179573679925.0,2.641134788570703,1.553338228466049,0.9541992688772809,0.858079861229008,1.058042885391213,0.8918152428169168,2.686797262823993,4.516846512439089
1570179573701910.0,2.63386408276092,1.5546759095029883,0.95279526135807,0.8398740926659328,1.0595410016803226,0.8901872850112424,2.705853067547769,4.509794414207377
1570179573701910.0,2.623249069960802,1.5518309858322625,0.9512436944636543,0.8230362886570545,1.06040012996951,0.8850739087715485,2.7298320540360366,4.513397609194545
1570179573702857.0,2.618804258203798,1.5561952789866536,0.949466176387819,0.8075795732416932,1.057743183290831,0.8795240648493845,2.757359198495543,4.515291914292976
1570179573702857.0,2.6123126490720203,1.55745798771561,0.9475840406152994,0.7956932104973774,1.0545982892555505,0.8753896885778165,2.791065034422401,4.526338970058717
1570179573716818.0,2.610982110534206,1.5664736269935313,0.9455386045458051,0.7868666791606036,1.0523676730159315,0.8728071884990669,2.817936628408229,4.540687670227924
1570179573716818.0,2.6067750009305133,1.5712646108883883,0.9435384269734923,0.7809857403542894,1.0517001010848706,0.8706902892343283,2.8306564187023753,4.55983637052015
1570179573724796.0,2.6057742389326695,1.5813828626513804,0.9426480833380749,0.7763521928627588,1.050359181478083,0.8671191117007293,2.8392762302007326,4.579114915112486
1570179573724796.0,2.603981486946626,1.5857252010924774,0.9447444369444985,0.7734139804621821,1.0496243579872735,0.8610119415332127,2.8538415457831254,4.603776658655218
1570179573739804.0,2.6100888380984584,1.5961048824603934,0.9490565187280904,0.7717062190396822,1.04823890226916,0.8533807119809045,2.866236833483411,4.630995555530502
1570179573739804.0,2.612415964884492,1.6003530926657674,0.9525585060575803,0.7725419861801258,1.0472988181213967,0.8461671851738019,2.8694527230619893,4.665541666691061
1570179573739804.0,2.6163149371066035,1.6076699700515853,0.9547794059760943,0.7767373819927522,1.0445499521838335,0.8413533365852695,2.863475520514697,4.695188533012076
1570179573739804.0,2.6149146739118616,1.6075740263872365,0.9577947128529629,0.7814234084466241,1.0405467730633884,0.8379743149636265,2.8576027962476904,4.721719799456653
1570179573761698.0,2.6097126114231113,1.611225324050677,0.960074584243288,0.7813831688062652,1.0354055473963284,0.8329132087442909,2.858213074430758,4.742018856680733
1570179573761698.0,2.589465985641663,1.6079785412413186,0.9602275687730609,0.7776069828354626,1.0311598109321454,0.8264113930232263,2.8664410685050057,4.751617212034939
1570179573762740.0,2.57025000188326,1.6111155542216813,0.9597004639708567,0.775204131268066,1.027582635313323,0.820284574757153,2.8750868309496207,4.746770650965421
1570179573762740.0,2.5547127538196635,1.611587937560976,0.9606954370827986,0.7761895980369067,1.02626177109274,0.816902432161748,2.882709733001703,4.742226794046743
1570179573777654.0,2.5493575873138736,1.6186418741712063,0.9648065278511826,0.7807385988796807,1.0236222159949,0.8167992753651687,2.8935540008156253,4.7317461231655535
1570179573777654.0,2.5411372310974856,1.6215956928597832,0.9723683493362053,0.7885395953821873,1.018302084904729,0.8204503865258933,2.9130233524346973,4.72360106182821
1570179573784672.0,2.534391768551035,1.62999012009625,0.9805610598124691,0.7998034742404263,1.010907764659328,0.827026214795934,2.9382901469517138,4.71650344923076
1570179573784672.0,2.521904242622735,1.6320111301736717,0.9869306696062178,0.8138561591282633,1.0041807017642315,0.8360493124267963,2.9542467606886578,4.703278273744688
1570179573800037.0,2.5104060094320433,1.6398910061345202,0.992031336967593,0.8288548671827642,0.9959194480208472,0.8435945627074581,2.947101823840959,4.668814292858935
1570179573800037.0,2.4962316719940976,1.6446662526200424,0.9970228613373728,0.8413733305242332,0.9874390478709473,0.8499629802430398,2.9264903089755934,4.624266318243614
1570179573800594.0,2.4899334412692213,1.6564897151380351,1.0017229307213258,0.8511902074603581,0.978702698964109,0.8562435939890776,2.9043276287187836,4.577078291035556
1570179573800594.0,2.4840183189106044,1.6640996655250917,1.006418339778883,0.8569885959686024,0.9715931836673761,0.8632882147293977,2.8884855509738077,4.540161293100582
1570179573822580.0,2.4867596962167022,1.6769597182569378,1.0119358809772734,0.8596139753820112,0.9646374668349937,0.8691483406822283,2.8789748310457064,4.510877126816903
1570179573822580.0,2.491632077953634,1.682590330477213,1.017897261673794,0.8596851833369508,0.9570457873255075,0.8760294763960955,2.873188199752362,4.494459130249642
1570179573837497.0,2.5059750271112344,1.6923873958562308,1.022329633649788,0.8589270447233873,0.9492750359976365,0.8835318740609005,2.8735180277359005,4.488406210387253
1570179573837497.0,2.5186871849632158,1.6969344736559504,1.0259801858465123,0.8598672767027393,0.9439854990361538,0.8896269355750548,2.876040030102017,4.492463518981954
1570179573839490.0,2.531032133214495,1.7034734836784302,1.0296998896978256,0.8647349871019736,0.9387994366691681,0.8918113867087367,2.867754028458773,4.483773118787139
1570179573839490.0,2.5362418264321183,1.7022095371866828,1.033685155921118,0.8716239934979457,0.9350760893052819,0.8944162733227561,2.849592415299975,4.456893542983943
1570179573844806.0,2.5494875082697317,1.7078750110047063,1.0389194012880878,0.8802334608788062,0.9323740166239283,0.8970325938933261,2.831065551269963,4.425955488453939
1570179573844806.0,2.5640589060474532,1.7106363959807458,1.0460628364932087,0.8908402647901863,0.9306625576998268,0.8997919846654931,2.817214045282639,4.408080625142018
1570179573859445.0,2.584451435489504,1.7155256660379103,1.053768617242012,0.9036880958755626,0.9290053694448764,0.9017129531959578,2.8105378112053256,4.400978293104038
1570179573859445.0,2.60213145715893,1.709423485848378,1.0624934451089532,0.9149287870268678,0.9292735903377293,0.9050712888041006,2.8131077641731195,4.40859562860996
1570179573860434.0,2.624370075082941,1.7065175574070772,1.0728287446670262,0.9237361898804642,0.9288122307899789,0.9105422151306016,2.8212424315183458,4.4258536039415555
1570179573860434.0,2.6388491839443455,1.7017639870543302,1.0846865271703094,0.9296978266603158,0.9270367536986471,0.9188978971236998,2.822413835068248,4.44222154015314
1570179573882375.0,2.652687577594663,1.7041149714090957,1.0983825733501007,0.9337300039634947,0.9224756394069987,0.926825304925549,2.8090331091726357,4.439754061097453
1570179573882375.0,2.6633327793031776,1.699506502920241,1.1109220565276197,0.9362473282378527,0.9188771081620715,0.934761881749311,2.794461847605784,4.428122949365098
1570179573889637.0,2.677858044172399,1.6986340302704337,1.1170757034985819,0.9377960470378317,0.9163531876890336,0.9415432696139128,2.7859394351643822,4.419782838050842
1570179573889637.0,2.6874425598265153,1.6960018240980628,1.1180224922722248,0.9369186335382265,0.9147365347894146,0.9474841260273987,2.7786241762063373,4.423030166914358
1570179573896554.0,2.701475834079339,1.7019745928294294,1.1169545789811983,0.9354803248164616,0.9120804704521378,0.9517705374931825,2.771276324078106,4.434340030687815
1570179573896554.0,2.7127956781328013,1.7052910547895468,1.114793926010661,0.9338203329279701,0.9109419303923346,0.9585870447213537,2.76313781418116,4.4510832061726004
1570179573904606.0,2.7290972235593367,1.7151532042079904,1.1123136940415512,0.9336824597405394,0.9104986855122238,0.9671069659553689,2.7539722431763822,4.470366096868009
1570179573904606.0,2.737445373193183,1.7205263135822688,1.1092897329293727,0.9362657781874193,0.9107794705177384,0.9743551149302339,2.7449684064865556,4.48890793862393
1570179573919275.0,2.7451380043998315,1.732370676195656,1.1048727099291862,0.9428865115998398,0.9098037132714418,0.9778832843269523,2.7338858148031675,4.484956745330879
1570179573919275.0,2.7518574835132474,1.741129910076107,1.1005706800555521,0.9523028026122181,0.9102355074699452,0.9809303920993224,2.7240531455268613,4.45342396027616
1570179573920338.0,2.7663119532201654,1.7540751015193157,1.0980490044165458,0.9617980995204276,0.9110969047587393,0.9823604256664442,2.719977676369636,4.413313158273617
1570179573920338.0,2.777988713113102,1.7605907642374221,1.0978642480816858,0.9672986243539541,0.9124372199676551,0.983280543075801,2.7187660771592057,4.384468628354982
1570179573942266.0,2.7945503483618253,1.7709562498827291,1.0992919071657759,0.9721531148249698,0.911937458487303,0.9836571150261353,2.7162153866234835,4.364946567148833
1570179573942266.0,2.810032501621046,1.7748403754530169,1.0998906428516413,0.9761433801487746,0.9102143118978736,0.9832853137357742,2.7156745509044846,4.351090457352391
1570179573949489.0,2.830340686966409,1.783303076247615,1.0962271707543145,0.9772616639877634,0.905520175867733,0.9804676406462972,2.7155575369950964,4.335944045217129
1570179573949489.0,2.842322832086198,1.7870606233893471,1.0898848103301875,0.9763785170442598,0.9009108838396424,0.9760828768212759,2.708376531224138,4.321937831268543
1570179573965365.0,2.8525484206852494,1.7955971730715021,1.0849917035945777,0.9761201463232373,0.8957929841430062,0.9694571777911012,2.6931918857557466,4.3076121837294465
1570179573965365.0,2.856257490981114,1.7988724544457524,1.0836999720604379,0.9766994221315073,0.8918768525403105,0.9623716113038867,2.6784010391131154,4.2892827334394825
1570179573966168.0,2.8656852767985006,1.8057985310888656,1.0837157841493772,0.9794782873349357,0.8890539767806215,0.9560862663933205,2.6694033177955685,4.2701241759231685
1570179573966168.0,2.877276674153252,1.8075591487831397,1.0814849775187707,0.9815330248548401,0.8906533496321658,0.953076508616224,2.666379683007186,4.257606099563068
1570179573988148.0,2.8960994826723385,1.8161342444757496,1.0781254394725677,0.9831797780812592,0.8952476439348855,0.952270781305709,2.668854162916182,4.247810814950689
1570179573988148.0,2.9097927766649105,1.8206946180731398,1.0765939291680915,0.9867862447403348,0.9037851877852433,0.9502733423541057,2.679873565487017,4.241659259731476
1570179573988148.0,2.921455838427226,1.8300886920154966,1.0761434485041879,0.9934591342504634,0.9131033206607778,0.9448492165725018,2.6883686177881345,4.2334624772950535
1570179573988148.0,2.924630013322625,1.8372664065408382,1.0761321409456865,1.000315395699148,0.9244315295105959,0.9397602062808865,2.681891896442554,4.214725697751527
1570179574002245.0,2.9338376999008355,1.8529970064056234,1.0777613023472243,1.0083570495413117,0.9371893941583367,0.9341189838891826,2.669851045496306,4.190489953568772
1570179574002245.0,2.941536980475478,1.8655608259216914,1.0826828559736106,1.01659861011544,0.9533115655363186,0.9278111753700682,2.664345016147654,4.172246354842984
1570179574003312.0,2.950229839708153,1.881784163651231,1.0896997356843807,1.0250410129556593,0.9693631859359267,0.9232011851366934,2.6633659517042254,4.158843413197611
1570179574003312.0,2.9521367741963553,1.8915205040046579,1.0957015189082913,1.0339673228230777,0.9866991523328096,0.9217044264728153,2.665652868888183,4.1434195575435195
1570179574025221.0,2.959141024618661,1.9045100552813923,1.0996913890780395,1.043915086980835,1.0045674157356288,0.9215309549868725,2.6726496852777313,4.128096553193275
1570179574025221.0,2.966539222876737,1.912486892696154,1.1043497841241767,1.0530931419232439,1.0244566419142893,0.9244011746721771,2.6869533003030113,4.118655617979413
1570179574025998.0,2.9778787619900156,1.9278284485404615,1.109885417655413,1.0614807623010576,1.040822984483588,0.9281849157584814,2.70861756550606,4.117675819706493
1570179574025998.0,2.984311108732386,1.9413663564956571,1.1155801315844343,1.0687217378832712,1.054664163440218,0.9319682019002077,2.740081985150681,4.127259715264251
1570179574047932.0,2.996565501815587,1.9625111917034719,1.1223957993413194,1.077538777272809,1.0670626912486103,0.9369553404766248,2.7775807442988407,4.146017580233074
1570179574047932.0,3.0084988591866124,1.9810251150468485,1.1299857610270747,1.0867782901585359,1.0796997648021838,0.9435765509345226,2.813040606505386,4.16451637783486
1570179574047932.0,3.0283489974702125,2.004845177422025,1.137492776149103,1.0962471144281505,1.0888817759967855,0.9470276011423793,2.8427066505859777,4.182621911461522
1570179574047932.0,3.046887648168872,2.0228674727541756,1.146386136991778,1.1052768316811732,1.0965042909494647,0.947841750629422,2.8719636769964807,4.202724675762789
1570179574061911.0,3.0697212067459922,2.0434570191476156,1.1577864830913143,1.1144942332005048,1.1023353421033821,0.9483691954030602,2.9008729806173656,4.228216814440577
1570179574061911.0,3.090421283605154,2.0556579587802846,1.1695612066516725,1.122062628690949,1.1085927922108918,0.952210971702176,2.9325380313781015,4.249711567850435
1570179574062962.0,3.1161506303880535,2.0696019952031706,1.1779481782469536,1.1257931668810104,1.1123759584398316,0.958927914594795,2.970572829982333,4.263183421731208
1570179574062962.0,3.137984844304772,2.077703373153268,1.1833575072361884,1.1228232256900388,1.115336167109555,0.964961219110037,3.0098155977122603,4.2731567511271615
1570179574085616.0,3.1631690589967865,2.089156648472424,1.1866349138748462,1.115377317164417,1.118283532291791,0.9642012125018097,3.0296509957525024,4.28734671660643
1570179574085616.0,3.1840671283078508,2.095933013542438,1.1859979347433676,1.1058566672800965,1.1236200209981768,0.9601932541690277,3.0244141704857443,4.296939612398208
1570179574085830.0,3.209811111597966,2.105412579813788,1.1816911201330382,1.0955436831637548,1.1278193271765702,0.9559620370797094,3.011858582555642,4.301454410320374
1570179574085830.0,3.236669114533455,2.105195471597876,1.1771459410186003,1.0849551224666634,1.130684880919645,0.9520356428199538,3.003176242559604,4.30669637231183
1570179574107776.0,3.272033636749327,2.106324179011155,1.1726299424699846,1.0764129420822053,1.1302488595058362,0.9487114970092373,2.9935869608070895,4.318694203130876
1570179574107776.0,3.3042481366397043,2.104014410156869,1.1684211035573402,1.0701991927327275,1.1273971361493278,0.9474340318476374,2.9823950750272346,4.334699726779199
1570179574108888.0,3.336810868782991,2.108859863444509,1.1652275015637101,1.0666640210488736,1.1207935988225943,0.9463349466884455,2.967245386751601,4.344529336406721
1570179574108888.0,3.365647851377762,2.111377608829948,1.1632569532671704,1.0662061885510017,1.1145626147891055,0.9431142811245782,2.9454283969235244,4.331967085210945
1570179574121734.0,3.403241473207689,2.1204357792822055,1.1643334128889637,1.0689375487874024,1.108753444075426,0.9365052586415157,2.923608565224326,4.318606617969333
1570179574121734.0,3.439957782129906,2.128090796596131,1.1685460744882907,1.0722460954590995,1.105378873177101,0.9291494410043443,2.90862094454856,4.313788725469184
1570179574136812.0,3.4805882757911686,2.1432982405989427,1.1743046675525823,1.0757865901855488,1.1033525049595267,0.9223328205677187,2.9021124751300023,4.318456416510518
1570179574136812.0,3.5178435406893107,2.154849912867307,1.1802941449102722,1.0790850616481973,1.1033666061434082,0.9153369137068491,2.8981417504144966,4.333960139327617
1570179574145695.0,3.5568436801287793,2.1699607437857016,1.183694805016026,1.0816403809402007,1.102366602673337,0.9048372734663108,2.8907568555318406,4.363599314838828
1570179574145695.0,3.5900862414145283,2.180373903422445,1.1849910680428715,1.0822769330865762,1.0991604844219753,0.8935175526241323,2.887058435413211,4.397844965300938
1570179574145695.0,3.6277160041042755,2.195839064295205,1.1865799776125436,1.0836832493887945,1.0936635215258819,0.8836852962538005,2.889752932831967,4.440099690841498
1570179574145695.0,3.662386514736938,2.206469910051768,1.1903134714016912,1.0870430533693565,1.0885616440207568,0.8746383027289363,2.8969642304315077,4.485224858056542
1570179574167612.0,3.6993601802886036,2.2207996435788453,1.196432856615299,1.091526392319301,1.0801030815089798,0.8649490701031392,2.9085445955924336,4.532516190120548
1570179574167612.0,3.7311707752831653,2.2301383725876742,1.2047593370809317,1.094685215001495,1.0685553914854664,0.8562129524475217,2.922681396552626,4.575416674851598
1570179574169036.0,3.767002735717898,2.2432149034541062,1.2155919835615785,1.0952669248497775,1.0536263612312922,0.8497508579827254,2.9374043475889002,4.6220926068948875
1570179574169036.0,3.800972733183752,2.253052561944793,1.2268988371299416,1.0941858025525675,1.0393563710473102,0.8448715404794382,2.9402714899094744,4.666914004800101
1570179574181574.0,3.8395241702238563,2.267664348794509,1.2346991901597881,1.0936122790989227,1.0277553064834406,0.8391145822283086,2.9225804600230956,4.7116459192416285
1570179574181574.0,3.8738804602325643,2.278001522432873,1.2376751273147004,1.0910526971167407,1.0185831327664163,0.8352583549967021,2.898575586302788,4.74552122105894
1570179574189553.0,3.9087549300766247,2.2935298443900844,1.238170019927707,1.0861365713245936,1.008931408571122,0.8332523317748038,2.881058529420684,4.769356869321754
1570179574189553.0,3.939506450150574,2.304447427935998,1.2391933081976532,1.0795547599718203,1.0012783240106018,0.831644418332929,2.8660368644486014,4.788283707418008
1570179574205667.0,3.9760148363038046,2.319027977551362,1.2411591492526297,1.071604923032542,0.9939808820673992,0.8278199721048218,2.8486367780625823,4.819615365760998
1570179574205667.0,4.010360840807274,2.329042711038176,1.2448199117209393,1.0629947841848302,0.9886319035783748,0.8229355534846536,2.830456306456187,4.858367991482978
1570179574205667.0,4.0493641136587515,2.3433366930119437,1.249390414335319,1.0548350285235901,0.9846126033162977,0.8182405721422069,2.8126791759404624,4.910951813345897
1570179574205667.0,4.085424302347106,2.3536069356949376,1.2538125090035586,1.045761318620125,0.9830744987501352,0.8154791556088593,2.7940182363291632,4.975737686922992
1570179574235488.0,4.125777353493153,2.366367148137259,1.2568451446211393,1.035097770842117,0.9832035046816604,0.8145888367750425,2.772637018156322,5.057052277257066
1570179574235488.0,4.165872284983224,2.373865536788334,1.2569209634915441,1.023635307384746,0.9844716350896737,0.8161036021081555,2.748953359858041,5.144638160368737
1570179574236431.0,4.2120057019050785,2.386817840720328,1.253776123704446,1.0125255376601854,0.9843655750781073,0.8168760493998031,2.728080679192363,5.239575591593117
1570179574236431.0,4.254110957906229,2.395749150189523,1.2490096965685453,1.002454571992959,0.9864974648130872,0.8171274787256955,2.711801269144409,5.32229041967394
1570179574241659.0,4.295657055120908,2.4081644012489143,1.2433499065497988,0.9934739232036679,0.9878714260662775,0.8157806296153018,2.7004231184934553,5.39027029591915
1570179574241659.0,4.326447978326796,2.4160006927333133,1.2370526650846172,0.9833757878070606,0.9866717099978984,0.811938369690619,2.6937199369391434,5.446079485937866
1570179574249603.0,4.3527177039241565,2.4270438966124757,1.231887431933889,0.9735353172311861,0.9835260371359016,0.8043251417221919,2.691953073356623,5.496986285701295
1570179574249603.0,4.374358446654073,2.432500693970598,1.2269122220448236,0.9655725143337736,0.982775103910977,0.7983188027287771,2.6929731289604577,5.538093449209128
1570179574265555.0,4.401882943509179,2.44153112121018,1.2193492187115595,0.9595730268761864,0.9831371237826274,0.7940718134600916,2.696026562533071,5.5796286579534105
1570179574265555.0,4.4237828912605055,2.4455698523457707,1.2099992813323375,0.9541181085961948,0.9857086861221178,0.790470920010775,2.6941435078161082,5.611879356092103
1570179574266352.0,4.4429159772836675,2.4507175445351743,1.1990070198689182,0.947540716865793,0.9889451001197402,0.7856735735557709,2.6803017416189845,5.639905810681065
1570179574266352.0,4.4537788606589235,2.449897640694704,1.1882522551801646,0.9397617217256411,0.9949432446565541,0.7821798957073367,2.663734699063509,5.671678344244737
1570179574287668.0,4.466112986111214,2.453513836732264,1.1814057148570452,0.9331058489187455,1.0008676234351954,0.7795478821537184,2.650800338301177,5.717484490657334
1570179574287668.0,4.476530416775614,2.454332954354091,1.1789956888732378,0.9280386148919505,1.005203612083882,0.7790451290537841,2.637344835829053,5.768978172333623
1570179574288295.0,4.488533037448674,2.461786059082197,1.1769608007538521,0.9237386066708327,1.0062939983632098,0.7792237228820283,2.6234539310605784,5.830806700464916
1570179574288295.0,4.494580868320351,2.4688227064851103,1.1735122776709368,0.9189409235925747,1.0087713790571067,0.7817186846787787,2.6117900001066436,5.899967871777935
1570179574301479.0,4.502623702112581,2.480257411303773,1.1711680846143346,0.9150530673481506,1.0127648753104725,0.7860153121791149,2.604709124503673,5.976353152797146
1570179574301479.0,4.501682771572961,2.4844344307874255,1.1704644902503336,0.9114324488183124,1.017178367949024,0.7943736472471535,2.595189341427372,6.0236169761539315
1570179574309244.0,4.498244131688359,2.4908078697379965,1.171308616585233,0.9065733586568939,1.0183336093160207,0.8045129126052701,2.5771460093466843,6.031452346332416
1570179574309244.0,4.491921499896302,2.494566103739807,1.1742904633424744,0.901303394887631,1.0189853233142139,0.8168664094509114,2.5588748744828016,6.032836339713723
1570179574324402.0,4.485389850040862,2.505799033899251,1.177672166025939,0.8967635345940125,1.0185266808317432,0.8288443953359269,2.549721431156663,6.055998779665336
1570179574324402.0,4.473720195305755,2.517519742114106,1.1796666532301907,0.8905028454010375,1.018389772097184,0.8432378068130916,2.5477536393812175,6.08561778595823
1570179574332335.0,4.470881673587417,2.535597779023709,1.1791158375163464,0.8833498445882966,1.017162659519399,0.8563330961865445,2.549143832006817,6.118732277836156
1570179574332335.0,4.472021238782741,2.5508391889145456,1.1785689169233171,0.8768251338433386,1.016475683682588,0.867941532320684,2.5537110199668547,6.153915053880779
1570179574355281.0,4.481146690305857,2.5706137048716875,1.1817019258457557,0.8711503514301825,1.015118061126631,0.8783804218170643,2.5625960997651234,6.196788298550568
1570179574355281.0,4.491685194925517,2.5861154100745023,1.1892490439682861,0.8650389030184072,1.015947275726623,0.8922474963176464,2.5728117047147783,6.245043163645516
1570179574356108.0,4.507366726503659,2.605452355311624,1.1996769428241523,0.8612017794740501,1.0183770210140248,0.9076101612394353,2.5815869297706766,6.301969172818245
1570179574356108.0,4.51818134452752,2.6190621918126116,1.2091695035904277,0.8595919069484379,1.0216542103579287,0.9254811180401337,2.586072524336308,6.351036089625593
1570179574361101.0,4.52995925752135,2.6354734782551974,1.2148881495678792,0.8596615467542092,1.023204703225178,0.9402060802871628,2.575742296890341,6.385091728343829
1570179574361101.0,4.538077323745824,2.651285760201178,1.218282477737297,0.8606521316685781,1.0257511503034715,0.9513374071563584,2.5497307682922137,6.4097650446891885
1570179574370072.0,4.54977658725704,2.674775654534168,1.219785527133169,0.8620507194197203,1.0263519374168422,0.9601028123948722,2.520697960750411,6.441930336284427
1570179574370072.0,4.561577776920426,2.695538375303462,1.2217738114684626,0.8623920111920643,1.0272084189420054,0.9682705407625003,2.4894617070975555,6.482313579839071
1570179574384420.0,4.577460679678197,2.7208595252449914,1.2278788485414736,0.8626084876876915,1.0299078518392608,0.9706212242553784,2.4531151965321683,6.526032245892506
1570179574384420.0,4.588997488367769,2.7430930290412165,1.2387487473478107,0.8621960304138245,1.03584842997698,0.9706609240631789,2.4128438747693592,6.566499405190107
1570179574392015.0,4.603342472929769,2.767681539861255,1.2530248507911428,0.863250113647962,1.0401955286403275,0.970797448989656,2.3727076457702534,6.614708280077739
1570179574392015.0,4.611104904006726,2.7844366660915805,1.2681934648582796,0.8666943307090428,1.0428104781804406,0.9744953300605383,2.3373824099400125,6.669794331326578
1570179574408021.0,4.602238101418765,2.801971521013921,1.2832160356344324,0.8726768112765926,1.04375020333231,0.9778849409947596,2.307475236518112,6.703614228528773
1570179574408021.0,4.569048676510758,2.8158806177771254,1.3007470014648108,0.8792732490867929,1.0467300766563374,0.9797631010140596,2.280706302111599,6.681268241150628
1570179574408243.0,4.538957605209033,2.8339214358602103,1.3212771835585402,0.8871261232731422,1.0507688296787991,0.9778659247999288,2.259272944041109,6.6271342204321595
1570179574408243.0,4.517044991499499,2.8477804175169426,1.3427467582465558,0.8932597146679874,1.0548604091631988,0.9709948895040593,2.2450970035720825,6.5663365403464296
1570179574421934.0,4.501862675201567,2.8665661638614126,1.3628570951005714,0.8987772543976572,1.0552246404309793,0.9573216215646745,2.235285080693338,6.501409563719933
1570179574421934.0,4.4813504132934625,2.8813815545691903,1.3797086804096355,0.9060737264808238,1.0538659011461635,0.9428801719194729,2.2247148475402736,6.430481986534489
1570179574428912.0,4.468527127875288,2.898624253269542,1.3900603189139589,0.9170296404212356,1.0502209791770158,0.9285519325606583,2.2143622022815634,6.351072901548529
1570179574428912.0,4.4682846835822,2.9122392511117217,1.394387835744143,0.9287599962173798,1.0476447058149387,0.9153609722068106,2.2093255679950974,6.276901856211617
1570179574444922.0,4.4840287531778165,2.9296295387499836,1.3951218063883697,0.9402875649558939,1.0464715835369418,0.902975653329096,2.209339582690591,6.219465061569411
1570179574444922.0,4.504032393901547,2.9422560205171266,1.3914329007918733,0.9500928379739585,1.0490564368320165,0.8932680763717649,2.212603173742664,6.173673627000748
1570179574445868.0,4.531269546770442,2.9583915323425813,1.3847256354204995,0.9594867688483686,1.0522275056949564,0.8836938756172864,2.219767027477225,6.141861838563078
1570179574445868.0,4.558783623385739,2.9720930613880485,1.378949155265651,0.9674404826610966,1.0556066584545405,0.8760583308988608,2.2299956248538386,6.123989936754042
1570179574467985.0,4.5909418557980235,2.9907609460633946,1.373792636328053,0.9741959436759476,1.0577921281392473,0.8708479883487212,2.2409521911995998,6.115438705657941
1570179574467985.0,4.621417766441336,3.0066389935721887,1.3684776898572741,0.9795601305495616,1.0620614581725842,0.8696958218993216,2.255106135148407,6.111506081330248
1570179574468808.0,4.658177672138296,3.027327530675925,1.364089183103785,0.9864336444054239,1.0680808859152926,0.8685269979257847,2.2706359901237008,6.099892490998586
1570179574468808.0,4.697078665252227,3.04606807500485,1.3612911127343272,0.9932930333035886,1.0766159083710691,0.8677063504018139,2.285336621793944,6.065862827397672
1570179574497726.0,4.74156703359084,3.0688956356322494,1.3596822544786737,1.0013785750797846,1.0829526422627338,0.8682052270195671,2.3017710073611077,6.01496331444934
1570179574497726.0,4.784236522523946,3.0864894482518173,1.35936031109709,1.0101663362301365,1.0874324048628994,0.8728165102280381,2.3200184670949526,5.961381255524789
1570179574498723.0,4.83172940112809,3.1072659863383603,1.3610838204365663,1.0191388506550794,1.090730779816271,0.8781776381719201,2.3336415629707097,5.909842673004753
1570179574498723.0,4.878380654634427,3.124187476443148,1.3649976163364994,1.02561432245456,1.0942314525003267,0.8851500755516586,2.3440912443250284,5.858962980650991
1570179574504781.0,4.92876529811797,3.14313208809705,1.3680826392226393,1.0307084294177287,1.0948194932174287,0.8919955670315058,2.3557408463068024,5.817602890379059
1570179574504781.0,4.973556371831553,3.1570629933610173,1.3671971177833075,1.0361350691356206,1.0954173277656651,0.9004132206530074,2.369947403632483,5.787314778893269
1570179574505705.0,5.018565334246069,3.1756582810342455,1.36292317959124,1.0449174388674298,1.0952674539368996,0.9084242896273802,2.3869237416058255,5.763186672932605
1570179574505705.0,5.061732225438532,3.1932283368937573,1.3579729813101005,1.0536943138182602,1.0961228828330705,0.9176616958694332,2.4068600725224343,5.743872930239925
1570179574528038.0,5.106651094371128,3.2169884474467523,1.354306067575135,1.0611898913873299,1.097492525759157,0.9255469080820088,2.4249054383392603,5.726505950830216
1570179574528038.0,5.14443347619908,3.2397284482249127,1.3542752242920568,1.0682261010660365,1.1007156079814124,0.9295762686531117,2.4360243957945413,5.702846747054986
1570179574529842.0,5.182885305534328,3.2677115489913606,1.3561964489602751,1.0760056202770085,1.1020647730291868,0.9264902180226559,2.4366605188983814,5.659352273247081
1570179574529842.0,5.217381467227045,3.2943692457616542,1.3572919573548472,1.0818069018983045,1.1044319592427732,0.9233519436879426,2.4336417252720364,5.60280023249904
1570179574549848.0,5.253257839636609,3.326922408048998,1.3580076189583878,1.0882823941456128,1.1093244548309407,0.919096151317236,2.4228789248109908,5.555961814783493
1570179574549848.0,5.288497437749267,3.3553183660831816,1.3580061885289483,1.0946789662082286,1.1183924281334605,0.9141434877625105,2.397879289779585,5.529287654863221
1570179574556723.0,5.331226403835481,3.384561601227522,1.355416244834706,1.1009440589110535,1.128572387213154,0.910465848343953,2.3697080154761796,5.517720593842671
1570179574556723.0,5.376798284216771,3.4082506640642634,1.3502404659143763,1.105785062610435,1.1396734261971881,0.9115154480441305,2.3479489514364404,5.507861089175197
1570179574563780.0,5.431386793941662,3.4345056367470868,1.3440816998553056,1.1073005910889318,1.1485266391071662,0.9142432450968995,2.330600022153362,5.50127723017292
1570179574563780.0,5.487400909597251,3.4588926202541477,1.338935538210523,1.1053149246980238,1.1572448680274856,0.9175255907935093,2.3160443965283757,5.504118622344877
1570179574572529.0,5.546358736054989,3.490385602829054,1.3353108325378273,1.103655365174744,1.1656944073406883,0.9162532530882904,2.303918949685694,5.505643468544039
1570179574572529.0,5.596932751438663,3.5203886441786767,1.3337920659463278,1.1000120131105173,1.1755842471008133,0.9131184208308989,2.297715608457608,5.492820019378106
1570179574587744.0,5.64839915759013,3.5554074171881167,1.3325305950541795,1.0964115198308197,1.1839601221340275,0.9099842281600199,2.2984479479032425,5.468492421769499
1570179574587744.0,5.7047737631861555,3.589229339674537,1.330536836803754,1.0947484884593635,1.1926654468293847,0.910677678632535,2.305207450361924,5.439120404000768
1570179574589483.0,5.770156191375352,3.629962681172926,1.3308789468600373,1.0961808487049376,1.2017900620597013,0.9118959646081832,2.315082986109875,5.411950844610827
1570179574589483.0,5.8341086271297105,3.6705470084563183,1.3320038681085902,1.0994107295716748,1.2141211704056563,0.9122964285168114,2.3271895384443395,5.390177398511897
1570179574610698.0,5.902208914041034,3.7159327981010586,1.3306918396935432,1.1052922527390359,1.2272103066364324,0.909317185328721,2.330489911899824,5.369100092249133
1570179574610698.0,5.969881169770605,3.75857283063049,1.3302981993855016,1.1135587545502397,1.2405592860208219,0.9068246514934646,2.316721555311647,5.34535287250736
1570179574611429.0,6.041217537377821,3.8050169050307,1.332372650990667,1.1242022797802842,1.2509486326037091,0.9048981698346111,2.297881270100417,5.3263820371668285
1570179574611429.0,6.107655365468643,3.847683385850618,1.3340939130042042,1.1342561984450417,1.260047173224616,0.9058959063887378,2.2864421469393124,5.317229084644135
1570179574624392.0,6.173793709928331,3.8940334229216655,1.3337528794231224,1.1449554790157446,1.266397705349969,0.9077329340861691,2.277628263320959,5.3148968399170124
1570179574624392.0,6.237008495279441,3.935820126944955,1.3299418572508481,1.1537893597278317,1.2707797330736035,0.9132594195078588,2.268405479356521,5.29891037051821
1570179574632417.0,6.306968682768718,3.9789361123239857,1.3234177321150518,1.1599046603705554,1.2717034130576352,0.920308341001065,2.259308028631343,5.257724460174748
1570179574632417.0,6.379092328036386,4.019370532520652,1.3196123482750604,1.1656082806005572,1.2714173727441491,0.9280354470926723,2.252071194491293,5.200931795686295
1570179574647622.0,6.45549448029903,4.0662939299940914,1.318337160145102,1.173712393509585,1.2690228092944058,0.9326855811167883,2.24690831386905,5.130589800221472
1570179574647622.0,6.532525108309424,4.11337173175881,1.3164429493721135,1.18131596006359,1.2673606356213105,0.9389363497379257,2.245465206767482,5.049236069827897
1570179574649324.0,6.620642844263977,4.166594868519341,1.3137159480949292,1.187379322962235,1.265263239107631,0.9471606983506722,2.246636902071253,4.970981790322209
1570179574649324.0,6.713643806487291,4.21842819717249,1.311805759322157,1.1895734192137548,1.263709328722318,0.9591111196830157,2.250187912777699,4.901155087784325
1570179574670437.0,6.812886386036612,4.275194939871799,1.3122021219740578,1.188785940248725,1.2604354432135887,0.97093635441094,2.254370606898345,4.842323146988404
1570179574670437.0,6.910932384678012,4.329740130500367,1.3143286497975222,1.185862768398423,1.2581240671137632,0.9840300761443256,2.261445109021901,4.797629131395375
1570179574672262.0,7.012566014924301,4.3882926637277055,1.3180131649850368,1.1834312682870243,1.2566393360341352,0.996238322092095,2.272162760919811,4.765539364411047
1570179574672262.0,7.111490887565905,4.443071113351205,1.322662246201199,1.1800933713322925,1.2563392265183055,1.0095831682948861,2.287023258876344,4.739930101968094
1570179574684454.0,7.212541680764681,4.498640847366159,1.3263656576833143,1.1760345836980275,1.2550235135786962,1.0211366800332127,2.302843710395033,4.723249982955051
1570179574684454.0,7.312168601974793,4.5486338592966895,1.32997734705381,1.171846278747252,1.2547326282181512,1.0300334585173927,2.3210863738675127,4.714772991779801
1570179574691498.0,7.418084120982338,4.601925515146511,1.3341939780779815,1.1699049059433928,1.2544693640937492,1.034314251144871,2.3412902990768165,4.715147432379825
1570179574691498.0,7.52463065623842,4.655209889076269,1.3387358389794555,1.1683743785450256,1.2539685409971224,1.0385231956770664,2.363403256317415,4.723583991543995
1570179574708072.0,7.632998134651727,4.7171973308356785,1.34238386514842,1.1651612199651957,1.2517233962130538,1.0400512109992897,2.385258310521234,4.745675893727221
1570179574708072.0,7.733192805848065,4.778911715498971,1.3449460162431812,1.1598429496703115,1.2520509002272724,1.0405619122869199,2.4073398504750596,4.773723460818741
1570179574709528.0,7.830977508457767,4.844654528849224,1.3476224803255752,1.1565966021374081,1.2533872455316233,1.0389166829360093,2.429787431931319,4.803409961608942
1570179574709528.0,7.928774085244934,4.908710271042792,1.3502751929201835,1.1557348228817779,1.2577980915002152,1.0397294134864061,2.4549784652803246,4.841278380412508
1570179574730406.0,8.037078927817458,4.978755641362743,1.353534741920438,1.1573864486164513,1.265147010048161,1.0427295253986206,2.476068854723047,4.894394480428786
1570179574730406.0,8.148325272561939,5.047923450549744,1.3599822517743736,1.1593738178920605,1.2761797481169637,1.048291260095754,2.492088229099147,4.956030256364578
1570179574732110.0,8.261540385616502,5.119141084936001,1.3675130256551504,1.161783703621262,1.2875511350948547,1.0520317587665178,2.505587148726998,5.032356254645644
1570179574732110.0,8.371564707336423,5.1847960226042495,1.3725602980458835,1.1639194948299847,1.3005576469354498,1.054595974951228,2.518802344658256,5.113177156914068
1570179574744078.0,8.487579247167291,5.253639325947877,1.3756222607896123,1.1667917001654822,1.3144467700602802,1.0541684918387582,2.532957265771236,5.188475319041023
1570179574744078.0,8.606214274156876,5.320863052353971,1.3782472058040918,1.1703118022572285,1.329653327280602,1.0546146297737755,2.5535750584076014,5.257785249070315
1570179574751412.0,8.728824966012924,5.3938642961943275,1.3816308074749863,1.1737389601281454,1.343853526457735,1.0556814605532792,2.578065300566786,5.332421320507098
1570179574751412.0,8.843378501878925,5.466079000163669,1.3871457371188172,1.1750080431283805,1.358470056739404,1.0593458401338327,2.5958718040419693,5.377626498494864
1570179574768005.0,8.9559157324496,5.540864503080883,1.3926837335939266,1.1766253730259872,1.3706738449237212,1.0622855263947721,2.600745911773059,5.369168469816226
1570179574768005.0,9.072358727120907,5.613896579074247,1.3973080280184855,1.1785231418344566,1.3813620753088447,1.066801553308407,2.6069852559906126,5.3386089889765325
1570179574769005.0,9.201392394849925,5.693642110539525,1.4026159890862047,1.181622378082391,1.3910703536515394,1.0704083157993032,2.618665414163549,5.321538262039196
1570179574769005.0,9.332300047196814,5.772059261792868,1.4095413885093215,1.1862974552315586,1.403946041647147,1.0746200234051997,2.6298580712239095,5.308345112925272
1570179574790199.0,9.46800807604975,5.853277414657738,1.4189594948695146,1.1947947255369147,1.4176953682156423,1.0786583002087156,2.6378812252557164,5.294041992293895
1570179574790199.0,9.606253599487694,5.931759765358361,1.4320192524212207,1.2052253452483481,1.430221991061106,1.0846585650626088,2.648861827032073,5.286416861719128
1570179574791944.0,9.749105672306998,6.0162116256099125,1.446692543282724,1.217278733972127,1.4381352703985488,1.0885130873063773,2.6581919606693836,5.2903013541134225
1570179574791944.0,9.889812042736903,6.101386470682275,1.4587818441232085,1.2297499347872285,1.4459766555211173,1.0889456555458945,2.6616118793938592,5.291097406641428
1570179574805095.0,10.033831637094753,6.190727124153577,1.4674958075986537,1.2418846550598013,1.4551962866613557,1.085101645502962,2.6657147262398158,5.291451479944182
1570179574805095.0,10.175496113513837,6.277090258701393,1.4759910147776656,1.2497543147538444,1.4651629182834005,1.0843509178540325,2.6779462843236206,5.292010918888799
1570179574811890.0,10.318848474806103,6.367664477921149,1.4843777739165336,1.2516563393164444,1.470948817597901,1.087096404815523,2.6944299281039115,5.293172178121012
1570179574811890.0,10.45590248456148,6.456775571509228,1.492049041675954,1.2487548115432947,1.4726041025035657,1.0946087805691316,2.7112918098269816,5.289092816682616
1570179574827852.0,10.580800294885785,6.544307521189963,1.4995550425312865,1.244995113022985,1.4688930612622764,1.1027608321035958,2.717752968912669,5.279546029072068
1570179574827852.0,10.68396600176384,6.62105246386073,1.5084766718221427,1.240223551396169,1.4637678893279833,1.1120515854091146,2.711004594114567,5.263789259746977
1570179574829144.0,10.77559166486428,6.695169173316741,1.520285523911245,1.2359110164689937,1.4599714380088125,1.1214766171857333,2.699862387402758,5.258218171154349
1570179574829144.0,10.862399566458219,6.764338306762315,1.5349319090353113,1.229762492448113,1.458357858584275,1.1346319332628338,2.692953877050318,5.2606989719002994
1570179574850001.0,10.947534147336889,6.829365323773883,1.5504882048514768,1.221654622006921,1.4524451219179224,1.1482500967546558,2.686733218876836,5.2681690220829465
1570179574850001.0,11.021986222721402,6.881945262804534,1.5658245536337214,1.2146285339966945,1.4438025106248085,1.1635874463122835,2.677413556403113,5.277730587676458
1570179574851784.0,11.101302384320457,6.933225092154481,1.582732503625422,1.211396471493523,1.437189897306828,1.1785606715472974,2.664724611058567,5.293966520460175
1570179574851784.0,11.192918584051974,6.982230117322273,1.6023522212023045,1.2104484353754708,1.4362048690614784,1.1953402807652351,2.6497203725160707,5.317424179736697
1570179574864942.0,11.290894241075822,7.028840664850342,1.6232166604580267,1.2120581420683296,1.437578244305643,1.2123220194601838,2.63327201773013,5.345108216029933
1570179574864942.0,11.358038419114425,7.052057586093512,1.6418658570877602,1.2140586838711303,1.4392155898444823,1.2301413308295366,2.6221631241366037,5.365291902998456
1570179574871735.0,11.399620123933968,7.062522198401516,1.6567998576741918,1.2162988662064087,1.437995813155969,1.2432823555499921,2.616472411142353,5.388879573851712
1570179574871735.0,11.453335323134228,7.079308308652869,1.673155328030664,1.2170946956159818,1.436320352680572,1.2516259573603843,2.616811739682036,5.40905949809244
1570179574887828.0,11.526717573593395,7.100581346838371,1.6928678721605759,1.216761401835227,1.4325677801897156,1.254710723979932,2.622623052821393,5.424396107029435
1570179574887828.0,11.590142318050324,7.1027322398341965,1.7137816733768216,1.2151011663108733,1.4278685880848347,1.2572331936746353,2.633324867357292,5.437071767423548
1570179574889682.0,11.646184203882056,7.0951474020094984,1.7350077939770956,1.214396847296414,1.4221786430983812,1.258056195543411,2.6476598634211745,5.451906400983331
1570179574889682.0,11.702965074148597,7.087801878437791,1.7562992660232646,1.2156830831950278,1.416100277005737,1.2603462403523622,2.666208331956353,5.464988971377372
1570179574910625.0,11.748457530899678,7.087671079614302,1.7752585778678718,1.2202422829897002,1.4079352289884854,1.263412501370895,2.6764589863347186,5.459908854484283
1570179574910625.0,11.76765723068863,7.086657171768018,1.7906545479327758,1.2277241591296388,1.3994137680858822,1.267872077707092,2.6655045153981396,5.420762802952419
1570179574911624.0,11.759764777595342,7.080289463375774,1.8051204098366629,1.237898405021393,1.3899962795067986,1.270090718987804,2.6390669450585924,5.386847452590868
1570179574911624.0,11.704208793637504,7.054169442776896,1.8214853888786973,1.2477264023761083,1.3830954904932207,1.272625856810502,2.6144974090446427,5.375955971508191
1570179574923799.0,11.630277855095585,7.023565881180632,1.84036240194564,1.257360953707907,1.377627190989098,1.273343222538797,2.5970741648778546,5.38400633029129
1570179574923799.0,11.584250380676433,7.006914134345361,1.8594807320050302,1.2651342699494974,1.3725471110633218,1.2739409811946052,2.5886427010625046,5.402310314477392
1570179574932565.0,11.569461822528748,7.007603056053883,1.876588510579548,1.2717435517869748,1.3647909897208144,1.2750178368457628,2.5880319249288304,5.435077390365256
1570179574932565.0,11.550758065534549,7.001540682189042,1.8932802819772285,1.2788258802245558,1.3548411646752807,1.2789674000393352,2.59224227333176,5.474158214547531
1570179574947738.0,11.505670450938165,6.975002167319769,1.9076257335421685,1.2879664447758445,1.343184232559835,1.2817472099991605,2.596644548384729,5.51128471663061
1570179574947738.0,11.44354374853359,6.926728400142699,1.9178615441350657,1.2954337509663731,1.3330637309045086,1.2823669036635896,2.6038429006844335,5.539250262254117
1570179574949528.0,11.382191088778981,6.875763318693178,1.9248105155796553,1.2996868425944368,1.3236964845357233,1.2787250039188383,2.6131791900111794,5.575547677497176
1570179574949528.0,11.307523465663571,6.828493259742926,1.9289996550398028,1.2997437409594095,1.3166751437136293,1.2743725822341911,2.6234752658417957,5.6209490696919815
1570179574970682.0,11.229356947204531,6.791391680737829,1.9313728391310228,1.2959742460751271,1.3097690788127352,1.2678155865644551,2.6311174998813556,5.678978868869392
1570179574970682.0,11.170830624113947,6.763056156080675,1.9305543062097028,1.2884941836170052,1.303192380792359,1.2627975457779144,2.638803893908865,5.7464612478129
1570179574971470.0,11.132763619932218,6.744188397049821,1.924439275187351,1.2792185440548407,1.295010177397332,1.2600253474016063,2.651565644204681,5.824699589842904
1570179574971470.0,11.10369439716782,6.732696520959797,1.9148291267570652,1.2678454930666894,1.2869688593639173,1.2612939959625602,2.6720959244165745,5.904555506848881
1570179574984436.0,11.091408475269281,6.733152405456013,1.9071646586674782,1.2576506607267017,1.280549047410376,1.2651047255998464,2.69715166440557,5.991317640817599
1570179574984436.0,11.091776689393974,6.740644595039778,1.9047211305184584,1.2503688577210827,1.2778183008808648,1.271884309031919,2.725469552284889,6.0743155652159215
1570179575000447.0,11.101525052197387,6.758282629534936,1.905004888256681,1.2468664022489306,1.2773529195812516,1.2774936036080058,2.753736954925287,6.149373850170092
1570179575000447.0,11.101920898056353,6.772780611186718,1.9071198611966769,1.245957596079113,1.2785982234510698,1.282276649483441,2.7803175832922054,6.201005848139625
1570179575007375.0,11.069165591607295,6.7763317408288675,1.9103755718091633,1.2480596141185891,1.2775615503188922,1.2846314569190578,2.802615176356165,6.225862996210416
1570179575007375.0,11.01562721890528,6.769369708796992,1.9119011116646765,1.252143893017414,1.276747127311516,1.2879299386614669,2.827040398355056,6.23636223546917
1570179575009363.0,10.969808991722456,6.746381273349154,1.9115084927100496,1.2585459849040852,1.2766846569575867,1.2912583827396817,2.8564476978894056,6.262733107825505
1570179575009363.0,10.920217404647039,6.684471008804641,1.9104569000160847,1.265184782288692,1.2777001988569507,1.297170045563377,2.892431021425681,6.300552207552486
1570179575030306.0,10.85784014700462,6.59271158277858,1.9094794850795396,1.2722051463216693,1.278302318578319,1.30379880548324,2.9205887605152903,6.335640946481136
1570179575030306.0,10.763705925823796,6.491194261299948,1.9081196252190025,1.2798265537706608,1.2814137269948276,1.3102695362598338,2.93325209901581,6.35484828193403
1570179575031302.0,10.59674991126925,6.384924204003995,1.903998358552049,1.2877173980033134,1.2864566215568602,1.3141355939962418,2.9422112648338015,6.377995375639744
1570179575031302.0,10.370049348122418,6.273926642042965,1.8924500580738746,1.290971997625348,1.2926908074300225,1.3186806924917462,2.9575625189303323,6.406079465470887
1570179575044268.0,10.155117878108454,6.1747721064095105,1.8701947104690415,1.2884073900524011,1.2960896143903298,1.3220105485342062,2.9751205591325816,6.436783054832379
1570179575044268.0,9.976945384086356,6.087391941726428,1.8415481235584144,1.2825955326845402,1.298824047967519,1.3264533187479102,2.9927201936595,6.465945065794117
1570179575053244.0,9.827751490890332,6.00333445851707,1.811089400361345,1.2797480756277173,1.3030098130607448,1.331155728173262,3.0133932166632964,6.5036769624368524
1570179575053244.0,9.705659152022944,5.918217893237312,1.7812197560108738,1.2817982405661015,1.311199117808706,1.3380918324333217,3.0427121723144057,6.549089693745578
1570179575067713.0,9.599065614631764,5.830834343843419,1.752201343928237,1.2891783231645222,1.3202840235870865,1.3476204720200435,3.0747194445156936,6.612708845154155
1570179575067713.0,9.485216954585432,5.733306856307514,1.7229836445183686,1.30014386081931,1.3308227616468473,1.362028903994297,3.10650714527448,6.691698714312079
1570179575069201.0,9.35934717136839,5.629351252664457,1.6955774885999462,1.313775155248112,1.3415657896630229,1.3781425636522382,3.1399366007090075,6.784890442254677
1570179575069201.0,9.22886215147495,5.526202966799687,1.6715780863724334,1.32810443052603,1.35399262886039,1.394802091036371,3.178772889569429,6.883385387822579
1570179575090144.0,9.100968308061885,5.426862507590996,1.6516856131983944,1.3424609517995176,1.367437661744025,1.408284277388391,3.2154096459424646,6.992495166662323
1570179575090144.0,8.967963700964711,5.324289019521292,1.6372648578561053,1.3533609258129322,1.3823283519136569,1.4212334980364847,3.243696264540495,7.101099250414313
1570179575092141.0,8.834843727138423,5.221631041736508,1.6244358229258415,1.3610998338897944,1.3942915317231617,1.4317811428929612,3.266856691257444,7.210409671095122
1570179575092141.0,8.711127120297528,5.120766876164411,1.6088224782598515,1.3671021645638166,1.403825044813571,1.4408422485725914,3.289872579742972,7.316388334684279
1570179575104113.0,8.595576064276495,5.024285785689889,1.5931062026416543,1.3749809879589232,1.4114903232339822,1.4461978931587067,3.2929301256655927,7.415008567074112
1570179575104113.0,8.484540328755314,4.931689792718845,1.579807192322881,1.3835585723341162,1.4195845805401393,1.4492757958183453,3.265484846093819,7.495907394915911
1570179575113084.0,8.37666462403784,4.841948263196922,1.5664656832475632,1.390662854686042,1.4269935196473325,1.4492956272744932,3.231016687354911,7.581097280457448
1570179575113084.0,8.261150908713008,4.746134093440542,1.5516643276466808,1.3968892317749926,1.4364456700067663,1.449525505782037,3.2085243388993794,7.6775695750270465
1570179575128045.0,8.125053069099584,4.641807324016791,1.5387668467867903,1.405327879691773,1.4468410876515492,1.4509239374180587,3.1931452699470966,7.792152209257153
1570179575128045.0,7.971656690924186,4.537341573298932,1.5301753818508093,1.4130635816149724,1.4569894057768018,1.4537122094409383,3.1750127879141403,7.909912589693658
1570179575129134.0,7.813484073304574,4.442897120557812,1.5243598143278798,1.4185578546318776,1.465026133768794,1.4560740019768845,3.1479369196766824,8.028965899194263
1570179575129134.0,7.660602542110782,4.357930451735777,1.5213427361669662,1.422939593973735,1.4735717539017563,1.4617625801646126,3.1185277774440125,8.150294932175898
1570179575149988.0,7.514414433389697,4.278417370700158,1.5214001538222328,1.4269059975894973,1.4798189103314114,1.4662113329696467,3.093661442838547,8.272192885752078
1570179575149988.0,7.363769665402087,4.197894017744155,1.5199483820879691,1.4260345819095588,1.4832082571297875,1.4655663117274946,3.0767574536590097,8.373296198609664
1570179575151979.0,7.2105216313465,4.122901169571335,1.5129480573927905,1.4219833472122956,1.4845823783073302,1.4587396021741947,3.063432358241877,8.460199021258248
1570179575151979.0,7.067918278746315,4.058314228906309,1.5034498095560773,1.4183554490461436,1.4881871317856832,1.4486913190390132,3.0516207846652885,8.548428084674658
1570179575163998.0,6.941718718597694,4.005442927159175,1.4939646346475952,1.416787138633161,1.4918036779027999,1.434872656636202,3.044743801231578,8.654694759708754
1570179575163998.0,6.826315788129668,3.9608912832509624,1.4823519633922964,1.4162430010529519,1.496209641945748,1.4219361011885732,3.0434194461414497,8.767570231673982
1570179575172925.0,6.723400168271377,3.931259765420637,1.4693052259886563,1.4178393963148852,1.5012973465797623,1.4104692080500667,3.042917991231945,8.88927778789977
1570179575172925.0,6.6342199111532745,3.9163383785171417,1.4587388838904587,1.4188154245493996,1.507946941234789,1.400467970052295,3.0435586221558735,9.01933402996021
1570179575187891.0,6.556149336283802,3.914383650729688,1.4507767806626617,1.4151558886257447,1.5133349772626374,1.3872029774636188,3.035281267188088,9.156702455284616
1570179575187891.0,6.479130009682605,3.9198243953010357,1.4431076293208416,1.4059319683217024,1.5185274542806375,1.3694515279560027,3.004650837367004,9.28359059698198
1570179575188882.0,6.40562555508487,3.934716371720902,1.4340070849133717,1.3935018559797583,1.522646415673161,1.3505405418010301,2.9612359089893734,9.408633793208315
1570179575188882.0,6.3484237498819995,3.9585218336809525,1.4249124173667134,1.3798906691584012,1.5270999167467636,1.3346729981202414,2.9223415027895667,9.544649206802946
1570179575209825.0,6.30616547762748,3.9939269491071845,1.41638139351116,1.369079547161036,1.5309920974073716,1.3208918582877403,2.8861571574900604,9.693916783916105
1570179575209825.0,6.268408364443756,4.0342443316864625,1.406679845489364,1.3594816317446452,1.5365101129607,1.30930922390097,2.8481766590645767,9.847049287524664
1570179575217803.0,6.2350653501672735,4.078167560674315,1.3984503401360093,1.350951418818132,1.5419520200495775,1.2958213386764608,2.8120657481014275,10.001945470872295
1570179575217803.0,6.2028922253274645,4.1205932428704655,1.3950730830583091,1.3447428657373328,1.5466968161112067,1.282539169328835,2.7787079677174886,10.149143659664754
1570179575224120.0,6.178701393455414,4.16683752560215,1.3953245502636578,1.340573843789688,1.5483027172291854,1.2697571283227205,2.7467811382397023,10.310462102830032
1570179575224120.0,6.169781550283827,4.21993875038215,1.3956362603505839,1.33582396385586,1.5487483332149934,1.2562735785545736,2.7195420024551162,10.495076391269603
1570179575232812.0,6.17885707827464,4.288011572166371,1.3923684821233295,1.3306936544700236,1.5484104400450323,1.2410214526167187,2.6962371102691556,10.707728687212155
1570179575232812.0,6.204167623011798,4.368786283266511,1.3856430895740088,1.3268657503295487,1.5488212136324935,1.2275743310932006,2.677252820825416,10.94230326553182
1570179575247726.0,6.246663210064161,4.463015582942654,1.3776539028730292,1.325030335883227,1.5483422337853676,1.2164793597183488,2.6628815064284765,11.198291371539556
1570179575247726.0,6.300957933988237,4.562208965633318,1.368293540443677,1.3225757782467988,1.5478345890352707,1.2091765256337421,2.6532854867033837,11.463399518842381
1570179575249720.0,6.3586361172614305,4.667256882052382,1.3579556472095737,1.3205495567270256,1.5448179266283981,1.2031747427621446,2.6465655357902063,11.67559262803267
1570179575249720.0,6.4149230228909575,4.7769026700525075,1.3486370211622534,1.3192171250175855,1.5400314929690877,1.200254767671126,2.6410299282557426,11.762770117867653
1570179575269665.0,6.484456927868901,4.89432941471958,1.3398649970028471,1.318899623163477,1.5345298124553564,1.200889653418614,2.6329575738033624,11.76603840375953
1570179575269665.0,6.57135411849143,5.0150229809414615,1.3309922049133913,1.3188173311173206,1.5324031540190193,1.2063832109288428,2.6185714478744773,11.765972270760306
1570179575277648.0,6.671476276762555,5.142570601061169,1.3234339795197176,1.3182275757050224,1.531991518084667,1.2143147728362929,2.6006854399012465,11.79877717950103
1570179575277648.0,6.780682227579382,5.273359951592618,1.3191484635100577,1.3149906140464056,1.5325910937634177,1.2228750046607515,2.58876616837836,11.860275080946483
1570179575283627.0,6.90193261517473,5.410797565093454,1.3185888538364376,1.310366712722465,1.5323974999718497,1.2266538230814397,2.582835836556307,11.929440143122221
1570179575283627.0,7.032111108834908,5.5513172186033195,1.3214661160015908,1.3049474331569162,1.5324472011061967,1.2290572763965864,2.5799900436069354,11.965054406008704
1570179575293601.0,7.175499634230204,5.698470428656168,1.3274726436943154,1.300323883076874,1.5332915373602267,1.2341831119741462,2.576394602514196,11.934453793662918
1570179575293601.0,7.333088957072787,5.849629451630679,1.3364147087258993,1.2963973137478382,1.538737959102772,1.2444746794145616,2.5703230731030606,11.846018887152828
1570179575307566.0,7.507156708693817,6.007802412646181,1.3478325377123523,1.2916555570709245,1.5467383730609423,1.2561449229330912,2.5627786621428537,11.725822700240982
1570179575307566.0,7.695041279364797,6.167735995929204,1.360372608724256,1.2865705923468487,1.5562502363758595,1.268878833136365,2.5565961252410343,11.586526402140837
1570179575309566.0,7.898070418007125,6.331780649693165,1.3723719533502463,1.2845585701412638,1.5651269522508062,1.28182777731687,2.5522511139404944,11.436758005914177
1570179575309566.0,8.112290345843805,6.49697290288384,1.3850534165729633,1.28531095814296,1.5737031274317774,1.2970854153278604,2.554405324737065,11.276874060677697
1570179575330502.0,8.337109164316713,6.662496124710713,1.4012639871305996,1.2889675136846828,1.5810099073193473,1.3125336913676406,2.561774749581649,11.10944626959348
1570179575330502.0,8.561699075617302,6.806770658506426,1.4207729647528025,1.2944891226913693,1.58933263608075,1.3282061332951611,2.5708443193954436,10.958034479536497
1570179575331498.0,8.784420231297615,6.923126205725369,1.4421471395559888,1.30086179635284,1.59682466249418,1.341179815560124,2.579158500252958,10.829147009831926
1570179575331498.0,9.00155430662341,7.025880622659536,1.4648559162681993,1.3047636079534701,1.6046159618975038,1.3538730454751344,2.5871285216230504,10.707209858493083
1570179575343468.0,9.213410139143388,7.134985366585256,1.4855416926149854,1.3071733544336548,1.609980372631927,1.3654362510269957,2.5946437761378864,10.572986468444794
1570179575343468.0,9.42731978446891,7.250770906507991,1.5043334076452337,1.3108681411167706,1.61447698222902,1.3760632743417507,2.6061911726201417,10.419978521097887
1570179575352445.0,9.64232398978335,7.3684913158549366,1.5250837888436686,1.3173758619780347,1.6197472267991393,1.383898343062453,2.6231171003660414,10.255011759199945
1570179575352445.0,9.835781909000678,7.4692157442117555,1.5450450701524818,1.3244286635910898,1.627149744294451,1.3905560167961684,2.6464224641621312,10.094944702287972
1570179575367496.0,9.998414608742703,7.542696436957706,1.5617388212764158,1.3314626316823128,1.6336688013089213,1.3938035119095131,2.671989602493735,9.931476811152242
1570179575367496.0,10.132522489431311,7.592862707335174,1.578300441363625,1.3357171728811994,1.6377972903036675,1.3950014416214471,2.6974284862577727,9.75465945048192
1570179575369397.0,10.257448085148733,7.64324785865817,1.5951807025021976,1.3358874371628044,1.6401601966660002,1.3945928112805213,2.7221254827409083,9.571895520522807
1570179575369397.0,10.387774020119938,7.703418540933692,1.613627018048291,1.333625395731844,1.6460127895856425,1.3955619871484852,2.75105249265848,9.392398625581702
1570179575390340.0,10.515705309857012,7.767799055575205,1.6341346858815033,1.3313936713129444,1.6525563400883887,1.3960084989863348,2.785490969005346,9.203096385871067
1570179575390340.0,10.620753511149534,7.8204289825837305,1.6527175495522504,1.3296427454164945,1.6585241010824883,1.3975840043740333,2.827998100371276,9.010697265560905
1570179575391338.0,10.713283575211708,7.8640709699122056,1.6663839776833,1.3302262547916348,1.6620689306941425,1.3994738382768808,2.877628351734399,8.818745641578952
1570179575391338.0,10.804015265586905,7.908532994612288,1.6746648889667592,1.329842428763581,1.6631985280426822,1.4019772390111112,2.9310087521508352,8.62384813420707
1570179575403305.0,10.888654249278375,7.955224322463339,1.678986846894121,1.3283779604958226,1.662245458628037,1.4053020395933564,2.9839681605049226,8.42832884572636
1570179575403305.0,10.942060535170707,7.976927487672073,1.682798794523595,1.3295713351299865,1.6626081558741166,1.411473487328997,3.0398020079101142,8.25285063443127
1570179575412347.0,10.93461240834772,7.95695143192051,1.6868943566930013,1.3341180116810778,1.6628702613754396,1.416165790403678,3.093098793270506,8.091875784389565
1570179575412347.0,10.887389741592422,7.918511352039528,1.6880090102811809,1.3368067543517537,1.6630915098150312,1.4184814322553234,3.14301011922901,7.9324723280159315
1570179575427447.0,10.829425655896191,7.8906061414414985,1.6862273967044021,1.3365539808528057,1.663127115053007,1.4174164948534902,3.1899869416899604,7.777080011701279
1570179575427447.0,10.754683428124546,7.879451894081333,1.688280832609896,1.3346583503117655,1.6675336605310223,1.4160524093984097,3.2347441643604964,7.640040167268904
1570179575441410.0,10.677236727470788,7.891328865211229,1.696025713516582,1.3328974233863837,1.6748052799992872,1.4149875336750863,3.2786522953362107,7.5151864603704315
1570179575441410.0,10.611502171334875,7.926184563746937,1.7075847813529441,1.3328646634308225,1.683092318094594,1.4156565980059252,3.3224315193777705,7.3962683561048665
1570179575450385.0,10.569625012662753,7.981927756389574,1.7224380153664252,1.3360993144840057,1.6895915307264988,1.415431077656804,3.3513890520719833,7.27709605950548
1570179575450385.0,10.559677803788047,8.047497919779707,1.7391115194730755,1.3395019554389094,1.6951889106328974,1.4150132118103198,3.363127913617091,7.169154348106032
1570179575451741.0,10.577054411949327,8.113768730314106,1.7565115736606336,1.3436223295808207,1.698276862009002,1.4135273935964543,3.374463918875168,7.068589437164696
1570179575451741.0,10.617660888450883,8.182651310669941,1.7732720921498801,1.3508638021539565,1.700586974668113,1.4127560715090193,3.395945247721236,6.973593172985637
1570179575472583.0,10.678543133625277,8.253064228223545,1.7855800199533378,1.3614631645257982,1.7029202953866045,1.4139183287424875,3.425081551722507,6.8888358738160225
1570179575472583.0,10.751439048566152,8.315972789226855,1.7921150431821273,1.3725002686918644,1.7075954076119464,1.4201622296190644,3.4625012887064868,6.819726108946603
1570179575474518.0,10.81714468477192,8.365981758705649,1.7947711301092324,1.3837392206645571,1.7124225287038908,1.4286066698033477,3.5028472789712652,6.754854108148061
1570179575474518.0,10.852019012372743,8.395077252110834,1.7947626045789424,1.3938290317216093,1.7160437036134333,1.4373900750558903,3.5450505430600323,6.686952861792506
1570179575486483.0,10.868546171097291,8.4197338914128,1.7929648979790125,1.403715387660414,1.717461990186097,1.4456750197387473,3.5896809734512694,6.612628832824023
1570179575486483.0,10.901454214195654,8.462369454084204,1.7882568098498073,1.4126592545052723,1.7200615858868096,1.4575871702078325,3.6327404731845734,6.539973373361943
1570179575494875.0,10.951835935061263,8.510967911911306,1.7804172027501541,1.4207663833151607,1.724027462115155,1.4712558694745277,3.669188166415997,6.473572135210938
1570179575494875.0,11.00497900008303,8.550189445319218,1.773660305942286,1.43055222406392,1.7307802014966616,1.4853032332725984,3.704081524503819,6.422791687681938
1570179575510627.0,11.047702976694458,8.577934643865003,1.7697692975009112,1.4414458824246217,1.7364867987756607,1.4964520049523262,3.7351265879851105,6.3913367522478355
1570179575510627.0,11.032099906415295,8.564709207478487,1.7659356537989976,1.444820408560235,1.7356087334512686,1.502515698798802,3.7539889198412024,6.365983320134596
1570179575512220.0,10.93338804531279,8.486247447428159,1.7582364619451334,1.4391802867751322,1.728256887274455,1.5019494732897891,3.7594795566239614,6.318407985288843
1570179575512220.0,10.799884109174316,8.36435339827942,1.7433405479846502,1.4290081008494924,1.7225963069965815,1.5015204100643351,3.764309365477578,6.263317850224382
1570179575532733.0,10.670107456612232,8.224957884092293,1.7192639206782203,1.4142081534869992,1.7161690487477546,1.5043431203234907,3.7603879193442507,6.211087802722706
1570179575532733.0,10.533671482201596,8.081728637160264,1.6888841588164967,1.394351462255683,1.710199330163541,1.5080171080128255,3.7262535027675545,6.154044061983245
1570179575534505.0,10.376694955768704,7.9370365440185475,1.6580080977076201,1.3739816870570511,1.707079338047871,1.5058965381817844,3.6666749279109703,6.101200289378849
1570179575534505.0,10.21552506146894,7.796149696613254,1.6308940035940096,1.3540792868289344,1.7054750843581667,1.4979512403161783,3.607724946487584,6.06656599830725
1570179575547464.0,10.068193775184627,7.66322314858616,1.6086127691347543,1.3358811275291087,1.7025926855375058,1.4854755454523174,3.558346261831388,6.046049157031539
1570179575547464.0,9.932765906115948,7.543568415912621,1.5886293223691996,1.320674489418718,1.6989374293105282,1.4724051292903126,3.513455932466071,6.039445150203724
1570179575549460.0,9.793739011303536,7.434524929600789,1.5689693477168205,1.3092502245326891,1.6908333622770129,1.4579508981800762,3.470764291301846,6.046457783726636
1570179575549460.0,9.645355333089269,7.3263795584584654,1.5496178804554912,1.300816221599114,1.6806290356068843,1.4411032641670933,3.435561104118964,6.071529932408897
1570179575570443.0,9.477167457043265,7.203754911881743,1.5295592392595452,1.2952738437104632,1.669600102592195,1.4218920710834944,3.4083800912134894,6.099012746756044
1570179575570443.0,9.285466476494015,7.0700488303079,1.5099819870680808,1.2898691573997147,1.6612543593599876,1.4043925256341512,3.3865916386104935,6.107138123740263
1570179575571544.0,9.083029365865466,6.935607245452902,1.4925492316183544,1.2835497811809027,1.6580439618081138,1.3900705283603119,3.3730183071978384,6.10378422124001
1570179575571544.0,8.880976885632853,6.805771140366063,1.4759966851872552,1.2773199878830968,1.66072016061321,1.3799197575853626,3.372207302156285,6.105528482942013
1570179575592900.0,8.687064241427786,6.682753206744898,1.4593416205227734,1.27249311205666,1.6660503759956524,1.3725691429895175,3.3794403476760078,6.112848811572318
1570179575592900.0,8.516644232296443,6.575116927386847,1.4426813492523072,1.2695723251076456,1.6730468341256812,1.3684407239016352,3.3905216739749218,6.135140724200168
1570179575594436.0,8.370155409107948,6.478977465688345,1.427006162616862,1.2695290422665724,1.6792728827495806,1.366167081520484,3.407168155837147,6.172309814940385
1570179575594436.0,8.237407411001119,6.38941511642416,1.4131436009922993,1.271524799355156,1.687189537445911,1.3648401756178834,3.4300456781450364,6.206445603847551
1570179575607347.0,8.113280498095614,6.3062278361565856,1.4008404136157364,1.2754443846237926,1.696207475420205,1.3594676959007623,3.453413816370962,6.219099413223335
1570179575607347.0,7.997397361888863,6.228825421450519,1.388963540949656,1.2781855120318821,1.7048827874205752,1.3482683829494004,3.4784712768499317,6.201796762929168
1570179575613648.0,7.873849717806137,6.133207173064292,1.376687053308751,1.275513634086761,1.7111393851391352,1.3326791607274444,3.5053481459603013,6.156735088933311
1570179575613648.0,7.739292299047154,6.011302953561538,1.3660665915848085,1.2655100903598213,1.7159347976247277,1.3155077869459062,3.5174224108087477,6.10933024581225
1570179575630283.0,7.5935083503227805,5.874614329545613,1.3564678402666426,1.2505336764052228,1.7190985300420007,1.2970574388085354,3.506161103519417,6.072144703198293
1570179575630283.0,7.447388040046292,5.741621870315566,1.3441158853431858,1.2326069269638975,1.724318566867341,1.2799122837774588,3.4866328609454316,6.041917749151922
1570179575631480.0,7.306799122554973,5.612410875790133,1.3307988210286272,1.2150907119090033,1.7305893558977612,1.263708661852976,3.4674267856178775,6.020690150562479
1570179575631480.0,7.160157835268958,5.480608284346134,1.3202926707712956,1.199183064543174,1.7373309626677627,1.2479564041016769,3.4530034885101095,6.011032756888847
1570179575652227.0,6.996551887413959,5.339982813522759,1.312083414720305,1.1860940203370967,1.7412052083924126,1.232239033195517,3.439969621896631,6.007470795440704
1570179575652227.0,6.826392436974782,5.199396943906072,1.3060449619915677,1.1770149451945284,1.743209945231923,1.2189481825011466,3.424072228571398,6.005623219812684
1570179575654219.0,6.660053590580804,5.058227969880221,1.3006988348966775,1.1715696213066384,1.74337470695874,1.2055117247221103,3.40627301033345,6.005252626906018
1570179575654219.0,6.503341887956016,4.91575844684436,1.293501836618534,1.1681654848212215,1.7438342345783746,1.190222490620536,3.389169810332823,6.016021148673641
1570179575667321.0,6.34930798306637,4.769859765812792,1.2871367518441001,1.1668391193285972,1.7457083696872242,1.1742785931808,3.377206653402833,6.039968994758978
1570179575667321.0,6.1973361105551215,4.629493857929168,1.2840107663617293,1.1648483848601472,1.7497718021369428,1.1611458372336803,3.371291696875845,6.073928539233639
1570179575673306.0,6.047466618802366,4.49571484408399,1.2816179908360075,1.1612407226906216,1.7526576853212261,1.149443036880934,3.3721448576138755,6.11462676231906
1570179575673306.0,5.907322260655139,4.371990891554673,1.2796336464504283,1.157047462222995,1.7542651493716155,1.1401147360528732,3.38468615814149,6.15477600107389
1570179575690264.0,5.777897646784509,4.250814742377449,1.2810411624463538,1.1534893756469178,1.7542740582729406,1.1328807277495534,3.407416122171302,6.187814229761557
1570179575690264.0,5.658772462832978,4.132412326446929,1.2858383509609697,1.1498958951375093,1.7556970394659088,1.127320378568993,3.4353453716809366,6.218153615150924
1570179575692254.0,5.543419919848164,4.017940986259167,1.2905870990348947,1.1456968819743565,1.7585866722222339,1.1229474288036538,3.466485373239514,6.239758064694376
1570179575692254.0,5.420558432215133,3.91333495277284,1.294094079959838,1.1409485747838857,1.763183643942719,1.1221157136104087,3.504458518909427,6.2486324047248685
1570179575712204.0,5.2814119295171125,3.8118140958663496,1.2987896296769021,1.1378794939668675,1.7664495183490758,1.1217103053115496,3.5338861505833825,6.255885515056261
1570179575712204.0,5.138961968043189,3.7135632048975173,1.3059164255151483,1.1353048324851307,1.7684884665138387,1.1199929963772361,3.540370079704358,6.267475905583384
1570179575720220.0,5.002337412821033,3.618199601177632,1.312832074497434,1.1315944799439828,1.769795007476607,1.115798049035806,3.5363691874721783,6.277518290320253
1570179575720220.0,4.869899308795695,3.5288473413057346,1.3180461348144925,1.1257716661762476,1.7721994979697082,1.110908879894679,3.527258729880289,6.273554724941134
1570179575727162.0,4.729681316261248,3.436472619469477,1.3217670477925156,1.1185133934228062,1.772090694540844,1.1066425743103738,3.5090392538782322,6.25863721447998
1570179575727162.0,4.587349437898186,3.3436200596349037,1.3232159059045188,1.109759514594004,1.7694605560409955,1.1042686378044306,3.4882128193248287,6.254379627916799
1570179575734781.0,4.447247394585002,3.250508303307788,1.3231002502495814,1.1019549073420252,1.7655860936294918,1.1020784405581427,3.4709683673435454,6.2538357612748365
1570179575734781.0,4.313735659780118,3.160285890847773,1.3243346798732911,1.093777975325431,1.7630862424764864,1.1034565912613583,3.458959524226807,6.238453939416786
1570179575750100.0,4.1870343684658575,3.071539265281897,1.3258771060163723,1.0832827637993188,1.760269452523147,1.1079749319173726,3.450766590164941,6.210332932762976
1570179575750100.0,4.0664886323749005,2.989149837936506,1.3250361836450137,1.0730282324074734,1.7591768634591638,1.1144355855758525,3.4493905648486454,6.173846012159812
1570179575752183.0,3.948025926485011,2.9093736765677294,1.3225661531315973,1.0657319117183284,1.7595921763172095,1.118657608116013,3.4520080612941495,6.1304052262312645
1570179575752183.0,3.836369298174608,2.8331021847537676,1.3205322075288974,1.0602837599954396,1.7606091665352102,1.1212941609193545,3.449076408171661,6.091344999280349
1570179575772504.0,3.7313317253744103,2.755440773733922,1.3192499736863088,1.0565820109477304,1.762325668480437,1.1240268630360633,3.438125525158568,6.062445196130109
1570179575772504.0,3.633120470075922,2.6799274780058773,1.3164359659089004,1.05161460906877,1.7681172522544242,1.128595461010804,3.424533094421924,6.043162604068603
1570179575779024.0,3.5366353656563216,2.605300589350718,1.310768527895633,1.0436442336960576,1.775106776465513,1.1302991271366383,3.4129341792495094,6.026027541229273
1570179575779024.0,3.4442924810134086,2.5368713665223153,1.3040384841965427,1.0335592216879796,1.7825158052452037,1.1304778592529308,3.407223539106982,6.0063559600289524
1570179575787000.0,3.3560139893137024,2.4716771240775235,1.2991923069092906,1.025232625276784,1.7902730455510676,1.1316229000629086,3.4079215158286633,5.986765139698585
1570179575787000.0,3.27183728591644,2.4102310266773257,1.2973607899004733,1.0193993795663032,1.7990167121658884,1.135828960850669,3.4140639075149006,5.977102732630884
1570179575793983.0,3.189483113195201,2.349465554859375,1.29676709047579,1.0161043139377857,1.8057070268756685,1.141183005479391,3.4243919523270803,5.975522400664819
1570179575793983.0,3.1137697823279864,2.2928892945197306,1.295237983864298,1.0144563894744514,1.812704165925995,1.1484313561859838,3.4371247989455878,5.975029213562853
1570179575809939.0,3.044867452374146,2.2363722506964128,1.2902617474095062,1.0139159896574548,1.8207348271079078,1.1546282851035994,3.452094661661993,5.964067857984818
1570179575809939.0,2.9814514258148006,2.18276753717529,1.2831977168314568,1.0145505991920247,1.8303537564735224,1.1589656210897563,3.4567703247825188,5.936037277313019
1570179575811937.0,2.9184563353484383,2.130861410689648,1.2780815243591732,1.0184152575265528,1.8392352414540567,1.1624779848817164,3.438160975620879,5.908278759983877
1570179575811937.0,2.857289900105169,2.0828897949920897,1.2760362879139797,1.0228842127238182,1.8460467758447991,1.1703386570632528,3.408202663942893,5.883921553732769
1570179575832877.0,2.796366648874986,2.0328140170926092,1.2762116886768093,1.0275719214849968,1.8496029655239954,1.1814309045820104,3.375278846347434,5.840974612198336
1570179575832877.0,2.7412884936845225,1.9842152997773321,1.2759698563066986,1.0344281626413583,1.8546464255357347,1.1958086363980822,3.336092535534361,5.786002728943153
1570179575833876.0,2.696637689336253,1.937520862110984,1.271785155157878,1.044726173815995,1.8623790516977536,1.2100375417634823,3.296204281070243,5.7372021402215845
1570179575833876.0,2.663929882748041,1.891544294416066,1.2641577440079261,1.055317866222146,1.8716075010543594,1.2226716067739662,3.261311341875593,5.6989511070911805
1570179575847065.0,2.6384437406147425,1.8395931225151176,1.2566499270860205,1.0631709250237726,1.8790600480214337,1.232409040735756,3.2294000800601395,5.671865159597637
1570179575847065.0,2.6185198865201538,1.7881076212611153,1.2518103703980437,1.0684479068948671,1.8854429958795647,1.2437426358255332,3.199279363828671,5.662752572049252
1570179575853495.0,2.603517027006586,1.7389407980532523,1.249743516995296,1.0765771402557038,1.8891209472795418,1.2568124430099237,3.171876828109593,5.673673814166759
1570179575853495.0,2.595576109127452,1.6933990275757385,1.2489903186778364,1.0870791468528842,1.8914067128010803,1.2700551541264544,3.1480438580133847,5.7051107397937
1570179575870425.0,2.593260285095049,1.646586519755602,1.2485877885708128,1.0994886900257934,1.8920253877651392,1.2792768356946325,3.12875820943657,5.756887640752059
1570179575870425.0,2.5934403444657987,1.6027561753807762,1.2486218154822208,1.1141079011525818,1.8930150036301898,1.2881108275626392,3.1159162333095964,5.824109903283141
1570179575871422.0,2.5923508075216715,1.5628535362505735,1.2488646917177266,1.1312439031145898,1.895186094108471,1.2976258933270808,3.1105433639953866,5.899742127425956
1570179575871422.0,2.5928285676651814,1.5299649883768036,1.2482366481322607,1.1474024340818147,1.8986238148088896,1.3081416319280743,3.104697536648215,5.975321080247735
1570179575892508.0,2.5848676403923956,1.5008555409753848,1.2462765865777714,1.1625804079627946,1.9013719321187132,1.318320145621218,3.0904207857304646,6.016213292332103
1570179575892508.0,2.559138625760856,1.474926862855961,1.2451294678515916,1.1773081262516685,1.9045871925394857,1.3284177988849897,3.070506363427563,5.998737860524725
1570179575894362.0,2.5278041802161892,1.4464340173571935,1.2437404332710411,1.190940319082393,1.9073861355132706,1.3344996780415264,3.0498271092611855,5.959396206911109
1570179575894362.0,2.5030359388116783,1.4183824231243942,1.2395276096086179,1.2033874759141046,1.910965185126761,1.3387144170521346,3.0312622859215903,5.929160639233248
1570179575907328.0,2.48248971031663,1.392397405084381,1.2330715159782983,1.2181048767960163,1.9120336758167569,1.3417936857181185,3.017785437295763,5.90115273414368
1570179575907328.0,2.4645551350830455,1.371200416066073,1.2236470405746525,1.2325083813508086,1.9107697986568004,1.3440385048081605,3.0113547396234868,5.875432560471952
1570179575913315.0,2.4507760824422284,1.3535718163121568,1.2126131419924189,1.2453035227051155,1.909308495572295,1.34260067754971,3.0109462500772683,5.8566943755930945
1570179575913315.0,2.441882595975359,1.3406519324137518,1.205224161962487,1.2582635501733568,1.9095549332961954,1.338950220240391,3.010585229681084,5.843402739114277
1570179575930452.0,2.433490734280639,1.3298880255861862,1.202887695210703,1.2737212309057422,1.907823023239598,1.3337504535495985,3.0092808054440954,5.83517878566795
1570179575930452.0,2.425512400620945,1.3216932384749815,1.2036422588867952,1.2882912210734958,1.904430535136322,1.3298014360200727,3.011994272182969,5.8353233928264405
1570179575931263.0,2.4196804644374965,1.3133354150851015,1.2062953664390283,1.3004810477782953,1.8989145780741963,1.3253063335234263,3.0196554613536466,5.845666739146358
1570179575931263.0,2.416175437994559,1.3058077526211544,1.2105440927402642,1.3107237507687575,1.891879072790359,1.3219856618760215,3.030311572569109,5.869612020611106
1570179575952758.0,2.4128101637546457,1.2967451472622786,1.2148410344677953,1.3198352185224114,1.8839425714619127,1.3199343851944214,3.042994351323237,5.904467385935765
1570179575952758.0,2.404545643157904,1.286568678177678,1.217261965036945,1.3238957125410085,1.8777059236530862,1.3182652101744228,3.049980849963781,5.925495614778598
1570179575954203.0,2.388135304880476,1.2769558997144133,1.2164473150106034,1.3227931636613939,1.8716945330500676,1.3147975572740869,3.040629083444524,5.902506974421278
1570179575954203.0,2.367531162645099,1.270744154053461,1.2134628892796857,1.3183693276633746,1.8654339036486165,1.312408368428882,3.021646233928506,5.845686980672745
1570179575966171.0,2.347780845719477,1.263508828563437,1.2101196097453208,1.3136030968635743,1.8581703024789729,1.3105119563913896,3.001791005592489,5.787303637754986
1570179575966171.0,2.329933500025252,1.251315725608098,1.204906864472669,1.3100210681549147,1.8522447189597924,1.3103047316427472,2.979935541445042,5.740168862469519
1570179575975146.0,2.3171149328106435,1.2341750138437977,1.1969776130877852,1.3065302354066237,1.8468150842935143,1.311604120737627,2.9560207865199586,5.705256828633872
1570179575975146.0,2.3099753858002763,1.2168848654377182,1.1902331814786182,1.299997394952309,1.8421116938021054,1.3158285145826722,2.928790300471946,5.681269995672699
1570179575989159.0,2.3044707127964705,1.199052410751717,1.1864190680538458,1.2922471455481221,1.8361737008207102,1.3212104164734984,2.9030288659905534,5.661899947722185
1570179575989159.0,2.2984274469019703,1.182233274764709,1.1837598454293115,1.2842503414488662,1.8305342139059508,1.3281871637927851,2.8826967543174637,5.649235589028823
1570179575998089.0,2.2931928809486477,1.16814962724368,1.1815189933135282,1.2749517060530846,1.826675369382008,1.3331980108244588,2.8639458741233312,5.649101298008276
1570179575998089.0,2.2903710251481293,1.1575392120838681,1.1807395860717793,1.2637968122999685,1.8252282572859713,1.3367904570840234,2.845577068220607,5.659878888011687
1570179576020036.0,2.2908401957145563,1.1511386034061897,1.1805880691238253,1.2529953757971883,1.8233730875823184,1.3395581220691182,2.827590475969933,5.676433509948138
1570179576020036.0,2.2897415445270375,1.14934704728346,1.1794690304025133,1.239561503278755,1.8221274562479655,1.3432822737208663,2.8108073444120962,5.695906108569621
1570179576022022.0,2.283870262874348,1.1508839931677606,1.178928493328439,1.225105631217468,1.818696614730491,1.3465891407801442,2.7962700947800556,5.711288269213169
1570179576022022.0,2.27327131624329,1.1546378655881293,1.1790935999472425,1.214065354801641,1.8109898935301272,1.3505716692856389,2.7828599451735423,5.7196563105906435
1570179576026011.0,2.260976498848641,1.1573883595725762,1.177811807606288,1.2068046675340467,1.799920264682388,1.3541506548905626,2.7745352108570733,5.727835705461682
1570179576026011.0,2.2513909462174477,1.1579386644785388,1.174877489268325,1.200131180392559,1.7895364291847158,1.359171900319206,2.774279690967617,5.739948161190476
1570179576034987.0,2.2452192405530216,1.155306412932894,1.1709803999300796,1.1939698384019364,1.7799146750654848,1.3633759095178453,2.7811688860673525,5.755007555823758
1570179576034987.0,2.238485106418264,1.1464213759166368,1.1685884986565918,1.1878859372728834,1.7710152079812176,1.3657439353280538,2.789352202765147,5.773300943620505
1570179576049948.0,2.2291102590724976,1.1338383066429818,1.1684241209047659,1.18231831151468,1.762493015108534,1.3635290336797958,2.782285558211713,5.7714120041390355
1570179576049948.0,2.2164356522786752,1.121461832042612,1.1680042570846518,1.175880739536804,1.7584149692622209,1.3562146701032447,2.7527097682117874,5.729234142512651
1570179576055938.0,2.20607124498313,1.1118005688813564,1.1674459372167911,1.1702400536476119,1.7569455970868433,1.3450715478107529,2.713820744115369,5.675037217021752
1570179576055938.0,2.2019102909523505,1.1064940094955649,1.1689502851091063,1.1676171832949578,1.7544252813326782,1.3350806925301144,2.6772543103897752,5.636866963052502
1570179576072884.0,2.2057068807126727,1.1068903916294268,1.1727267473034955,1.1679236426421924,1.7473621890161775,1.3248275929100637,2.6451701991615786,5.6139823368527155
1570179576072884.0,2.2145534328926466,1.1119696052869303,1.1784177032648697,1.1683777987562824,1.7402394726652062,1.3145904929547447,2.6175252071195882,5.601669449165413
1570179576073913.0,2.227064114024885,1.1210044927643512,1.185661366164191,1.1701870209062055,1.7358091538985763,1.3047202142825347,2.5943904587672644,5.593833813701256
1570179576073913.0,2.242251281147426,1.1318443179916344,1.194210883162708,1.1729234436896088,1.7341730615556619,1.2973932022943928,2.5767194452594766,5.587500439575802
1570179576085893.0,2.261053755419796,1.1439213738015597,1.2035204969154654,1.1747720464047962,1.7322020127849436,1.2892989693042183,2.565535527714332,5.586567679043947
1570179576085893.0,2.277413813533293,1.1532194761318892,1.212120868871203,1.1747278313117775,1.7300861790275652,1.2795647335657323,2.559805146802834,5.5920548184752725
1570179576094874.0,2.2899944065025606,1.160630225422896,1.218470979060658,1.1765483615911088,1.728721360494829,1.2694743020112003,2.5584510390018154,5.603014686749819
1570179576094874.0,2.301386805336678,1.1672516669597046,1.2233576796878252,1.1815922849564922,1.7306698789588466,1.2617601589675487,2.5614474589027694,5.623371613198045
1570179576109790.0,2.312166506393709,1.1738904376024057,1.2261773837158727,1.1900386392529976,1.7345657314767653,1.2561507926001754,2.5676420606695203,5.656077090552617
1570179576109790.0,2.3157627949838773,1.1788202977708198,1.2248236212425943,1.1996823634163947,1.7410825946884088,1.2548511536500837,2.5751015945819273,5.68898573992963
1570179576115771.0,2.309544638173133,1.1856873510072328,1.2216625645732448,1.2072217889645005,1.7493842650768663,1.255044833117529,2.5838198110040813,5.706737296663426
1570179576115771.0,2.2963941988798973,1.1943949415300676,1.2215070050533112,1.209639056524585,1.7589877104055414,1.254792831981407,2.597891626028997,5.717510943322134
1570179576133135.0,2.288893958055483,1.2044901259693912,1.2234850578902523,1.2085129473280376,1.7678893902574055,1.2534741058291954,2.6208912620363263,5.74114133953689
1570179576133135.0,2.2899473189492388,1.2125774983585182,1.2229468442517604,1.2055180949334379,1.7763640317361789,1.253899630101747,2.650361783573831,5.773259319209484
1570179576133724.0,2.2990884040270423,1.2196902847349722,1.2190986341323826,1.203879457602466,1.7841787929801969,1.2530481081929545,2.6665166250106904,5.790522294062628
1570179576133724.0,2.314563311888998,1.2254575696770844,1.2152822508682715,1.2015527515062578,1.7941987419948402,1.251283053111337,2.656061229327233,5.7912865301186205
1570179576146758.0,2.3348546291082064,1.2299655819514774,1.2129402480419318,1.1982158067226933,1.8038327033851769,1.2495040502577035,2.634048164268021,5.794347293040922
1570179576146758.0,2.355290612645475,1.2308084180415237,1.2129836237946674,1.1957830204136721,1.812198357646403,1.2507754658503611,2.6128366369029785,5.805499530510953
1570179576161719.0,2.371204365279621,1.232586087468575,1.216401133795498,1.1946754092723573,1.8186784245544778,1.25486500865884,2.5862267854280394,5.814007050722195
1570179576161719.0,2.3761637501983977,1.2362348171570947,1.2216921899573563,1.193472995374267,1.8247649154255952,1.2615781334799563,2.5491994693199835,5.806256676039795
1570179576170625.0,2.376014706806832,1.2432834100545411,1.226413070257612,1.1938051520448574,1.8296855203723426,1.268549919149558,2.510415035951802,5.777137219607142
1570179576170625.0,2.375790007418018,1.2504483801525148,1.2293966005503272,1.1942773239428783,1.8348555935534965,1.276413929925865,2.4766633627350285,5.737089189750276
1570179576171623.0,2.3821037874756588,1.258550525308616,1.2317722076258246,1.1949217871595454,1.839834928875959,1.2814921824213608,2.447875078063531,5.703507070711511
1570179576171623.0,2.392649558342732,1.265937225390626,1.2350439552920538,1.1963017454484903,1.8441644471760843,1.283666114372876,2.425001569935839,5.67861455828002
1570179576192669.0,2.4069298612224554,1.2739597546316652,1.2371699088277115,1.1988292650086259,1.845738670843777,1.284747347564269,2.4058927387358726,5.658261183520627
1570179576192669.0,2.425070702456075,1.2788858969025547,1.237349715283862,1.1991209925124104,1.846355471106529,1.28883205979134,2.3866007260012227,5.643515423966926
1570179576194560.0,2.4466418169331092,1.283179126864267,1.2372552958839778,1.196203135961632,1.8463819510093489,1.292267691953115,2.3681705097713435,5.634224101980397
1570179576194560.0,2.467324250319183,1.2882496267609587,1.2373322215686524,1.1914254109845792,1.8483360170124001,1.292748187295838,2.3556765426008743,5.63346410716469
1570179576206534.0,2.4896242158920954,1.295707780091774,1.23632114241263,1.1884283153852917,1.8519120945627214,1.2899844237784373,2.3498016676797073,5.6382503698865545
1570179576206534.0,2.5114638667132723,1.3027628740656259,1.2344808050753229,1.186025233311631,1.859025243576603,1.2863581088015492,2.3504886777596794,5.639788717012898
1570179576215506.0,2.5344960995728094,1.3123083476598014,1.234357807917847,1.1832953670669413,1.8689290235342715,1.2809715881482473,2.3551408052628955,5.634985354091982
1570179576215506.0,2.559401919495738,1.3215524021862324,1.2367994796496742,1.1818516690042735,1.880486467294605,1.2759975126304177,2.3579792343568924,5.621920666072829
1570179576230523.0,2.5884075947186793,1.3318033475385025,1.2409204422978413,1.184161326395812,1.8916957981351434,1.269699377839958,2.359263233075989,5.600242293706431
1570179576230523.0,2.618371351194407,1.341969674787715,1.2459565257966,1.1878022051844228,1.9052574289741826,1.262853752445564,2.364127783182615,5.585701663896928
1570179576231463.0,2.648875642525517,1.3530363108177614,1.249466421784075,1.1915030480622262,1.9209564047159053,1.25561223935857,2.371641267130706,5.58737964846225
1570179576231463.0,2.675529179102949,1.361173358280027,1.2510728333882422,1.1952935172676564,1.938246694283061,1.2488079989922103,2.37396942463813,5.582926332416771
1570179576252412.0,2.7011991508446527,1.3694527168056365,1.252649122468317,1.1998116959551959,1.9560942689031993,1.2422457474303212,2.367901018374529,5.556955954359239
1570179576252412.0,2.72202443162711,1.3767007744237432,1.2550830168531826,1.2020282822157446,1.9765358841905996,1.2395415119332147,2.3612372855942887,5.53088006751278
1570179576254400.0,2.7344097894059547,1.3815409923972797,1.2593682514378328,1.2027044093504493,1.9980868812843284,1.2383948911624807,2.3592000229655317,5.515695696190834
1570179576254400.0,2.740008178983234,1.3791839831094952,1.2660514378887426,1.2007343405226534,2.020873030117131,1.2369228895808735,2.3613279477921334,5.499805054091213
1570179576266569.0,2.7463711711674956,1.371776123355815,1.2716299102436086,1.1950595421124635,2.043025148009957,1.2308172186671398,2.3610928021742477,5.477862725925938
1570179576266569.0,2.752535945412345,1.3594993062637473,1.2750786607484277,1.18829725696263,2.0642052448550547,1.2228624190483584,2.356678867594656,5.455742273546853
1570179576275346.0,2.761284942680457,1.3482028284421474,1.278465329399581,1.1829722174275497,2.0833434385621286,1.2178015581766908,2.3540169859294418,5.4402694689276165
1570179576275346.0,2.7718233195725333,1.3371824010379738,1.2829606607498707,1.1772240449307783,2.1012933767678446,1.2169868457514543,2.3546609397213243,5.4237957792935925
1570179576297290.0,2.784290111986536,1.329633626559817,1.2898937862200825,1.1736172654349144,2.116212116616547,1.2167209191345698,2.3540771837880055,5.398005641608493
1570179576297290.0,2.7947733351104374,1.3248830099128923,1.2976505578609177,1.1721857208973125,2.129070326042238,1.219273411373078,2.3510876095424704,5.368682527230183
1570179576299282.0,2.8083595386412377,1.3249810487895746,1.304945910366437,1.1721151257594145,2.138816477550668,1.2246337514851036,2.347691156097985,5.346513466527985
1570179576299282.0,2.825497622165857,1.327033750899847,1.3131604073652818,1.1733662222164019,2.147750303158167,1.2327694992727734,2.3471174603351774,5.338699603447924
1570179576312248.0,2.8461259631713665,1.3328744244802706,1.3213990758609353,1.1771496698187969,2.157429176758592,1.241489233493501,2.35046480609306,5.33927924226293
1570179576312248.0,2.867049730062994,1.339783953972272,1.3291574746063337,1.1825792926093965,2.168210653196937,1.2521637542262671,2.355287323390721,5.341309090035796
1570179576314242.0,2.8895280442986366,1.3495010927629085,1.3366860090979003,1.191111379813036,2.1773290798464933,1.2635488915385553,2.354469767632101,5.34668385426597
1570179576314242.0,2.9134584237914414,1.3583425521721029,1.3443711609667106,1.201584756389876,2.1856918743639193,1.277721186652686,2.3496061815045683,5.359398674272811
1570179576326208.0,2.942177033740664,1.3684577721455506,1.35315476844274,1.2125822049824366,2.19270615369595,1.2926575736280057,2.3449899393137774,5.382458634563279
1570179576326208.0,2.9677316570541055,1.3780860841008515,1.3629581561167288,1.2217216184979356,2.1993456944620142,1.3066173534180412,2.3375098739848776,5.400345258221175
1570179576335183.0,2.9832291162906905,1.3908886645573448,1.3718460743273064,1.2297057664891349,2.2046921831941915,1.3166738791507948,2.324640125850867,5.38766686799801
1570179576335183.0,2.9881390918119126,1.4042120501649826,1.378444490592918,1.2362166082159496,2.20938284819292,1.3250739334774044,2.31139542618367,5.350035965944892
1570179576349145.0,2.9907422146523857,1.4193880958436569,1.3828542049844403,1.2421295405628954,2.2117307824596186,1.3326016532374398,2.3008764122586784,5.304665038825276
1570179576349145.0,2.9925296317821943,1.434557919751818,1.3858386630816824,1.2463877083835193,2.2136301622758814,1.3420803131188657,2.2919941915378454,5.2505446683309
1570179576358123.0,2.9981060236915598,1.4524275963519795,1.388006356294613,1.2481664401297528,2.2163801193449073,1.3520466207250255,2.2827590715475092,5.1898535423944985
1570179576358123.0,3.006572059008554,1.4689626546247956,1.3910428335774827,1.2483061135924298,2.2198504914006905,1.362622865581085,2.2771968596009144,5.132523022127845
1570179576373082.0,3.021122164924669,1.487064280587568,1.396309035223418,1.250738289685023,2.219975841020734,1.3702145268337285,2.278261698914995,5.077357219626328
1570179576373082.0,3.03979133222654,1.5057427148541314,1.4034436082840782,1.2544121499392835,2.217338327408772,1.3756614835342658,2.285461021081587,5.024338858366919
1570179576374080.0,3.0630503394385538,1.5283750424273184,1.4107273597806131,1.2604886615349422,2.213220757630918,1.3788239028152829,2.2949954086054754,4.981192721414547
1570179576374080.0,3.088039189343567,1.5501115717169596,1.4177711625185645,1.2693224006208008,2.2096792899947166,1.3825242668673403,2.307716787757191,4.950179476104344
1570179576395024.0,3.115498280828737,1.5714816737042807,1.4247619113372063,1.2801200665605423,2.207193545290248,1.3861663409738125,2.3222410505659496,4.925190154795348
1570179576395024.0,3.1410984216929885,1.591820082819104,1.432063546350092,1.2912501550756312,2.2074669922483117,1.3876887377875258,2.334525980606634,4.8991553719401955
1570179576397032.0,3.163787844645185,1.6168112591966894,1.4403625243229279,1.3032378873368642,2.205809097734163,1.3847980340683779,2.345681964529271,4.869996729287089
1570179576397032.0,3.1802179257734093,1.6432606938931908,1.4488252037876554,1.314285077189164,2.199977799640494,1.3836327860225113,2.361623726007067,4.84164417146923
1570179576409982.0,3.1927434523472877,1.6722985388548655,1.4566588582592879,1.3253287801182836,2.1923089853961417,1.3864918827137653,2.383853834241091,4.818210696057931
1570179576409982.0,3.202080791012182,1.6994925257082525,1.4639375327893875,1.3373897235901615,2.1879377632007193,1.3937590202597405,2.4130360803802584,4.802602774993605
1570179576411978.0,3.2103249227926054,1.7268276973582155,1.46981561618465,1.3523207194093803,2.18478320267357,1.4015379833162658,2.4465229224772367,4.800980811943161
1570179576411978.0,3.215081709306808,1.7504860871562296,1.4752517077957747,1.3685799346596401,2.1802017463211842,1.4092242499923235,2.4825959063416247,4.814512539177513
1570179576432920.0,3.221973699935665,1.7727544746290254,1.4805950914299157,1.3847010238214577,2.172569710276532,1.4151318493582272,2.51767020978995,4.8358620952463305
1570179576432920.0,3.2303919187355237,1.7925459094789822,1.4848786277875465,1.3983477518444702,2.1647624282149174,1.4201524663066911,2.552762490780274,4.850479890670013
