timestamp,emg1,emg2,emg3,emg4,emg5,emg6,emg7,emg8
1573315978148460,-10,-4,5,2,0,-2,2,2
1573315978148460,5,6,-1,-6,-1,-2,-4,-9
1573315978163099,8,7,3,0,0,0,0,3
1573315978163099,-3,-14,-20,-6,-4,-2,-3,-4
1573315978169930,9,7,8,4,1,0,-1,-1
1573315978169930,-10,-9,1,9,4,2,-1,-1
1573315978185545,2,2,3,-1,-1,0,0,0
1573315978185545,8,6,5,-1,-1,-2,-1,5
1573315978187498,-2,-4,-8,-8,-3,0,1,-3
1573315978187498,-1,-2,-7,-3,-3,-1,0,-1
1573315978200188,-13,0,6,3,1,0,-1,1
1573315978200188,-4,-6,2,3,0,-2,0,3
1573315978208972,17,6,-6,-3,0,0,1,9
1573315978208972,9,-3,2,-4,-4,-3,0,2
1573315978222638,4,-5,-6,-6,-1,-1,1,5
1573315978222638,-8,0,5,3,2,-1,-2,-4
1573315978237275,-7,-1,-3,-1,-1,0,-1,-5
1573315978237275,-5,3,9,6,2,1,-3,-8
1573315978253867,14,4,-3,-2,-2,1,-1,5
1573315978253867,-7,-5,2,2,0,-2,-2,-1
1573315978254843,3,9,-3,-1,-3,-1,-1,-6
1573315978254843,-5,-16,-17,-12,-9,-4,1,1
1573315978268507,-18,0,6,2,3,-3,-1,-6
1573315978268507,11,6,7,4,3,4,2,2
1573315978270459,-5,-4,-2,2,1,-1,-1,0
1573315978270459,6,6,5,2,0,0,-1,5
1573315978283146,15,-5,-6,-8,-6,-1,0,4
1573315978283146,-6,2,1,1,2,0,0,0
1573315978289977,18,17,5,-1,3,2,2,8
1573315978289977,15,4,2,-4,-2,0,-1,0
1573315978305593,-6,1,4,3,-1,-1,0,-3
1573315978305593,1,-13,-5,-4,-3,-1,-1,-12
1573315978307545,2,-1,-2,-2,-1,0,4,22
1573315978307545,1,-4,-4,4,3,1,0,-1
1573315978328040,1,1,-5,-1,-2,-1,-1,-4
1573315978328040,-5,5,-2,0,-2,-2,0,-2
1573315978329993,5,-4,-1,1,-1,0,-1,-8
1573315978329993,-7,-1,4,-4,-4,0,2,4
1573315978342689,-6,1,1,0,1,1,-1,-1
1573315978342689,2,9,16,4,3,-1,1,5
1573315978349516,-21,-20,-16,0,2,-1,-5,-12
1573315978349516,-5,3,-2,-1,-2,0,-1,0
1573315978366109,-19,-8,-9,-5,-3,-2,-2,-9
1573315978366109,20,11,6,1,2,-2,-2,0
1573315978368059,2,2,3,-4,-4,-1,0,0
1573315978368059,-21,-10,-2,4,4,-1,-4,-5
1573315978396361,-10,7,2,-1,-1,0,-1,-1
1573315978396361,-6,-4,0,0,-2,0,0,1
1573315978397338,-1,-3,-1,-3,-2,-1,0,-1
1573315978397338,4,-2,-3,-2,-5,-4,-2,-3
1573315978403197,3,1,8,1,1,1,1,4
1573315978403197,-1,7,2,6,2,0,-2,1
1573315978410026,3,3,0,-4,-2,-1,-1,-1
1573315978410026,-1,4,6,-1,-1,-2,0,-2
1573315978425641,-11,-26,0,4,2,-1,-2,-5
1573315978425641,6,13,-12,-8,-5,-3,-3,0
1573315978427593,-8,-10,-2,-4,0,1,-2,-3
1573315978427593,6,10,-8,-1,0,0,-2,-1
1573315978448089,3,1,9,1,0,0,0,-1
1573315978448089,1,-8,-10,3,1,2,1,3
1573315978450041,0,-2,7,2,2,-1,1,-1
1573315978450041,-1,-3,-19,-11,-5,0,0,0
1573315978462733,10,16,20,6,1,-2,-1,2
1573315978462733,-5,5,10,3,-1,0,0,0
1573315978469568,0,-8,-5,0,-1,-1,1,-2
1573315978469568,-3,-11,0,1,-1,-1,-1,-6
1573315978486155,3,-3,-17,-9,-1,0,0,1
1573315978486155,2,7,1,-3,-4,-2,1,-2
1573315978488107,-14,-19,-2,7,1,-2,0,3
1573315978488107,0,11,1,0,1,0,-3,-1
1573315978516408,2,-4,-7,-1,1,-2,-2,-2
1573315978516408,-9,-8,-2,-2,0,1,-1,-2
1573315978517589,5,14,6,-1,-5,-2,0,1
1573315978517589,-6,-15,-2,-4,-4,-1,1,-2
1573315978522414,6,19,6,4,4,1,0,-1
1573315978522414,-4,-1,0,2,3,1,1,6
1573315978531198,-2,-8,-11,-8,-5,-1,-2,-4
1573315978531198,9,13,9,1,3,-3,-1,3
1573315978545843,-2,-5,-13,-11,-5,2,2,-2
1573315978545843,10,-2,-3,-6,-1,-3,-1,3
1573315978547791,-7,5,10,9,4,0,-4,-13
1573315978547791,-8,1,2,7,-1,0,-3,-11
1573315978568291,7,-8,-1,-2,2,0,-2,3
1573315978568291,-10,-17,-12,-12,-9,0,0,0
1573315978570240,3,-3,-18,-9,-5,-3,-1,1
1573315978570240,16,35,19,6,5,1,-1,3
1573315978581953,-17,-13,-3,3,-3,-4,1,-4
1573315978581953,-5,-10,-2,-3,-1,-1,-1,-1
1573315978598544,14,16,-8,0,10,0,-2,-1
1573315978598544,-8,-30,3,6,-22,-4,5,14
1573315978606350,3,2,-10,-5,5,-2,-5,-7
1573315978606350,9,14,24,14,10,4,2,1
1573315978607328,-7,-13,5,-5,6,7,0,0
1573315978607328,19,34,-7,-7,-17,-9,-1,4
1573315978628735,-3,-15,3,10,24,6,7,23
1573315978628735,-14,-4,-2,-2,-20,3,0,-11
1573315978629708,11,10,-7,1,6,-1,1,0
1573315978629708,-11,7,19,15,2,3,-2,-5
1573315978642399,-8,-8,0,-4,10,1,-4,-16
1573315978642399,-14,-14,-4,-4,20,8,-1,-1
1573315978651178,11,-2,-13,-10,-12,-4,4,9
1573315978651178,9,-21,-19,-6,3,4,4,14
1573315978664842,-7,34,9,6,-19,-7,-10,-23
1573315978664842,1,-11,8,6,7,-2,-2,-6
1573315978673625,4,26,8,2,-6,-2,1,-4
1573315978673625,-18,-64,-22,-8,16,5,1,-4
1573315978688266,6,19,11,7,6,2,0,8
1573315978688266,14,8,-22,-8,-25,-9,-3,-4
1573315978690217,-8,-14,3,0,1,1,0,7
1573315978690217,-10,11,14,1,-30,-4,-2,-10
1573315978701930,5,-10,-13,-8,61,11,2,6
1573315978701930,-7,-11,-9,-3,-19,-7,-1,-4
1573315978710713,-1,14,12,9,-10,-7,-6,1
1573315978710713,-10,1,-7,-6,3,1,-4,-7
1573315978726329,4,-10,-10,-9,-23,-5,-3,-3
1573315978726329,-4,1,3,-2,-14,-3,5,10
1573315978727306,-8,-14,6,2,13,-1,-3,-13
1573315978727306,6,11,-1,-4,4,-6,-3,-5
1573315978748777,-4,-13,8,1,-21,-1,5,9
1573315978748777,2,3,-7,-7,16,1,-2,7
1573315978749753,-4,-10,4,10,-2,2,-2,-4
1573315978749753,1,18,-10,-10,-3,-4,-2,-6
1573315978762441,-7,-4,2,-2,-11,-3,1,7
1573315978762441,0,-3,4,8,0,-1,-6,-10
1573315978771226,-6,-7,1,-2,25,4,1,-2
1573315978771226,-11,-12,-16,-6,-10,-1,2,7
1573315978784890,0,11,0,8,-1,-6,-3,-11
1573315978784890,3,16,3,-2,-23,-7,-2,3
1573315978793674,4,1,8,7,17,7,1,7
1573315978793674,4,-10,3,-1,12,3,2,1
1573315978808313,-7,-9,-16,-14,-17,0,3,4
1573315978808313,5,4,1,4,4,-3,-2,5
1573315978810266,-3,6,-3,1,-14,-7,-5,-8
1573315978810266,-1,-7,8,5,15,1,0,4
1573315978821977,3,-4,-5,-12,-22,-3,-2,-3
1573315978821977,8,6,-4,2,13,-1,2,21
1573315978830761,0,0,4,-5,-18,0,1,-6
1573315978830761,-2,2,-3,0,17,-3,-4,-5
1573315978845401,5,3,7,11,-1,2,1,9
1573315978845401,-4,-8,-3,-5,6,1,0,-6
1573315978848329,-3,-9,-16,-7,-8,-3,2,7
1573315978848329,2,3,5,0,-5,-1,-3,-5
1573315978869801,5,1,-4,-3,-6,-3,-3,1
1573315978869801,1,4,3,-1,8,2,-1,-7
1573315978873705,-14,-11,-2,-6,-16,-4,-1,-5
1573315978873705,-3,7,-4,-3,1,2,1,-10
1573315978882490,12,-5,-4,0,-2,-3,-2,-8
1573315978882490,5,11,9,16,17,5,2,-6
1573315978891273,0,10,17,2,0,1,-3,-3
1573315978891273,-2,3,20,1,4,-2,-1,-3
1573315978905912,-7,-1,0,4,15,-1,1,-1
1573315978905912,-4,-23,-10,-10,-8,-2,2,0
1573315978907865,2,1,-17,-5,-2,0,3,3
1573315978907865,12,17,0,6,5,-1,-5,-4
1573315978928361,-1,1,1,-9,-20,-4,-2,-4
1573315978928361,-3,-2,2,-1,0,-1,-2,-5
1573315978930314,1,3,-6,4,20,5,3,4
1573315978930314,6,-10,-11,-9,-15,-2,8,16
1573315978942024,-4,3,10,9,0,1,-1,-3
1573315978942024,4,5,-1,4,7,0,-4,0
1573315978950808,-8,0,8,6,22,2,-2,-13
1573315978950808,-10,-3,2,4,-5,2,-1,-2
1573315978965449,2,-9,-15,-8,-4,-1,1,0
1573315978965449,0,6,-4,1,-7,-6,-5,-5
1573315978967402,-4,1,-2,-23,-31,-8,-1,2
1573315978967402,2,-6,-3,-1,16,3,-2,-3
1573315978988872,-8,0,-4,-3,-10,-3,-1,-2
1573315978988872,7,8,8,6,14,5,3,5
1573315978989848,3,-10,3,6,-22,-3,0,-2
1573315978989848,12,16,1,7,29,2,-3,0
1573315979001561,0,-7,-10,-8,-18,3,1,-7
1573315979001561,-9,-3,10,14,20,0,0,-10
1573315979011330,7,8,5,-3,2,9,4,13
1573315979011330,1,-6,1,-5,0,-9,-3,-1
1573315979025962,-5,0,-1,0,-28,-4,-3,-1
1573315979025962,-1,-8,-16,-15,29,4,0,2
1573315979027912,0,-5,-7,2,-15,-1,0,-4
1573315979027912,-1,1,4,4,-1,0,0,6
1573315979048409,11,12,7,4,8,3,2,2
1573315979048409,-2,-6,-2,-8,-15,-2,0,4
1573315979050361,-2,-1,-7,-2,-21,-7,-1,0
1573315979050361,-5,-9,-7,-8,-3,1,2,5
1573315979062072,2,6,16,15,32,4,-1,2
1573315979062072,1,-6,-1,-4,-17,-1,1,1
1573315979070856,14,11,-12,-1,14,-1,-3,4
1573315979070856,-3,-2,5,0,-18,1,-2,-4
1573315979085496,12,5,-16,-8,6,-3,-2,-4
1573315979085496,-14,-3,31,7,-1,1,2,-9
1573315979092328,-2,-9,-4,0,7,1,1,12
1573315979092328,-3,0,5,2,-5,0,-2,-5
1573315979107945,-15,-13,-15,-7,-2,-4,-4,-3
1573315979107945,-5,-4,-8,-3,-4,0,1,-4
1573315979109896,10,7,-2,-4,-2,-3,-1,1
1573315979109896,1,10,0,3,-1,1,3,4
1573315979122584,-3,-3,6,5,5,1,-3,-3
1573315979122584,4,-8,-8,0,-9,0,2,12
1573315979131368,-5,-2,5,0,6,-3,-6,-21
1573315979131368,1,-12,-9,-4,-4,-1,0,1
1573315979145033,6,7,2,0,3,0,3,9
1573315979145033,0,2,-5,-7,-8,-3,-2,1
1573315979151864,-15,-9,-5,-2,1,0,0,-3
1573315979151864,5,-3,-3,-2,-4,-1,3,10
1573315979168455,-14,0,2,-2,-2,-2,-3,-5
1573315979168455,8,4,-7,-5,-6,-3,0,-1
1573315979170408,4,-11,-13,-9,-3,-4,1,1
1573315979170408,5,10,17,11,8,4,-3,2
1573315979190903,7,6,9,3,3,2,3,6
1573315979190903,-8,6,3,1,0,-1,1,3
1573315979192856,-2,-1,5,0,3,1,-1,-8
1573315979192856,-8,-14,-6,-6,-8,-2,2,12
1573315979205544,10,-2,5,3,4,3,6,21
1573315979205544,-1,14,-15,-11,-8,-6,-10,-16
1573315979212376,3,-14,0,-2,-2,-4,-2,1
1573315979212376,-18,5,1,0,-1,1,1,-9
1573315979227992,18,-7,-9,-5,-1,-2,3,12
1573315979227992,-3,-1,8,1,-2,2,5,8
1573315979229945,-35,-13,-11,-6,-2,-2,-7,-19
1573315979229945,32,16,5,4,2,2,3,9
1573315979251415,-26,-3,-4,-2,-2,-1,-1,-6
1573315979251415,9,6,-4,-9,-7,-8,-8,-11
1573315979252392,2,2,10,12,8,7,4,15
1573315979252392,-20,-3,13,9,5,4,5,-2
1573315979265119,-26,-28,-7,1,1,1,2,7
1573315979265119,47,22,-5,-2,-2,-3,-3,-6
1573315979271956,7,6,9,2,3,0,-3,-2
1573315979271956,-17,6,-15,-9,-8,-5,-3,0
1573315979288503,34,-12,1,-4,-5,0,-1,3
1573315979288503,-23,-12,4,8,1,2,2,1
1573315979290458,-19,-27,-8,-8,1,-3,-3,-4
1573315979290458,-11,-13,6,2,4,1,1,1
1573315979310993,7,45,4,1,-1,-3,-8,-17
1573315979310993,-2,-32,-4,-2,-4,-2,1,16
1573315979312904,15,41,8,6,6,1,2,-3
1573315979312904,36,29,-4,-5,-15,-5,-3,-4
1573315979325632,-25,-37,-3,1,11,5,4,-8
1573315979325632,59,46,19,11,4,4,3,5
1573315979332426,-45,-73,-24,-14,-7,-6,-7,1
1573315979332426,-24,-5,2,-3,-7,0,-3,-8
1573315979348039,-8,23,-3,-1,-2,-3,-3,-9
1573315979348039,22,2,8,3,-4,4,-4,-3
1573315979349992,7,5,14,7,10,4,9,12
1573315979349992,-26,-23,-13,-1,4,-1,-5,-16
1573315979371465,73,60,3,-11,-15,-6,-2,2
1573315979371465,-111,-83,-18,-2,5,-5,-8,-15
1573315979372443,61,45,13,7,-4,2,3,8
1573315979372443,23,31,14,2,10,6,1,8
1573315979385134,-25,-47,4,6,-4,4,4,5
1573315979385134,-14,-36,-24,-18,-2,-8,-6,-8
1573315979391962,20,45,-18,-15,-14,-5,-4,-7
1573315979391962,52,6,15,12,14,6,8,7
1573315979408612,-24,-23,-10,-3,-2,0,3,8
1573315979408612,40,85,6,0,-6,-4,-10,-20
1573315979410506,6,-7,7,7,1,1,-1,0
1573315979410506,-11,-33,-6,-1,0,-4,-2,-17
1573315979431077,19,43,-2,-4,0,-1,-2,-4
1573315979431077,-1,0,9,5,-3,4,9,15
1573315979432955,-31,-17,3,4,8,-1,-2,-2
1573315979432955,38,31,13,4,6,2,6,17
1573315979444743,-12,-36,8,5,2,1,3,2
1573315979444743,-23,0,-12,-5,1,0,-2,-5
1573315979453454,38,58,2,-7,-8,-4,-2,5
1573315979453454,-26,-55,-3,2,-3,0,0,8
1573315979468138,-72,16,-22,-6,-4,-12,-19,-34
1573315979468138,-54,-73,-4,-11,-16,-3,1,-1
1573315979470043,-58,-55,-13,5,28,0,-3,-17
1573315979470043,35,55,-19,-20,-24,-8,-7,-14
1573315979491513,43,68,34,17,18,5,9,15
1573315979491513,-23,-17,-28,-17,-15,-6,-4,-3
1573315979492491,-8,-11,-4,2,-8,3,4,7
1573315979492491,-24,-6,7,-4,5,4,2,6
1573315979505187,65,36,-6,-4,-8,-4,1,11
1573315979505187,-5,10,0,1,2,-1,-6,-8
1573315979513962,-20,-61,17,13,8,6,9,4
1573315979513962,-50,-8,-19,-6,0,-9,-12,-9
1573315979528602,-13,-16,10,7,0,3,1,-8
1573315979528602,41,10,12,2,3,3,10,31
1573315979530554,12,33,2,-6,-10,-6,-21,-57
1573315979530554,2,-22,-7,-1,-4,1,2,26
1573315979551052,3,-20,-7,-1,9,-2,-4,1
1573315979551052,-5,28,8,5,8,-2,-9,-19
1573315979553003,13,30,10,3,4,2,13,51
1573315979553003,17,-4,-7,-7,-35,-12,-8,-7
1573315979564713,25,-5,-1,-5,6,3,4,54
1573315979564713,13,30,-2,-2,7,6,4,7
1573315979573496,-41,-22,-17,-10,-5,-4,-2,-5
1573315979573496,-31,-17,12,12,18,-1,-8,-49
1573315979588223,-16,-7,3,2,-17,2,1,-3
1573315979588223,-7,-1,3,2,1,-1,4,-6
1573315979590090,36,14,-2,-1,-6,0,2,10
1573315979590090,5,16,1,3,0,-2,1,-4
1573315979610587,-8,-20,-3,-4,-1,1,-2,-15
1573315979610587,18,0,10,7,11,3,4,-3
1573315979612540,-15,-20,-9,-5,-2,-4,1,-12
1573315979612540,41,42,5,4,13,3,0,1
1573315979624332,-32,-27,0,1,1,-7,-3,-5
1573315979624332,20,-7,-10,-5,-5,-6,-12,-12
1573315979634010,21,30,8,-1,-2,4,11,37
1573315979634010,-11,-44,-2,3,-1,4,4,-2
1573315979648688,-31,-37,-7,-9,11,1,-1,-5
1573315979648688,-33,14,6,8,13,0,0,-23
1573315979650602,20,-16,-5,-10,-37,-10,-7,-4
1573315979650602,-7,4,-6,-7,-9,0,-2,3
1573315979671098,-26,-13,-6,2,-5,-8,-16,-67
1573315979671098,5,-1,13,9,-3,1,6,30
1573315979673049,-16,13,3,2,12,6,1,-9
1573315979673049,-27,-19,-10,-8,-2,-1,4,23
1573315979684760,16,19,-4,-8,-18,-6,9,38
1573315979684760,2,1,-5,-4,2,0,-3,-15
1573315979693543,2,-14,-4,-3,7,-3,-7,-8
1573315979693543,-2,13,5,8,-2,-2,-3,-7
1573315979709161,2,3,14,11,21,6,7,9
1573315979709161,-2,2,2,-4,-13,-2,2,9
1573315979710135,32,34,6,4,6,0,2,10
1573315979710135,-35,-42,-13,-11,-4,-5,-4,-39
1573315979730631,4,-18,-4,-2,-1,2,3,11
1573315979730631,20,0,-14,-6,1,0,0,6
1573315979732583,-10,12,1,0,-8,-3,-6,-19
1573315979732583,-1,4,8,1,1,-2,-4,-6
1573315979744295,40,27,13,10,4,7,13,48
1573315979744295,14,22,8,1,2,2,2,8
1573315979754055,-23,-26,-16,-4,-2,-1,-4,-9
1573315979754055,7,9,0,-5,1,3,3,12
1573315979768695,15,2,2,0,-11,1,1,16
1573315979768695,3,-10,-1,0,4,-2,3,11
1573315979769671,9,14,4,1,2,4,2,11
1573315979769671,5,-7,-2,3,6,0,3,7
1573315979791143,-14,4,-4,-6,-10,-1,-11,-42
1573315979791143,-2,-4,5,6,-7,2,2,-2
1573315979792120,-6,4,8,10,12,2,0,3
1573315979792120,18,5,-6,-8,-9,-3,-2,-1
1573315979804807,-7,-24,-12,-8,-2,-5,-12,-35
1573315979804807,26,1,-1,1,4,2,2,2
1573315979813591,-29,-30,-7,-6,-9,-4,-6,-30
1573315979813591,-22,11,2,0,2,1,0,2
1573315979828231,-11,-2,-11,-5,-1,-4,-5,-12
1573315979828231,0,-11,4,2,5,2,-3,-3
1573315979830184,15,10,10,3,-5,-2,2,6
1573315979830184,19,-1,-7,1,5,-1,-1,-6
1573315979851654,-10,-2,-6,-1,-7,-4,-4,-13
1573315979851654,-26,-20,-6,-11,-14,3,0,2
1573315979855559,11,15,-1,0,1,-3,1,8
1573315979855559,-4,-5,1,-1,-2,1,-1,6
1573315979865319,-4,5,3,7,5,3,5,4
1573315979865319,5,2,2,4,3,-3,-13,-43
1573315979873134,-10,-3,1,-2,-8,1,-2,5
1573315979873134,3,3,1,2,2,0,2,6
1573315979888745,-6,-5,1,-1,0,-1,0,7
1573315979888745,10,-4,-8,-3,0,-5,1,1
1573315979889721,11,10,-2,-1,0,-2,-1,-5
1573315979889721,-7,1,-1,-2,-3,-2,-2,-7
1573315979911192,-6,1,5,1,1,2,3,1
1573315979911192,-19,-3,-5,-4,-6,-4,-3,3
1573315979913144,8,-4,5,8,4,3,5,9
1573315979913144,13,-2,-6,-3,2,0,1,9
1573315979924855,-7,-9,-5,-4,-3,-1,-4,-9
1573315979924855,-11,6,4,3,1,-1,-2,-3
1573315979933638,6,-2,-2,-3,0,1,0,-5
1573315979933638,-13,-5,5,4,1,2,2,5
1573315979948285,3,-2,-2,-2,2,1,4,6
1573315979948285,1,-5,-7,-4,1,2,-2,-14
1573315979950236,1,6,8,6,6,4,10,30
1573315979950236,13,7,7,5,-6,-3,2,15
1573315979978537,-3,-3,-4,-6,1,2,5,2
1573315979978537,0,7,2,4,-1,-3,-5,-1
1573315979980489,-3,11,6,-1,-1,-1,-4,-9
1573315979980489,-18,1,1,-1,-3,-5,1,-6
1573315979984394,26,4,-15,-6,-3,2,0,13
1573315979984394,-19,-20,-13,-10,-4,2,7,19
1573315979994153,8,-9,-11,-5,-9,-9,-13,-20
1573315979994153,-18,4,5,3,7,1,-4,-13
1573315980008792,18,11,3,4,3,1,4,27
1573315980008792,-12,-12,-2,-6,-8,5,4,0
1573315980009767,-28,-11,-3,1,-4,-8,-12,-17
1573315980009767,24,3,-1,1,-2,0,0,13
1573315980031242,3,-6,-2,-4,2,-5,-6,-12
1573315980031242,14,10,6,5,7,5,6,20
1573315980032215,-13,-1,-7,-6,-4,1,2,4
1573315980032215,9,-3,-4,-7,-3,2,-2,4
1573315980044902,-22,2,5,1,-2,-5,-7,-29
1573315980044902,9,11,0,2,-4,-4,-3,-15
1573315980053686,11,-6,0,-2,6,3,4,1
1573315980053686,22,-3,-3,3,3,2,1,3
1573315980068327,-19,-4,-2,-9,-9,-3,-4,-13
1573315980068327,12,1,2,0,6,-2,-4,2
1573315980075161,20,-4,-2,3,8,6,5,7
1573315980075161,1,6,1,2,1,1,-3,-4
1573315980090814,1,13,5,0,-4,1,4,12
1573315980090814,9,-18,-10,-4,-3,-7,-6,-8
1573315980092730,-22,-5,-2,-4,-3,0,0,-17
1573315980092730,6,-3,-4,-9,-8,-5,-5,-4
1573315980104532,-5,12,8,11,11,5,8,16
1573315980104532,-29,0,12,18,-1,-6,-5,-3
1573315980113225,2,9,0,-9,1,6,9,5
1573315980113225,-10,-7,-6,-7,0,4,-3,-12
1573315980135673,-12,-3,4,0,1,-4,-3,-9
1573315980135673,-9,2,-1,2,3,2,2,5
1573315980137625,-17,-2,-5,2,-3,-4,-5,3
1573315980137625,6,4,5,4,-1,-3,5,14
1573315980151288,-1,-3,-7,-4,-1,0,-6,6
1573315980151288,3,-7,-7,-8,-9,-2,2,13
1573315980152263,15,-7,2,3,5,-1,-4,-6
1573315980152263,7,9,0,-3,-5,-1,-1,2
1573315980180567,21,4,0,4,4,3,-1,-12
1573315980180567,-10,-3,-2,-1,4,0,3,-1
1573315980182518,13,3,-2,-6,-5,-3,-3,-6
1573315980182518,1,-4,1,1,-8,-3,-2,2
1573315980187397,30,8,0,8,20,4,4,11
1573315980187397,16,5,3,-7,-17,-2,2,11
1573315980196182,3,19,7,8,5,5,-3,8
1573315980196182,-22,-8,-13,-9,-6,-5,-4,-10
1573315980210834,-14,-4,1,0,-4,-3,-2,-5
1573315980210834,29,10,5,5,12,4,2,8
1573315980212777,-22,-10,11,7,2,3,11,14
1573315980212777,-11,4,-5,1,-4,-4,-5,-10
1573315980233280,-20,4,-3,-6,-3,-3,-4,-7
1573315980233280,-17,-10,-3,-4,-2,-3,0,-8
1573315980235232,22,0,-1,1,3,3,-2,-15
1573315980235232,4,-3,-3,2,5,2,4,19
1573315980247995,25,-12,-9,-10,-22,-12,-4,2
1573315980247995,-5,9,0,-6,-3,0,-1,-8
1573315980262551,-12,-12,3,12,0,-7,-7,-17
1573315980262551,-3,9,4,-1,15,8,12,15
1573315980271340,-17,-14,-8,-10,-9,-4,-3,-47
1573315980271340,26,3,3,2,5,4,-2,10
1573315980272312,-3,0,-14,-8,-6,-2,-4,4
1573315980272312,-1,-15,0,3,-1,-1,1,-1
1573315980300654,-7,-12,2,1,-1,2,8,30
1573315980300654,-12,8,2,1,3,-1,-2,-28
1573315980302569,31,28,7,-6,-4,3,2,61
1573315980302569,17,15,2,7,2,-4,-10,9
1573315980308425,-35,-29,-16,-3,0,-2,3,-58
1573315980308425,57,8,2,5,4,3,-10,35
1573315980314281,-11,-3,-11,-8,-4,-5,-11,-37
1573315980314281,10,12,9,-3,0,2,-3,3
1573315980330872,21,12,9,4,1,0,-6,9
1573315980330872,-26,-15,-5,-2,-2,-3,0,-25
1573315980332824,-13,3,4,-2,5,2,6,-13
1573315980332824,0,-9,-2,6,-1,-3,2,-8
1573315980353318,-2,12,4,-2,-13,-2,-2,-8
1573315980353318,8,13,-11,-13,-2,-3,-1,-6
1573315980355270,-15,-28,1,1,0,-2,-4,5
1573315980355270,16,30,5,6,4,-2,-3,-9
1573315980367958,-10,0,7,8,10,5,1,27
1573315980367958,-36,-22,-3,0,0,-2,2,12
1573315980374790,8,-7,-8,-4,-4,-3,0,0
1573315980374790,-19,-17,0,-3,-2,0,3,2
1573315980391381,11,12,1,-2,-3,0,-3,0
1573315980391381,3,2,1,4,-1,2,5,13
1573315980392359,-18,-9,-8,-3,-2,-2,-4,-21
1573315980392359,-32,-11,0,0,2,3,1,-19
1573315980413829,22,12,2,-3,-3,-2,-5,8
1573315980413829,16,-1,-2,-2,-2,-1,5,-1
1573315980414806,35,12,2,5,-3,1,0,31
1573315980414806,-9,-10,-4,-8,-3,-2,-9,-16
1573315980427493,-12,-13,0,-1,0,0,0,1
1573315980427493,-8,20,4,2,-2,0,1,-1
1573315980436277,-36,-8,-2,-4,-6,-5,1,-43
1573315980436277,4,-7,-7,-8,-5,1,5,23
1573315980449967,-5,4,1,4,3,0,-3,1
1573315980449967,-23,-17,-3,0,-3,-3,-7,-32
1573315980458732,-1,6,2,1,0,1,4,9
1573315980458732,16,-3,-6,-5,-8,-2,-4,-13
1573315980473453,4,-7,-3,-3,-2,-3,1,12
1573315980473453,-13,2,-2,-6,0,1,4,17
1573315980475323,-18,1,3,1,0,3,4,-9
1573315980475323,-17,-4,1,2,5,0,-2,-5
1573315980487034,20,3,0,1,-2,-1,1,13
1573315980487034,-3,-1,-1,-3,-2,-4,-4,-4
1573315980495816,-1,0,-1,-1,-1,-1,0,-7
1573315980495816,3,-3,-1,-3,-8,-3,-8,-18
1573315980511431,3,6,2,3,9,5,12,42
1573315980511431,17,3,2,2,-2,0,0,5
1573315980512408,-11,-6,-2,0,5,2,-1,-4
1573315980512408,-17,-4,0,0,-3,4,3,-10
1573315980540711,28,3,-2,-2,0,-1,2,25
1573315980540711,-13,-4,-2,-1,-1,2,3,2
1573315980542661,17,2,2,1,-2,-3,-2,16
1573315980542661,-3,1,-1,0,1,1,2,5
1573315980547542,-19,0,0,-2,-3,0,1,-5
1573315980547542,2,0,0,3,4,2,-1,7
1573315980556326,17,0,-1,-2,-1,0,1,-6
1573315980556326,-2,-12,-8,-5,-1,-4,-9,0
1573315980578774,-38,-1,-1,-4,-6,-4,-8,-32
1573315980578774,-4,3,1,0,-2,-4,-6,-11
1573315980579749,-7,1,-1,0,3,6,1,14
1573315980579749,9,3,2,0,-3,-7,1,-3
1573315980593420,2,-6,-1,0,2,0,-1,-14
1573315980593420,1,0,1,-3,-1,-2,-2,-1
1573315980595366,-10,-4,-4,-3,-2,-1,-3,-13
1573315980595366,-13,-2,0,-1,-1,2,3,-9
1573315980607082,22,1,-1,1,1,-1,-4,-2
1573315980607082,2,3,2,2,1,1,-1,-2
1573315980615864,-8,-5,-4,-3,-3,-2,0,3
1573315980615864,26,2,0,0,0,-2,-2,5
1573315980630506,-17,-5,-2,-3,-4,-2,-4,-43
1573315980630506,-1,-2,0,0,0,-3,0,2
1573315980632455,7,3,-1,0,0,-3,-1,4
1573315980632455,12,-2,0,-1,2,-1,2,13
1573315980653926,-16,2,-1,0,0,0,-6,-18
1573315980653926,-2,-2,-1,-1,-1,0,2,5
1573315980654904,4,2,0,0,0,-2,-9,-25
1573315980654904,-18,-2,-1,-1,-1,0,5,0
1573315980667590,38,6,3,3,3,5,9,75
1573315980667590,-7,-3,-1,0,-1,-1,-1,-8
1573315980676374,1,0,2,0,-2,-2,-1,9
1573315980676374,-2,2,-1,-1,0,0,1,-5
1573315980691016,-34,-7,-3,-3,-3,-4,-9,-33
1573315980691016,-6,0,-1,1,-1,-2,-1,-2
1573315980692965,5,-2,-2,-3,-1,-2,-1,7
1573315980692965,1,4,1,0,0,0,-2,-4
1573315980713461,-3,-2,-1,0,-1,-1,-3,-4
1573315980713461,-19,0,0,0,-1,1,3,-13
1573315980715413,-5,-6,-1,-1,-2,-1,6,25
1573315980715413,2,3,-1,-1,0,0,2,7
1573315980735917,-9,1,0,-2,1,-3,-4,-10
1573315980735917,2,-1,-1,-2,-1,1,0,-1
1573315980737864,6,2,1,1,1,0,0,4
1573315980737864,2,-2,-2,0,0,1,-1,3
1573315980750550,-6,-3,0,1,0,1,1,1
1573315980750550,22,-1,1,-1,1,-1,-5,5
1573315980752502,2,0,-2,-1,-1,1,0,-1
1573315980752502,-1,1,-1,1,0,-1,-2,0
1573315980773977,23,-1,-3,-4,-2,0,-1,0
1573315980773977,-3,-2,-2,-1,0,-2,-1,1
1573315980774952,0,1,-1,2,1,-1,-3,-5
1573315980774952,0,1,2,1,1,-2,-6,-4
1573315980787637,-16,-7,-4,-3,-3,0,8,18
1573315980787637,3,-1,-1,-2,-2,-1,0,0
1573315980796423,-4,0,-2,0,-1,-1,-4,-8
1573315980796423,10,1,0,-1,-1,1,4,19
1573315980811067,-3,-2,0,-2,-3,-3,-5,-16
1573315980811067,3,0,0,-1,-1,0,-3,-3
1573315980813016,-8,-2,-3,-2,-4,-2,4,-7
1573315980813016,-2,-2,-1,1,-1,-1,-4,-12
1573315980833509,-5,-3,-2,0,0,-2,-3,-7
1573315980833509,13,2,-1,0,-1,0,1,4
1573315980835461,9,0,-1,0,-1,-2,-3,3
1573315980835461,-6,-1,-1,-2,-2,0,1,-3
1573315980847492,12,4,-2,2,0,1,0,3
1573315980847492,-11,-2,-2,0,0,0,-3,-3
1573315980856028,-15,-4,0,0,-1,0,4,-21
1573315980856028,10,1,-2,0,0,1,-1,9
1573315980870597,5,2,1,1,1,-2,-2,3
1573315980870597,1,-1,0,-1,1,0,0,-3
1573315980872549,16,5,1,0,0,3,14,49
1573315980872549,-15,-3,-2,-3,-3,0,9,1
1573315980893045,-3,1,-1,-1,-1,-1,0,-13
1573315980893045,-5,-1,-3,1,-1,0,0,6
1573315980894997,8,-1,-1,-3,1,-2,-7,-5
1573315980894997,-6,0,0,1,1,-3,-3,-2
1573315980907742,-3,-3,-1,-1,1,-2,-2,-7
1573315980907742,-11,0,-2,-2,-2,-1,-1,-8
1573315980916473,0,1,1,1,-1,0,-1,-2
1573315980916473,-34,-5,-2,-2,-2,-2,-3,-46
1573315980931342,-4,-6,-2,-1,-3,-2,11,21
1573315980931342,10,1,1,0,-1,-1,-5,1
1573315980932087,2,0,-3,-1,1,-1,-2,3
1573315980932087,-11,-1,-2,0,-2,-2,-5,-12
1573315980953755,-13,-4,-2,-2,-3,-3,-6,-36
1573315980953755,2,1,0,1,2,2,8,37
1573315980955510,-7,-1,-1,-1,0,-1,-6,-14
1573315980955510,3,-3,-2,-3,-2,-3,-4,-12
1573315980967417,-3,2,1,0,1,2,-2,-8
1573315980967417,3,-1,-1,-1,-1,-1,-3,-7
1573315980976014,-11,-3,-1,-2,-2,-2,-4,-9
1573315980976014,10,2,0,0,2,1,0,19
1573315980990645,7,2,2,2,1,2,0,8
1573315980990645,-13,-3,-3,0,-1,-3,-2,-17
1573315980992601,2,0,0,-1,0,-1,-2,2
1573315980992601,2,-1,-1,-1,-2,1,0,9
1573315981014072,-2,0,1,0,-1,-1,-5,-1
1573315981014072,-5,-2,-1,-3,0,1,5,7
1573315981015048,5,-1,1,1,-1,1,-1,-5
1573315981015048,-12,-2,-3,-1,-1,0,5,8
1573315981027737,11,2,-1,-2,0,-2,-6,5
1573315981027737,-2,1,-1,-2,-1,-2,-1,-3
1573315981036517,0,-1,-2,1,1,-1,-1,-3
1573315981036517,-4,-2,0,-2,-2,-1,-1,-4
1573315981050182,-30,-1,2,2,1,0,-1,1
1573315981050182,24,-2,-3,0,-2,-1,-2,-8
1573315981057012,5,1,-3,-2,-2,0,0,5
1573315981057012,7,1,1,0,1,0,1,12
1573315981073666,-1,-1,-2,-1,-1,1,2,4
1573315981073666,-11,-1,0,1,0,-2,-8,-33
1573315981075560,-2,-1,-1,-2,-2,0,-1,6
1573315981075560,8,-1,-1,0,-3,0,0,1
1573315981096053,-1,-1,-2,-2,-2,-2,-3,-10
1573315981096053,0,-3,0,-1,-2,0,1,13
1573315981098004,5,1,2,0,0,-3,-7,-9
1573315981098004,-4,-3,-2,0,-1,-1,-2,4
1573315981110697,16,2,0,-3,1,2,2,12
1573315981110697,-9,-1,0,1,0,-1,-3,-8
1573315981112647,-8,-1,-2,0,-1,1,6,0
1573315981112647,9,1,0,0,0,-3,-2,8
1573315981133223,2,0,0,2,-1,0,-2,-4
1573315981133223,-1,0,0,1,0,0,-7,-5
1573315981135096,18,1,-2,-2,-1,0,-1,7
1573315981135096,6,1,1,0,2,0,-3,-2
1573315981156572,-5,-1,-2,0,0,-2,-2,-4
1573315981156572,-12,0,0,-2,0,1,1,-2
