timestamp,emg1,emg2,emg3,emg4,emg5,emg6,emg7,emg8
1570179572860115,3,-2,-1,-2,0,0,0,6
1570179572860115,0,-1,0,-2,-2,0,-1,-5
1570179572861231,3,-2,-3,-3,-2,-2,2,9
1570179572861231,-3,1,0,0,0,-1,-2,3
1570179572863099,0,-1,-1,0,-2,-3,-1,1
1570179572863099,-1,-1,-3,-1,-2,0,-1,-1
1570179572863099,1,0,0,-1,0,1,-1,0
1570179572863099,-10,-3,-3,-2,-1,1,5,-38
1570179572873185,3,2,0,-1,0,-1,-1,11
1570179572873185,0,-1,0,0,-1,-1,-1,4
1570179572876598,-3,-3,1,-1,0,0,-1,-9
1570179572876598,3,-2,-3,-2,-1,-1,-1,3
1570179572892037,-2,2,1,1,-1,0,0,-4
1570179572892037,1,1,-1,1,0,-1,0,1
1570179572900052,-1,-1,-3,-2,0,0,-2,4
1570179572900052,0,0,2,1,-2,-1,-2,8
1570179572907988,-1,-2,-2,-1,-2,-2,-1,0
1570179572907988,-1,-1,-2,-2,1,-1,-2,9
1570179572929928,-2,1,1,1,0,-1,-2,-3
1570179572929928,2,-2,0,-1,1,-1,-5,11
1570179572969887,1,-1,-1,-1,0,-1,1,0
1570179572969887,-1,0,0,-1,-2,-1,0,1
1570179572970834,0,0,-2,-2,0,-1,5,-5
1570179572970834,-1,-1,-1,-1,-2,-1,2,-1
1570179572974802,-3,0,0,0,1,-1,0,-8
1570179572974802,1,0,-1,-1,-2,-1,-2,3
1570179572974802,-2,1,0,-2,0,0,1,3
1570179572974802,-5,-2,0,-3,1,-1,-1,-12
1570179572981927,6,2,0,2,0,0,0,15
1570179572981927,-3,-1,-2,1,-2,1,3,-7
1570179572990759,-2,-2,-1,-1,0,1,3,-4
1570179572990759,0,1,1,2,1,1,1,1
1570179573005020,0,-1,1,-2,0,-2,1,-2
1570179573005020,0,-2,1,-2,0,0,-1,2
1570179573011887,0,-2,-2,-1,-1,-1,-2,-6
1570179573011887,0,0,-1,0,0,-1,-1,-1
1570179573018899,1,-2,-1,-1,-2,1,-11,3
1570179573018899,1,1,-1,1,1,0,2,4
1570179573042069,-2,1,2,0,0,-1,-3,-1
1570179573042069,1,-1,-1,0,-1,-2,-3,4
1570179573042624,-6,-2,-2,-1,-1,-1,2,-12
1570179573042624,-3,-2,-2,-3,0,0,0,-8
1570179573057418,0,-1,0,1,-2,1,-6,-4
1570179573057418,3,4,2,2,1,0,0,5
1570179573057580,0,-2,-4,-2,-3,0,2,11
1570179573057580,-2,1,2,1,0,-1,-3,-3
1570179573079649,-3,-2,-2,0,1,-1,-1,-5
1570179573079649,0,0,1,0,-1,-4,-8,-4
1570179573080563,2,3,1,0,1,2,3,12
1570179573080563,-6,-3,-2,-4,-1,0,9,-19
1570179573102463,-5,-1,0,0,-1,-1,4,-11
1570179573102463,1,-2,-3,-1,-3,2,3,3
1570179573102682,-2,0,-1,-2,-1,-2,-3,-1
1570179573102682,1,-1,0,0,-2,-1,-2,4
1570179573117540,0,1,-1,0,0,-1,1,6
1570179573117540,-3,0,-1,0,-1,0,-4,-3
1570179573118152,0,0,2,-1,0,0,4,-7
1570179573118152,2,0,0,-2,-1,0,-2,6
1570179573139544,-2,-2,-1,-2,-1,0,-2,1
1570179573139544,7,2,0,-1,0,1,0,36
1570179573140366,-3,-2,-2,0,-2,-1,-4,6
1570179573140366,2,1,1,0,2,0,0,9
1570179573162299,-2,0,0,-1,-1,0,-2,-2
1570179573162299,-2,-3,-3,-1,-2,-2,0,-19
1570179573163298,-4,-2,-1,-2,-1,-2,-3,-30
1570179573163298,-1,1,0,1,-3,0,-4,-1
1570179573177260,-2,-1,-3,0,-1,-2,-2,-14
1570179573177260,-5,-3,-1,-3,-2,-3,-2,-11
1570179573177260,-4,-1,-1,-1,-1,-1,2,-12
1570179573177260,2,-2,-1,-2,0,0,3,7
1570179573200199,2,-1,-2,0,-2,-1,-2,12
1570179573200199,-1,-1,-2,1,0,-1,-1,0
1570179573200199,-1,-1,-2,-1,1,-1,-1,-10
1570179573200199,-1,-3,-1,-1,-1,-3,-4,-6
1570179573222188,1,0,0,1,0,0,-1,7
1570179573222188,0,0,-1,0,-2,-3,2,-5
1570179573223139,0,0,0,0,-3,-1,-1,2
1570179573223139,-1,-1,-3,-2,1,-1,-1,-5
1570179573245277,3,0,0,0,0,-1,-3,4
1570179573245277,0,0,-1,-2,0,0,-1,8
1570179573246078,2,2,2,2,-1,0,-6,-6
1570179573246078,-1,0,-2,1,-1,-1,0,3
1570179573260038,0,-3,-1,1,0,1,3,2
1570179573260038,-7,-2,-1,-1,-1,0,12,-27
1570179573274175,3,-2,-2,-2,-2,-1,1,14
1570179573274175,-2,-1,0,-1,-1,-1,-2,-7
1570179573283204,0,1,2,-1,-2,-3,-6,-1
1570179573283204,0,-1,0,-3,0,0,3,7
1570179573284248,-6,-3,-2,-3,-2,-2,0,-3
1570179573284248,-2,-1,0,-1,0,-1,-4,-11
1570179573297025,-1,-1,-2,2,0,0,2,1
1570179573297025,-1,1,0,0,1,0,-6,-1
1570179573297938,-2,0,-1,0,-2,-2,-2,3
1570179573297938,-1,1,-1,-1,0,-1,-5,2
1570179573319884,0,2,1,0,-2,2,-1,-2
1570179573319884,-3,-2,-1,-2,-1,0,-2,-2
1570179573320118,7,0,1,0,0,-1,3,14
1570179573320118,1,-2,-1,-1,-1,0,1,0
1570179573342021,1,-1,-2,-1,-2,0,0,4
1570179573342021,1,-2,-2,0,0,-2,-1,1
1570179573342820,3,3,1,2,2,0,6,21
1570179573342820,2,2,1,1,-1,-3,-19,5
1570179573356910,1,1,0,-3,-1,-1,2,7
1570179573356910,-2,1,-1,-1,-1,-1,-4,-5
1570179573357786,-1,0,-2,-2,-1,0,-1,-7
1570179573357786,-4,-2,2,-1,1,1,5,-9
1570179573379768,3,1,1,1,1,-6,-8,-8
1570179573379768,-2,-1,-1,-3,-2,1,5,5
1570179573386701,2,1,-1,1,1,-1,-8,3
1570179573386701,-3,-2,-2,-2,-1,1,2,-4
1570179573401894,-5,-1,-1,-1,-1,-1,-2,-7
1570179573401894,1,1,0,-1,0,0,-1,-4
1570179573402757,-1,-1,-2,-2,0,0,1,-13
1570179573402757,-1,-1,-1,-1,-1,-1,2,1
1570179573416624,-2,-1,0,-2,-1,0,-3,-11
1570179573416624,1,0,-1,-1,0,0,-2,1
1570179573424882,-3,-2,0,-1,0,-1,0,1
1570179573424882,0,0,-1,0,-2,-1,-3,-1
1570179573447645,1,-1,-1,-1,-2,0,4,1
1570179573447645,0,0,-1,0,0,-1,-6,8
1570179573448537,-5,-2,0,-2,-1,0,4,-3
1570179573448537,1,0,-2,-1,-1,-2,2,-9
1570179573461498,-1,-2,-2,-2,-1,1,4,8
1570179573461498,0,0,0,-1,-1,0,-2,-1
1570179573462562,-4,-2,0,0,-2,-1,-3,-6
1570179573462562,0,1,2,1,1,-4,-3,1
1570179573477506,0,0,0,-3,1,0,2,5
1570179573477506,3,0,0,1,-2,-2,-1,-11
1570179573477978,-2,0,-2,-1,0,1,-1,-2
1570179573477978,0,-1,-1,0,0,0,3,6
1570179573499399,-4,-3,-1,-3,-1,3,0,-19
1570179573499399,6,3,2,3,2,-1,-8,16
1570179573500398,4,-1,0,-2,0,0,-1,1
1570179573500398,3,0,-1,-1,-1,-3,0,11
1570179573522337,2,1,0,0,0,-2,-1,4
1570179573522337,-5,-2,-2,-1,-1,0,1,-3
1570179573522337,-2,-2,0,-1,0,-2,-3,-6
1570179573522337,-2,1,-1,0,1,0,0,-1
1570179573537362,5,-1,-1,1,0,-4,-17,20
1570179573537362,-3,-1,-2,-1,-3,-2,2,-7
1570179573538296,-1,-1,-2,-1,0,-1,0,-4
1570179573538296,1,0,-1,-1,-2,0,4,7
1570179573559275,-5,-1,-1,0,-2,0,1,-19
1570179573559275,-2,-5,0,-1,-1,-2,-3,-3
1570179573560237,-1,1,0,2,-1,0,0,-1
1570179573560237,-3,-1,-4,-1,0,0,1,-3
1570179573582225,-2,0,-1,1,-1,-1,1,1
1570179573582225,-3,0,0,-2,1,0,1,-2
1570179573583182,-5,0,-2,-1,-1,-1,0,-8
1570179573583182,0,0,-1,-1,-2,1,-1,-1
1570179573596146,0,-2,-4,-3,-1,-1,3,2
1570179573596146,-2,-1,-1,-1,0,-1,-1,-1
1570179573604221,0,1,0,0,1,0,-2,1
1570179573604221,0,0,0,-2,0,-2,-1,0
1570179573619178,3,-1,1,1,0,0,1,3
1570179573619178,-6,-2,-1,0,-3,0,2,-8
1570179573620076,9,2,0,0,1,-1,-8,15
1570179573620076,-3,-1,-1,-2,-3,0,2,2
1570179573642017,2,-1,-1,-1,0,-1,-5,1
1570179573642017,0,-2,0,0,0,-1,0,0
1570179573643132,-2,-1,1,0,0,1,4,3
1570179573643132,0,-2,-1,-2,-2,0,-4,2
1570179573656044,-4,-1,-1,-1,-1,0,1,-3
1570179573656044,2,1,0,-1,0,-1,-3,-9
1570179573663974,-5,0,-3,-3,0,-1,0,-9
1570179573663974,1,1,0,-1,0,-2,2,-2
1570179573679925,-3,-2,-2,-1,-1,2,4,-1
1570179573679925,-1,0,0,-1,-3,-1,-4,-4
1570179573679925,-1,-2,-1,-1,-1,0,2,-5
1570179573679925,-3,-2,-1,0,-1,1,0,-1
1570179573701910,-3,-1,1,-1,-1,-3,-2,-2
1570179573701910,1,-1,-1,0,-2,0,-2,7
1570179573702857,-2,-1,-1,0,-2,-1,0,-1
1570179573702857,-2,0,-1,0,0,0,-2,3
1570179573716818,-1,-1,-1,0,1,1,11,-6
1570179573716818,-3,0,-1,-1,-1,-1,2,-2
1570179573724796,-2,-2,0,0,-1,-2,-1,-6
1570179573724796,0,0,0,1,1,-1,-2,2
1570179573739804,-1,1,1,0,-1,-1,-7,4
1570179573739804,3,-1,-2,0,-1,0,-5,-5
1570179573739804,-1,-2,0,0,-2,0,4,9
1570179573739804,2,-1,-1,-3,1,2,0,2
1570179573761698,-6,-2,-2,-2,1,-1,-1,-11
1570179573761698,6,-2,-1,0,-1,1,2,9
1570179573762740,0,0,1,0,0,0,-5,1
1570179573762740,-1,-1,0,0,-1,0,-1,-9
1570179573777654,0,-1,0,0,-2,0,1,3
1570179573777654,-4,0,0,0,2,0,0,3
1570179573784672,-1,-2,-2,0,0,0,3,-7
1570179573784672,-4,-1,-1,0,-2,1,14,-12
1570179573800037,3,-1,-1,-2,-1,-2,-4,6
1570179573800037,-1,0,-1,-1,-1,0,5,4
1570179573800594,-2,-1,1,-2,-1,-1,0,-1
1570179573800594,-1,0,-1,-2,0,1,-1,-2
1570179573822580,1,-1,0,-1,-2,1,3,2
1570179573822580,0,-2,-2,-2,-1,0,-1,-1
1570179573837497,0,0,-1,0,0,-1,0,2
1570179573837497,-1,-1,1,0,-1,-3,-8,-7
1570179573839490,5,3,1,0,-1,0,-6,15
1570179573839490,-1,-1,-1,1,0,1,2,0
1570179573844806,0,0,0,0,-1,1,-2,-2
1570179573844806,1,0,-1,0,1,1,1,1
1570179573859445,-1,-3,-1,-1,0,-1,0,1
1570179573859445,-1,-3,0,-2,-1,0,1,-2
1570179573860434,0,-1,-1,-1,-1,0,-3,3
1570179573860434,-5,0,0,-2,-2,-1,11,-14
1570179573882375,-1,1,0,-1,-1,-1,-1,-5
1570179573882375,-1,-3,3,1,0,-1,0,-3
1570179573889637,-3,-1,-3,-2,-1,-1,4,-1
1570179573889637,1,0,-1,-1,-1,-2,-2,2
1570179573896554,-2,-1,-2,-1,1,0,3,-4
1570179573896554,-1,0,-1,-1,0,0,-4,-4
1570179573904606,0,1,1,0,-1,1,1,3
1570179573904606,6,-1,-2,0,-1,-3,-5,11
1570179573919275,1,0,-1,0,-1,0,2,16
1570179573919275,-1,0,-1,0,0,-2,-1,3
1570179573920338,-1,-2,0,-3,-1,-1,-1,-1
1570179573920338,-2,0,1,1,-1,1,-5,-1
1570179573942266,-1,-2,0,0,-1,-1,-1,-4
1570179573942266,0,-1,-3,-3,-2,2,2,-4
1570179573949489,-1,-1,-2,-1,-1,-1,5,-6
1570179573949489,-4,-1,-1,-1,-1,-2,-6,1
1570179573965365,-2,-1,0,-1,-1,-1,-2,-9
1570179573965365,-4,-1,0,0,-1,-1,-1,-3
1570179573966168,0,-2,-2,1,0,0,-1,-2
1570179573966168,0,-1,-2,-2,0,0,-2,4
1570179573988148,-1,0,0,0,0,1,0,-4
1570179573988148,-1,2,-1,0,0,-3,0,2
1570179573988148,5,1,-1,1,-1,0,-12,11
1570179573988148,2,0,-1,-1,0,1,-2,4
1570179574002245,0,0,0,0,0,-2,-1,-3
1570179574002245,2,0,0,2,0,0,-1,-1
1570179574003312,-3,-2,1,0,-1,0,3,-7
1570179574003312,-3,0,-2,-1,0,1,1,-4
1570179574025221,-1,-3,-1,-1,0,0,-1,-2
1570179574025221,0,0,0,-1,0,0,-1,3
1570179574025998,-4,-1,-2,-2,-3,-2,0,-1
1570179574025998,1,0,0,0,0,0,0,1
1570179574047932,-2,0,-1,-1,-1,0,3,-5
1570179574047932,1,0,1,-1,-1,-2,-6,5
1570179574047932,0,0,-1,-1,-2,-2,-1,-3
1570179574047932,2,-1,0,-1,-1,-1,-4,3
1570179574061911,1,0,0,1,1,0,-2,3
1570179574061911,1,-3,-2,-2,-1,0,1,-10
1570179574062962,1,0,-2,-3,-2,0,0,3
1570179574062962,2,2,1,3,-1,-4,-8,4
1570179574085616,1,1,2,1,0,-2,-14,3
1570179574085616,3,0,-3,-2,1,0,3,10
1570179574085830,1,-2,1,1,-1,2,1,-1
1570179574085830,0,-3,-1,-1,-2,0,4,-4
1570179574107776,0,-2,-2,0,-1,-1,4,-3
1570179574107776,-1,1,0,-1,-3,0,-2,-1
1570179574108888,-4,-1,-2,0,1,-2,-8,-18
1570179574108888,0,1,0,0,-1,-2,1,2
1570179574121734,0,1,0,-1,-1,-1,2,1
1570179574121734,-1,0,1,1,0,-1,0,-5
1570179574136812,1,0,0,-1,-1,0,1,0
1570179574136812,0,-1,2,1,0,-3,-7,1
1570179574145695,-3,-1,-2,-2,-2,-1,0,-3
1570179574145695,-1,-1,1,1,2,0,1,-3
1570179574145695,1,0,-1,0,0,-1,3,-2
1570179574145695,-1,-2,0,1,-2,1,0,-4
1570179574167612,2,0,1,-1,-2,-1,-4,6
1570179574167612,-2,-2,0,-2,2,0,-1,-3
1570179574169036,1,-1,0,-2,-2,0,5,4
1570179574169036,1,0,-2,0,0,-2,-13,5
1570179574181574,-1,-2,-2,-2,0,0,2,-5
1570179574181574,1,0,-3,-2,-2,0,-1,10
1570179574189553,-4,1,0,-1,0,-1,-1,-7
1570179574189553,0,-1,-2,-2,-1,1,6,1
1570179574205667,-2,-1,0,-1,-1,2,1,3
1570179574205667,1,-1,1,1,0,0,-4,3
1570179574205667,-1,1,-1,1,1,1,-2,0
1570179574205667,-2,0,1,-2,0,0,4,-1
1570179574235488,-1,-3,-2,1,0,0,4,1
1570179574235488,0,0,-2,-1,-2,-1,1,-3
1570179574236431,0,-1,-2,1,0,-1,-2,2
1570179574236431,-1,-1,-1,0,0,-1,-1,-15
1570179574241659,-1,-1,-2,-2,-2,-1,2,3
1570179574241659,-4,-1,-1,-1,-2,-3,1,-9
1570179574249603,4,1,0,0,0,0,-2,7
1570179574249603,-1,-2,-3,-1,-1,0,3,6
1570179574265555,0,0,1,0,0,-1,-1,-5
1570179574265555,-4,-2,-2,-2,-1,1,11,-12
1570179574266352,-2,-2,-2,-1,0,-1,0,2
1570179574266352,-5,-2,0,-1,0,0,2,-3
1570179574287668,1,1,0,0,-1,-1,-3,-3
1570179574287668,2,-2,0,-1,-2,0,-3,4
1570179574288295,-3,0,3,-1,1,-1,2,-2
1570179574288295,-3,0,0,-1,0,0,-1,-2
1570179574301479,0,-1,1,0,0,0,2,-5
1570179574301479,8,3,1,2,2,0,-8,30
1570179574309244,1,-1,0,-1,-1,0,-1,-3
1570179574309244,-3,-2,-1,0,-1,1,0,-1
1570179574324402,6,0,-1,-2,-1,0,0,-2
1570179574324402,3,0,-2,-1,-1,0,3,9
1570179574332335,1,-1,-2,-1,-1,-2,-1,2
1570179574332335,2,0,0,0,1,1,2,7
1570179574355281,-1,1,0,2,-1,0,-1,-2
1570179574355281,1,-1,0,0,0,0,-5,-5
1570179574356108,-1,0,0,0,0,0,-1,-3
1570179574356108,-4,-3,-3,-1,-2,0,8,-16
1570179574361101,1,-1,-1,0,0,-3,-9,6
1570179574361101,-4,0,-2,-1,-1,-1,0,-7
1570179574370072,1,0,2,-1,-2,0,-4,1
1570179574370072,-1,1,0,-1,0,-3,-4,-6
1570179574384420,-2,0,0,-1,0,2,3,9
1570179574384420,-2,0,0,-1,0,-1,3,-3
1570179574392015,0,-1,0,0,-2,0,0,4
1570179574392015,0,-2,-2,0,-1,0,-1,-4
1570179574408021,-13,-2,0,-1,-1,-2,2,-33
1570179574408021,8,0,0,0,0,-1,-1,14
1570179574408243,-1,-2,0,1,0,-2,0,-4
1570179574408243,2,-1,-1,-2,-2,-4,-1,14
1570179574421934,-3,0,-1,0,-1,1,3,1
1570179574421934,-8,-2,-2,0,-2,-1,-3,-17
1570179574428912,0,-1,-4,0,-1,-1,0,-1
1570179574428912,0,1,1,1,-1,1,-1,2
1570179574444922,0,-1,-3,-1,0,0,2,4
1570179574444922,-1,2,3,1,0,-1,-1,-3
1570179574445868,-1,-1,-1,-1,-1,1,-1,1
1570179574445868,1,1,1,-1,-1,0,-3,5
1570179574467985,2,-1,-2,-2,-1,0,1,4
1570179574467985,-2,-1,1,0,0,0,-1,-6
1570179574468808,-1,-1,-1,-1,0,-2,-4,16
1570179574468808,0,0,-1,-1,0,0,1,-9
1570179574497726,2,-1,-1,0,2,0,-1,8
1570179574497726,-1,-2,-1,-1,-1,0,-4,-2
1570179574498723,1,0,0,1,0,-1,4,10
1570179574498723,-1,-2,-1,-2,-2,0,-1,1
1570179574504781,0,-1,-2,-1,-1,-1,-2,2
1570179574504781,-4,-3,-3,0,-1,0,2,-7
1570179574505705,-1,0,-1,0,1,1,0,-1
1570179574505705,1,-2,-2,-2,1,0,4,9
1570179574528038,-2,0,0,-1,0,-1,-2,-2
1570179574528038,-4,-1,0,0,-1,-4,-8,-16
1570179574529842,-1,1,-2,-2,-2,-1,2,-9
1570179574529842,4,0,1,1,0,0,-2,2
1570179574549848,3,0,1,0,0,-3,-11,0
1570179574549848,-2,-1,-2,-2,0,0,1,0
1570179574556723,-2,-2,-2,0,0,0,-1,-7
1570179574556723,-1,1,-2,-2,-1,0,-1,-6
1570179574563780,0,-3,-1,-3,-1,0,2,0
1570179574563780,-1,0,-1,0,1,-2,2,6
1570179574572529,0,1,-1,-2,0,-2,-1,-11
1570179574572529,-7,-1,0,2,-1,1,0,-8
1570179574587744,1,1,-3,0,-1,0,1,7
1570179574587744,0,-1,0,-1,-1,0,1,5
1570179574589483,-1,0,0,0,0,-1,-2,-3
1570179574589483,-2,0,-3,-1,0,-2,1,-5
1570179574610698,1,1,1,0,0,1,-12,8
1570179574610698,-1,0,0,0,1,-1,-2,-3
1570179574611429,-1,1,-1,-1,1,0,0,-3
1570179574611429,-3,-1,-2,-1,-1,1,1,-2
1570179574624392,-3,0,-1,0,-1,0,4,-7
1570179574624392,-3,-2,-4,-3,-2,0,-1,-18
1570179574632417,1,-2,0,-1,1,0,-3,4
1570179574632417,1,-1,0,0,-2,-2,-1,11
1570179574647622,-4,-1,-2,-1,-1,-1,2,-9
1570179574647622,1,0,-1,-1,-1,0,-1,3
1570179574649324,0,-1,-2,-2,-1,0,2,-3
1570179574649324,0,0,0,-2,-1,0,-2,-3
1570179574670437,1,-1,1,-2,-2,-1,2,1
1570179574670437,1,0,-1,1,0,0,1,1
1570179574672262,-1,-1,0,-1,-1,1,-1,-5
1570179574672262,2,0,-2,2,-1,0,-2,2
1570179574684454,-2,-3,-1,-1,-1,-1,-2,-3
1570179574684454,-2,1,-1,1,-1,-3,1,3
1570179574691498,0,-3,-1,0,0,0,2,3
1570179574691498,-1,0,1,-2,-3,-2,-2,-2
1570179574708072,-1,0,-2,-2,0,-1,2,0
1570179574708072,-5,-1,-1,-1,-1,2,-3,-9
1570179574709528,4,1,1,0,-1,-1,0,-1
1570179574709528,-2,1,2,1,0,0,-3,0
1570179574730406,0,0,0,0,0,0,5,4
1570179574730406,1,0,0,-2,0,-1,-2,0
1570179574732110,-4,-2,-2,0,-1,-1,-3,0
1570179574732110,-2,-2,-2,-2,0,-2,-3,-8
1570179574744078,2,1,-1,0,0,1,0,6
1570179574744078,0,-2,-2,-1,1,1,1,2
1570179574751412,-2,0,0,2,0,0,1,-1
1570179574751412,6,1,-1,1,1,1,-11,35
1570179574768005,-5,-3,-2,-1,-1,-1,0,-6
1570179574768005,0,0,1,-1,-2,0,1,4
1570179574769005,-1,1,1,1,0,-2,-2,0
1570179574769005,-3,-1,-1,0,0,0,5,-12
1570179574790199,2,-2,0,0,0,-1,-1,1
1570179574790199,0,-2,0,-1,-2,0,1,1
1570179574791944,4,0,1,0,-2,-2,-7,-7
1570179574791944,1,-1,-3,1,0,-3,-2,-6
1570179574805095,-3,1,-1,-1,0,-1,0,-4
1570179574805095,-2,-2,-1,-3,-1,0,1,-5
1570179574811890,2,0,-2,-3,-2,0,2,7
1570179574811890,-2,0,-1,-1,-2,0,3,-5
1570179574827852,10,4,2,2,3,-1,-10,11
1570179574827852,8,3,0,1,1,-1,-2,-1
1570179574829144,-11,-4,-1,-1,0,0,3,2
1570179574829144,-1,0,0,-3,-1,0,0,-6
1570179574850001,-13,-8,-2,1,-4,-1,6,3
1570179574850001,8,4,1,0,1,0,-2,-5
1570179574851784,4,4,0,-1,0,-1,-4,-3
1570179574851784,0,-2,-1,0,0,0,4,0
1570179574864942,2,3,0,-1,0,0,-1,-12
1570179574864942,-30,-19,-4,1,-2,-1,-1,-1
1570179574871735,4,1,-1,-1,-1,-2,-2,-5
1570179574871735,-1,1,0,-2,1,-3,0,9
1570179574887828,-4,-7,-1,-1,-2,1,-2,-4
1570179574887828,17,14,-1,-2,-1,-2,-1,5
1570179574889682,-2,-4,-1,0,-1,-1,1,-6
1570179574889682,-6,-6,-1,-1,-2,-1,-1,-1
1570179574910625,-18,-3,-3,0,1,0,11,-28
1570179574910625,-9,-6,-2,0,-2,-2,-8,1
1570179574911624,-22,-8,1,1,1,1,2,0
1570179574911624,34,17,-1,-1,0,-1,-1,-1
1570179574923799,0,0,0,-1,-1,-2,1,3
1570179574923799,4,2,-3,-2,-1,-1,0,-2
1570179574932565,-2,0,-1,1,-2,0,-1,1
1570179574932565,-20,-13,-1,0,-2,-1,-3,-5
1570179574947738,20,12,4,1,1,1,-2,10
1570179574947738,-6,12,1,-2,-1,-3,1,-4
1570179574949528,16,-4,-4,-2,1,-1,-3,-1
1570179574949528,-19,-8,1,2,0,2,2,-5
1570179574970682,6,-2,-3,-3,-2,-2,-5,0
1570179574970682,-2,-5,3,1,0,0,0,3
1570179574971470,13,5,-4,-3,-3,-1,-1,-3
1570179574971470,-3,1,-2,-1,0,0,-1,-4
1570179574984436,-6,-5,0,-1,-1,0,-1,-1
1570179574984436,7,-1,-1,0,0,1,3,9
1570179575000447,-4,2,2,-1,0,-1,1,-5
1570179575000447,-21,-10,0,0,-1,-2,-6,-17
1570179575007375,23,7,-3,-1,-2,1,-1,13
1570179575007375,-2,-5,2,0,0,-1,2,2
1570179575009363,12,17,2,-1,-1,-1,0,1
1570179575009363,-15,-21,-2,-1,-1,0,0,4
1570179575030306,-10,7,-1,-1,1,1,13,-14
1570179575030306,32,10,3,0,0,-2,-1,6
1570179575031302,-44,-11,2,2,0,1,-3,-2
1570179575031302,-3,-5,-7,-3,-1,-1,0,8
1570179575044268,3,0,-3,-3,-2,-2,5,-6
1570179575044268,-4,-8,-3,-1,1,0,2,6
1570179575053244,-4,-5,-2,0,0,-2,0,-4
1570179575053244,0,6,1,0,0,0,1,-4
1570179575067713,-16,-9,-3,0,-1,0,-4,0
1570179575067713,10,9,1,0,0,0,-2,-2
1570179575069201,15,6,1,-1,-1,0,-1,5
1570179575069201,-4,-3,1,0,0,-2,1,1
1570179575090144,13,8,0,-2,0,-1,-7,-5
1570179575090144,-12,-6,0,2,0,-1,-4,-5
1570179575092141,2,-4,-4,-2,-2,-2,-2,-7
1570179575092141,11,6,-1,-1,-1,-1,3,-2
1570179575104113,3,-2,-1,0,1,-3,-21,18
1570179575104113,-12,-6,-1,-2,-1,1,2,-4
1570179575113084,-3,-3,-3,-2,-1,-3,1,6
1570179575113084,21,12,1,0,0,0,0,-1
1570179575128045,-9,-3,0,-1,0,1,4,2
1570179575128045,-13,-4,-1,-2,-2,-2,-7,-10
1570179575129134,5,-1,-1,-2,0,0,-4,3
1570179575129134,5,3,0,0,-1,0,-2,4
1570179575149988,-10,-6,1,3,1,3,1,-11
1570179575149988,10,4,-4,-3,-3,-3,1,15
1570179575151979,5,2,2,1,0,-2,-5,9
1570179575151979,-1,1,-1,-1,-1,-3,0,2
1570179575163998,-7,-4,-2,-1,-1,-2,-2,-5
1570179575163998,3,-1,-3,-1,-1,0,2,-8
1570179575172925,-4,0,0,0,0,2,4,-3
1570179575172925,3,-1,-1,-3,-1,0,0,-5
1570179575187891,6,2,1,3,-1,-5,-15,8
1570179575187891,-10,-2,-2,-2,-1,-1,-5,-15
1570179575188882,0,-2,-2,-3,-1,-1,2,2
1570179575188882,-2,0,0,0,-1,-1,0,-4
1570179575209825,-7,-2,-3,-1,-1,0,7,-10
1570179575209825,-4,-2,1,2,0,2,0,-1
1570179575217803,-7,-4,0,0,-1,-2,-3,-19
1570179575217803,7,4,0,-1,-1,0,-3,3
1570179575224120,-1,-3,-1,-1,-2,-2,1,-4
1570179575224120,-4,-1,-2,-2,1,-2,-2,-1
1570179575232812,1,0,-3,-1,-1,-1,2,-1
1570179575232812,-3,0,-1,0,-1,-1,-1,-3
1570179575247726,1,0,-2,-2,-1,0,2,1
1570179575247726,-4,-3,-2,-1,1,-1,1,-6
1570179575249720,9,1,-1,-1,-2,1,3,-62
1570179575249720,4,1,-1,-1,-2,0,2,-41
1570179575269665,0,2,2,1,-1,0,5,13
1570179575269665,3,1,-1,1,0,0,-5,4
1570179575277648,-4,-2,-1,-2,-1,0,0,4
1570179575277648,-2,-1,0,-2,-1,-2,-1,-9
1570179575283627,-4,-2,-1,-1,-1,-3,2,-20
1570179575283627,-3,-1,0,-2,-2,0,2,37
1570179575293601,2,-2,-1,0,0,0,-4,32
1570179575293601,-1,0,0,2,0,0,-3,18
1570179575307566,-2,-2,-1,-2,0,1,-2,22
1570179575307566,0,-1,-1,0,-1,-1,3,12
1570179575309566,-2,-2,-2,-1,0,0,1,16
1570179575309566,0,0,0,0,-2,-1,0,16
1570179575330502,-2,-2,0,-1,0,0,3,5
1570179575330502,-7,-16,-1,0,-1,-2,2,-2
1570179575331498,2,10,0,2,-1,1,3,13
1570179575331498,10,5,-1,-2,0,-1,-3,13
1570179575343468,5,-3,-3,-1,-3,-1,2,19
1570179575343468,0,2,0,0,0,-2,-1,-12
1570179575352445,-11,-7,0,1,-1,1,-1,7
1570179575352445,-14,-13,-4,-1,0,2,-1,9
1570179575367496,18,17,0,1,-1,2,3,-18
1570179575367496,-14,-9,-2,-3,-3,-2,-3,-7
1570179575369397,7,4,1,2,0,-1,-2,6
1570179575369397,-5,-4,0,-1,0,-1,1,-14
1570179575390340,18,10,-1,-2,-1,-2,1,-8
1570179575390340,-17,-13,-3,0,-1,0,0,-4
1570179575391338,5,6,2,-1,-1,-2,0,-12
1570179575391338,-16,-6,-4,-3,-3,-1,-4,5
1570179575403305,-8,-8,1,0,0,0,0,1
1570179575403305,36,28,2,0,-2,-1,-2,0
1570179575412347,-29,-15,-1,-1,0,-2,-5,-14
1570179575412347,4,-5,-5,-3,-3,-2,-1,-1
1570179575427447,-29,-7,0,1,0,-2,-5,3
1570179575427447,-7,-1,0,-2,0,1,2,3
1570179575441410,13,3,-1,-1,0,1,2,7
1570179575441410,5,1,0,0,-1,-1,3,-8
1570179575450385,-1,-4,-1,1,-1,-2,-14,2
1570179575450385,-5,-9,-1,2,-1,-1,2,-4
1570179575451741,-4,8,-1,0,-2,2,1,9
1570179575451741,5,4,2,0,1,-1,2,0
1570179575472583,-7,-15,-4,-1,1,0,0,-5
1570179575472583,-10,-7,-2,-1,0,0,-2,-4
1570179575474518,23,20,3,-1,-1,1,-3,11
1570179575474518,21,12,-2,-2,-2,-2,-2,6
1570179575486483,-2,0,2,0,-1,0,1,-7
1570179575486483,-6,-8,-4,-3,-1,0,8,3
1570179575494875,-16,-17,-1,0,0,-1,1,-3
1570179575494875,9,9,1,0,0,-1,-5,1
1570179575510627,-30,-21,-1,2,0,2,4,-2
1570179575510627,48,39,-3,-6,-6,-4,-12,-21
1570179575512220,-12,-13,-3,-1,0,-2,-1,-4
1570179575512220,9,18,5,3,1,0,-3,-1
1570179575532733,11,2,-4,-4,-3,0,14,-14
1570179575532733,-23,-14,2,1,0,-3,-15,0
1570179575534505,6,1,-1,-2,0,-3,-2,-2
1570179575534505,-7,-9,0,1,2,3,1,2
1570179575547464,-4,0,-1,1,0,2,3,-4
1570179575547464,16,7,2,0,-2,1,4,-2
1570179575549460,10,6,-1,-1,-3,-3,-2,-3
1570179575549460,-15,-14,-2,0,-1,-2,0,1
1570179575570443,18,9,2,-1,-3,-2,-4,20
1570179575570443,-4,-2,0,2,0,0,1,5
1570179575571544,-9,-7,-2,-1,0,-1,0,4
1570179575571544,-2,1,-1,-1,0,0,0,-6
1570179575592900,0,3,-2,-1,0,-1,-4,-2
1570179575592900,0,-1,1,0,1,0,1,0
1570179575594436,-7,-9,-1,1,-1,1,-1,-9
1570179575594436,7,2,-1,0,0,1,3,13
1570179575607347,2,6,-1,-1,0,-4,-4,-13
1570179575607347,-17,-14,2,2,2,2,0,17
1570179575613648,5,14,-1,-4,0,-2,-5,-3
1570179575613648,13,2,0,-2,-3,-2,-16,1
1570179575630283,-3,-3,-3,-3,0,1,1,7
1570179575630283,3,0,-2,1,-1,1,7,2
1570179575631480,-11,-9,0,1,0,1,0,-3
1570179575631480,-10,-3,-1,1,1,2,3,-5
1570179575652227,4,3,1,0,-2,0,-6,-5
1570179575652227,-2,1,0,0,1,-1,-2,-8
1570179575654219,1,-5,-3,-1,-2,2,6,1
1570179575654219,-6,-1,1,0,-1,-2,0,-3
1570179575667321,3,0,0,-1,0,0,-3,4
1570179575667321,-4,0,-1,-2,-1,1,2,-4
1570179575673306,1,0,2,1,-1,1,0,6
1570179575673306,-1,-3,0,-1,-2,0,0,-10
1570179575690264,-5,-2,0,-1,-1,-1,-2,-6
1570179575690264,-2,0,-1,-1,1,-1,-3,-6
1570179575692254,11,0,-2,-2,0,0,1,16
1570179575692254,-7,-3,-1,0,-1,0,0,0
1570179575712204,2,-2,0,-1,-1,-2,-18,10
1570179575712204,0,1,-1,-1,-2,-1,1,1
1570179575720220,-3,-1,-2,-2,0,-2,-6,-15
1570179575720220,-8,-5,-1,1,1,-1,7,-9
1570179575727162,0,-1,-2,-2,-2,0,4,-2
1570179575727162,2,1,-2,-1,-2,-2,-3,1
1570179575734781,-1,-2,-1,0,-1,0,-1,18
1570179575734781,0,0,0,-3,-1,0,4,4
1570179575750100,-3,1,-3,-1,-2,0,1,-11
1570179575750100,-2,1,-1,0,0,1,-1,-7
1570179575752183,-1,-2,2,1,-1,2,6,-5
1570179575752183,-1,-2,0,0,-2,-1,-6,-2
1570179575772504,2,1,2,-1,0,0,4,4
1570179575772504,-3,-1,-2,-2,0,-1,-3,-5
1570179575779024,2,0,-2,-2,-1,-3,-2,-8
1570179575779024,-1,-1,-1,-1,-1,0,-1,6
1570179575787000,-3,-2,0,0,0,-1,-3,-3
1570179575787000,-2,-1,-1,-1,-1,0,1,-2
1570179575793983,-1,1,1,0,-2,-1,-4,-9
1570179575793983,-1,-2,-2,-1,0,0,2,4
1570179575809939,-2,-1,-3,-1,-1,-2,3,-18
1570179575809939,4,1,0,0,0,-2,-16,1
1570179575811937,-1,1,-1,0,-1,0,3,-2
1570179575811937,4,3,0,2,2,0,4,16
1570179575832877,0,1,1,0,2,0,-6,8
1570179575832877,0,0,-2,0,0,0,4,-2
1570179575833876,0,-3,-3,0,0,1,0,3
1570179575833876,-2,-3,-1,-1,-1,-2,-4,-4
1570179575847065,-2,0,1,-3,-1,-1,2,0
1570179575847065,2,0,0,0,-1,0,3,1
1570179575853495,1,1,1,0,-2,0,-2,1
1570179575853495,-2,-2,-1,-1,1,-2,-2,0
1570179575870425,2,0,-1,0,-2,-2,-2,-2
1570179575870425,-5,0,-1,0,1,0,0,-4
1570179575871422,-1,0,-1,0,0,-1,3,-5
1570179575871422,-4,-1,-2,-2,-2,1,7,-10
1570179575892508,12,1,1,0,0,0,-4,35
1570179575892508,0,-3,0,1,-2,2,3,4
1570179575894362,-1,-1,-3,-2,0,-2,-3,-2
1570179575894362,-1,0,-1,0,-1,-1,1,-6
1570179575907328,-3,-1,-2,0,-2,1,2,-7
1570179575907328,-1,0,-3,-2,-2,-2,0,1
1570179575913315,1,1,0,1,0,-2,-4,7
1570179575913315,-3,-1,0,0,-1,-2,-4,-3
1570179575930452,3,-1,0,0,2,1,1,5
1570179575930452,1,-2,1,-2,-1,1,-2,-2
1570179575931263,-3,-1,0,-1,-2,2,2,-4
1570179575931263,-1,2,-1,-1,-2,0,-3,0
1570179575952758,-5,-2,-1,1,1,-1,2,-9
1570179575952758,-4,-1,-2,-4,-1,-2,11,-21
1570179575954203,5,0,-2,-1,-1,-1,-5,18
1570179575954203,0,-2,-1,-3,-2,-1,-1,0
1570179575966171,-4,-3,-1,0,-1,1,6,-5
1570179575966171,0,-3,-3,-1,-1,-1,1,1
1570179575975146,-1,0,-1,-2,-1,0,6,-3
1570179575975146,2,-2,0,-2,-1,-1,-2,5
1570179575989159,-3,-1,-1,-1,-2,0,0,-5
1570179575989159,-2,0,1,1,-1,-1,-4,-1
1570179575998089,-2,-1,-1,-3,0,-2,-2,3
1570179575998089,-1,0,0,0,1,1,-3,-5
1570179576020036,-2,0,-2,-2,-1,-1,-3,-4
1570179576020036,5,1,1,-3,0,-1,-1,7
1570179576022022,-2,0,0,0,-2,-1,-4,-9
1570179576022022,-5,-2,-2,0,-3,-1,-1,-5
1570179576026011,0,-2,-1,-1,-1,-1,0,-4
1570179576026011,-2,-1,-2,1,-2,0,-2,6
1570179576034987,-2,-4,-1,-1,0,-2,0,-4
1570179576034987,3,2,0,1,3,1,-8,6
1570179576049948,4,1,1,1,0,-3,-11,28
1570179576049948,-2,-1,-2,-2,0,-3,-4,-2
1570179576055938,-1,0,0,0,0,1,1,-2
1570179576055938,0,0,-1,0,-2,-1,2,0
1570179576072884,1,0,0,-1,-3,-2,1,-5
1570179576072884,1,0,1,1,0,-1,-2,2
1570179576073913,-2,-1,0,0,-1,-1,-1,-9
1570179576073913,0,0,-1,1,0,0,-1,-1
1570179576085893,-2,-2,0,-2,-2,-3,1,-6
1570179576085893,-4,-2,-2,-1,-1,1,2,-3
1570179576094874,-2,-1,-1,0,-1,-1,1,-5
1570179576094874,-1,-1,1,0,0,1,-2,0
1570179576109790,-4,-2,-2,0,-1,0,2,-5
1570179576109790,-4,-1,3,0,0,0,-3,-12
1570179576115771,7,0,0,-3,0,1,1,9
1570179576115771,-1,-1,0,-1,-1,-2,0,0
1570179576133135,0,1,-1,-3,0,0,0,-1
1570179576133135,-1,-2,-3,0,-2,-1,-3,-12
1570179576133724,0,-1,-1,-1,0,-2,-17,13
1570179576133724,0,1,-1,-2,0,-1,1,-2
1570179576146758,-2,-3,-1,-1,-1,1,4,-4
1570179576146758,0,1,0,0,-1,0,-1,-5
1570179576161719,-7,-1,0,-2,1,0,10,-12
1570179576161719,3,0,-1,0,-1,1,0,11
1570179576170625,-4,-1,1,1,-1,0,-2,-11
1570179576170625,-1,1,-2,-1,-1,-1,-1,-1
1570179576171623,0,-1,0,-1,0,2,1,3
1570179576171623,-3,-1,-1,0,-2,-2,1,-7
1570179576192669,0,-1,-2,-1,1,0,3,-1
1570179576192669,1,-3,-1,-2,-2,0,3,8
1570179576194560,2,0,-1,2,-1,-2,0,0
1570179576194560,-2,-1,-1,-1,1,-2,1,-6
1570179576206534,-1,1,-2,0,-1,1,-1,-5
1570179576206534,3,-1,-1,-2,0,-2,0,10
1570179576215506,-1,0,0,1,0,-1,-4,-4
1570179576215506,1,-2,-1,0,-1,1,3,13
1570179576230523,-1,0,0,0,1,-2,-1,-1
1570179576230523,-1,-1,1,-1,0,-1,1,0
1570179576231463,-2,-1,-2,-1,0,1,3,-5
1570179576231463,-3,-2,-1,0,-1,-2,7,-19
1570179576252412,0,0,-1,-1,0,0,-1,-1
1570179576252412,-5,-1,1,2,0,0,2,-1
1570179576254400,5,-3,0,0,0,-1,0,8
1570179576254400,-2,-2,0,-3,0,-1,-3,-6
1570179576266569,-3,-4,-3,-2,0,-4,-5,-8
1570179576266569,-2,-1,0,0,-1,0,1,0
1570179576275346,-2,-2,-2,-2,0,0,1,-7
1570179576275346,1,-1,0,-1,-1,-1,-3,9
1570179576297290,-3,-1,0,0,-1,-1,-3,-6
1570179576297290,3,0,-2,-1,-1,0,-3,4
1570179576299282,0,-1,0,1,-2,0,-1,0
1570179576299282,2,0,-1,0,-1,-1,-2,3
1570179576312248,-1,1,-1,-1,0,0,0,7
1570179576312248,-2,0,-1,0,1,1,5,-3
1570179576314242,-2,1,-1,0,1,0,-4,5
1570179576314242,0,1,1,0,1,0,-1,-1
1570179576326208,0,-1,0,-1,-1,0,3,4
1570179576326208,-3,-1,-1,-1,1,-2,-5,-18
1570179576335183,-7,0,-1,-1,-1,1,2,-13
1570179576335183,-2,-1,-2,-1,-1,2,-2,-3
1570179576349145,5,-1,-1,-1,-2,0,-1,10
1570179576349145,1,0,-2,1,-1,-1,-4,7
1570179576358123,-3,-1,-1,-3,0,0,-1,-3
1570179576358123,-1,-1,-1,0,-1,-1,-1,-4
1570179576373082,-1,-1,0,1,-2,-2,0,-7
1570179576373082,-1,0,-1,-1,-2,1,2,0
1570179576374080,-1,0,-1,0,-1,-2,-2,-3
1570179576374080,-1,-1,-1,0,-2,0,0,2
1570179576395024,-1,-2,-1,-1,0,1,-4,-7
1570179576395024,2,0,1,0,0,-3,-3,5
1570179576397032,3,0,0,-1,-2,-2,-1,6
1570179576397032,-3,0,-2,-1,-3,0,1,-2
1570179576409982,-4,0,0,-1,-1,0,0,-5
1570179576409982,-1,-1,-2,0,0,0,-1,0
1570179576411978,5,0,-1,0,-1,-1,-1,1
1570179576411978,2,-2,-1,0,-2,1,2,2
1570179576432920,2,-1,-1,-1,-2,-1,3,6
1570179576432920,2,-1,-2,-1,-2,-2,-1,11
1570179576433919,-2,-1,0,1,0,0,0,6
1570179576433919,-1,-1,-2,-2,0,-2,-3,0
1570179576462840,0,0,0,1,1,0,0,0
1570179576462840,-6,-1,-3,-2,-1,0,14,-11
1570179576463838,2,-1,-1,-1,-1,-2,-3,2
1570179576463838,-1,0,1,1,0,-3,-2,-2
1570179576469822,-2,-3,-1,-1,-1,0,0,1
1570179576469822,-2,-3,-3,-2,-3,-1,6,-10
1570179576471817,-2,2,1,-3,-1,-1,-3,-2
1570179576471817,4,1,-1,-1,-1,0,2,6
1570179576491764,-5,1,0,0,-2,-3,-4,-14
1570179576491764,-3,-1,0,-1,0,1,-4,-2
1570179576500744,3,-1,-1,-1,-1,-1,2,4
1570179576500744,-2,0,0,-1,-1,0,2,-4
1570179576514703,2,1,1,-1,0,-2,-2,5
1570179576514703,1,0,3,0,1,1,-4,10
1570179576516697,-2,-2,-2,-1,-1,-2,-1,-6
1570179576516697,-2,0,-1,-2,-2,-1,-1,-2
1570179576529663,-4,-3,-4,-1,0,-1,-3,-9
1570179576529663,-3,0,1,0,0,-2,-6,-5
1570179576536645,-1,0,0,1,1,1,0,-2
1570179576536645,0,-2,0,-1,1,-1,-2,-1
1570179576552601,0,0,0,-1,0,1,0,2
1570179576552601,0,0,-1,1,-1,-2,-5,2
1570179576554596,-2,-4,-3,0,-1,1,-1,-2
1570179576554596,-6,-2,-1,2,-1,-1,7,-19
1570179576575687,0,-2,-1,-2,1,-2,-2,-4
1570179576575687,1,-2,-1,0,-2,-1,0,0
1570179576577535,-6,-1,-2,1,0,-1,-1,-2
1570179576577535,7,-4,-2,-3,0,0,1,7
1570179576589503,0,0,0,-1,-3,-1,0,1
1570179576589503,2,1,-1,1,-1,0,-2,5
1570179576596483,-4,-3,-1,-1,-1,0,6,-6
1570179576596483,1,2,1,2,1,-1,-9,9
1570179576612441,3,3,1,-2,-1,-1,-7,11
1570179576612441,2,1,0,-1,1,1,1,14
1570179576614463,0,0,0,-1,0,-1,-3,3
1570179576614463,-5,-1,-2,-1,-1,-2,-5,-9
1570179576635380,5,1,0,-1,0,0,3,14
1570179576635380,-1,0,0,0,0,-1,-10,6
1570179576636378,4,1,-2,0,0,0,0,4
1570179576636378,-3,0,1,0,-1,1,1,0
1570179576649343,-2,-1,-2,1,1,-1,0,1
1570179576649343,-1,-1,-2,-1,0,-1,-1,-15
1570179576656324,0,-1,1,0,-3,-2,1,1
1570179576656324,-1,-1,-1,0,-1,-1,-5,1
1570179576672281,-1,-1,1,1,-2,0,2,-10
1570179576672281,0,0,-1,0,1,2,1,3
1570179576674276,-4,0,0,-2,-1,-2,-3,-9
1570179576674276,-1,-1,-2,-2,0,0,3,1
1570179576695280,-3,-1,-1,-1,0,0,0,-2
1570179576695280,0,2,1,0,-1,-2,-2,-5
1570179576696218,-2,-1,-3,-2,-1,-2,-1,-6
1570179576696218,1,-2,-1,-2,-1,1,-3,0
1570179576709182,-2,0,-1,1,-1,0,2,-1
1570179576709182,-2,-2,-2,-3,-1,0,-2,-1
1570179576718163,-3,0,0,-1,0,0,0,-3
1570179576718163,0,0,0,0,0,-1,0,-1
1570179576732121,-1,-2,-2,0,1,1,13,-7
1570179576732121,2,0,-3,-2,-2,-3,-4,1
1570179576734121,-2,-3,-1,-2,-1,0,-2,-3
1570179576734121,-2,-1,-1,-1,1,0,0,-2
1570179576755134,0,-1,-1,0,-1,-3,-5,-6
1570179576755134,-1,-1,-1,0,-1,1,1,2
1570179576756057,-1,-1,-1,0,0,0,0,1
1570179576756057,-1,0,0,0,-2,1,1,-1
1570179576769023,2,-2,-2,-3,-2,0,-1,12
1570179576769023,-1,-1,1,-1,0,1,2,-7
1570179576776005,1,0,-1,1,-1,-1,-5,-1
1570179576776005,1,1,-1,-2,-1,0,0,5
1570179576792958,-2,2,0,-1,0,-1,-2,-3
1570179576792958,-1,-1,-1,-1,-4,-1,1,-8
1570179576793955,1,0,0,1,2,1,0,7
1570179576793955,-1,-2,1,0,0,-4,-4,4
1570179576814900,-6,-2,-1,0,-1,-1,-3,-5
1570179576814900,-7,-3,-3,-3,0,-1,11,-19
1570179576816896,4,-1,-3,-1,-2,-1,0,11
1570179576816896,-3,-1,-2,-2,0,-1,0,-4
1570179576829861,1,0,0,1,-1,-1,-3,-1
1570179576829861,0,-1,-1,1,-1,-1,3,7
1570179576835845,-2,-2,-1,-1,-2,-1,-1,-3
1570179576835845,-3,-2,0,-1,0,-1,-1,2
1570179576852868,-1,-1,0,0,0,0,-2,-5
1570179576852868,-3,-1,-1,-2,-1,0,5,0
1570179576854794,1,0,-1,0,1,-1,-1,0
1570179576854794,-1,1,-1,0,-3,-1,-1,-6
1570179576882358,2,-1,-2,-1,0,-4,-2,4
1570179576882358,1,-2,-1,-1,0,-1,0,4
1570179576890697,-3,-2,0,-2,-1,-1,-2,-2
1570179576890697,-1,-3,-3,-1,1,1,-2,-1
1570179576891694,0,-1,-1,-1,0,-1,-1,-1
1570179576891694,2,0,-1,1,-1,0,-3,9
1570179576897695,1,-1,0,-1,-1,-2,0,-2
1570179576897695,-1,1,0,-2,-1,0,1,-6
1570179576912638,-5,-3,-2,-1,-1,-2,-3,-9
1570179576912638,4,2,1,1,1,-1,-4,7
1570179576914634,-3,0,0,0,-1,0,2,-5
1570179576914634,1,-1,-2,-1,-1,1,0,2
1570179576934585,7,2,1,0,2,0,-14,25
1570179576934585,-3,-2,1,1,0,-3,-3,-5
1570179576936575,-5,0,-1,0,-1,1,-1,-9
1570179576936575,8,1,0,-1,0,-1,2,18
1570179576948649,0,-1,1,-1,-2,2,2,-9
1570179576948649,-6,0,-3,-3,-2,0,-5,-5
1570179576957518,2,0,1,-1,0,0,-3,5
1570179576957518,-5,-1,0,0,-1,-1,-2,-9
1570179576972479,-4,0,-3,-1,-2,-2,3,-5
1570179576972479,-1,-2,-1,-2,-1,-1,-2,-4
1570179576974473,-1,-1,-1,-1,-1,0,3,-3
1570179576974473,-3,-1,-1,-1,-1,-1,1,3
1570179576995417,-4,-2,-4,-3,-2,3,11,-7
1570179576995417,2,2,1,2,1,2,-3,7
1570179576996414,1,1,-1,-1,-1,-2,-2,2
1570179576996414,-1,1,0,-1,1,-2,-2,-2
1570179577008453,-2,0,0,0,0,-3,0,-5
1570179577008453,0,-1,0,-1,-1,-1,1,0
1570179577017581,-1,-2,-1,-1,0,1,-3,-4
1570179577017581,1,-1,-2,0,-1,-1,0,3
1570179577032321,0,-1,-1,1,-2,0,-2,-2
1570179577032321,1,0,-1,-1,-1,-1,1,5
1570179577034314,2,0,1,1,2,-1,-12,16
1570179577034314,1,0,0,0,0,0,-1,0
1570179577055261,0,-2,-1,0,-1,1,2,1
1570179577055261,3,0,1,-2,0,-1,2,10
1570179577056255,-3,-2,-2,-2,-1,0,6,-8
1570179577056255,-4,-1,-1,-1,-1,0,1,-7
1570179577069220,1,-1,1,0,0,0,-5,5
1570179577069220,-2,-1,0,-1,-1,1,1,-3
1570179577078197,-1,-1,-3,-2,-2,-3,4,0
1570179577078197,0,1,2,1,0,-1,-3,-5
1570179577092440,-2,-2,-2,-1,-2,-1,1,1
1570179577092440,-2,0,-2,0,-1,2,-2,-2
1570179577094353,-1,0,-1,-2,0,-2,-1,-2
1570179577094353,-2,-3,0,-1,1,-2,0,-2
1570179577115098,0,0,0,-1,1,-1,-1,-3
1570179577115098,1,0,-2,1,0,-1,-5,-3
1570179577117097,2,-1,0,0,0,1,4,15
1570179577117097,-2,0,0,0,0,0,1,-1
1570179577129061,1,-1,0,0,1,0,-1,-3
1570179577129061,1,-3,-2,0,-1,-1,-1,-1
1570179577138037,2,-2,-1,-2,-1,1,3,-1
1570179577138037,-2,-1,-1,-1,-1,-2,0,-2
1570179577153059,0,1,1,0,-1,-1,0,2
1570179577153059,-1,-2,0,-1,-1,0,1,-1
1570179577153994,-1,-1,-1,1,1,-2,-3,-3
1570179577153994,-2,-1,-1,-1,-2,-1,-2,-4
1570179577174937,1,-1,-1,-3,-2,0,1,1
1570179577174937,2,1,2,0,-1,-2,-16,8
1570179577176933,1,0,-1,0,0,0,1,1
1570179577176933,1,1,-2,0,-1,-1,-2,-4
1570179577189035,0,0,0,0,-1,-2,1,-2
1570179577189035,-2,-1,-2,-1,0,0,3,-8
1570179577197878,0,3,0,1,-1,-1,3,1
1570179577197878,1,0,-1,-1,1,-1,-3,7
1570179577211843,-1,0,-1,0,0,-1,1,3
1570179577211843,-1,1,1,-1,0,-1,-6,-2
1570179577218827,-1,-1,-2,-2,-3,1,-1,-4
1570179577218827,-1,0,0,1,-1,-1,-2,-6
1570179577234780,2,0,1,1,0,2,0,4
1570179577234780,-1,-2,0,-2,1,-2,4,-2
1570179577236774,-2,-2,0,-1,0,-1,-1,-7
1570179577236774,1,-1,0,0,-2,0,1,1
1570179577248741,0,-2,-2,-1,0,1,0,1
1570179577248741,0,-1,0,-1,-2,-2,1,0
1570179577257719,-5,-2,-1,-3,-2,-3,-4,-10
1570179577257719,1,-1,-2,-2,0,1,2,2
1570179577279777,0,0,-1,-1,-2,-2,-3,-4
1570179577279777,0,-1,-3,-1,-2,-1,4,0
1570179577281652,0,1,-1,0,-1,-2,0,-3
1570179577281652,-3,-3,-3,-1,0,0,-2,0
1570179577294744,-6,-1,-3,-1,0,0,10,-12
1570179577294744,-2,-2,0,0,1,0,-1,-7
1570179577296614,2,1,0,1,-1,0,-2,7
1570179577296614,0,0,-1,1,0,0,-1,2
1570179577317611,0,-1,-3,-2,-2,0,0,1
1570179577317611,-1,3,-1,2,-2,-2,1,3
1570179577319584,-2,0,1,-1,-1,-2,0,-5
1570179577319584,-3,0,0,-2,-2,1,1,-8
1570179577332517,1,0,-1,0,0,-1,-3,4
1570179577332517,0,-1,0,-2,-2,0,1,-2
1570179577334513,-1,-2,-2,-2,-2,0,-3,-1
1570179577334513,-6,-2,1,-2,-2,-1,-4,-15
1570179577355496,-1,1,2,2,0,-2,-4,-1
1570179577355496,0,0,-1,0,0,0,-1,3
1570179577356470,0,0,-1,1,0,-1,2,3
1570179577356470,1,-3,-2,-1,0,-1,2,5
1570179577377400,0,0,0,-1,-2,-1,-2,-6
1570179577377400,8,4,5,2,1,-3,-16,9
1570179577379394,-7,-4,-2,-3,-2,-1,13,-18
1570179577379394,-1,0,0,0,-2,-2,-2,3
1570179577391362,-2,0,0,-1,2,0,-2,4
1570179577391362,-3,1,-3,-1,0,0,1,-4
1570179577400337,0,0,-1,-2,1,0,1,3
1570179577400337,5,2,1,1,-1,-1,-2,3
1570179577415298,-4,-1,0,0,-2,1,0,-5
1570179577415298,-3,-2,-2,-1,0,2,4,-5
1570179577417405,0,1,-2,0,-1,-1,-4,1
1570179577417405,-3,-4,-1,0,0,-2,1,-2
1570179577436244,2,-1,0,-1,-2,-1,-4,2
1570179577436244,-2,-2,-1,-1,0,-1,2,-1
1570179577453193,1,0,-1,2,1,0,-4,-3
1570179577453193,1,1,-1,0,-1,1,2,1
1570179577454191,2,0,1,1,1,1,3,1
1570179577454191,1,-2,-4,-3,-3,-1,-2,2
1570179577455188,-1,-1,0,-1,0,-1,0,11
1570179577455188,-1,-2,0,-1,0,-1,-1,-1
1570179577475177,-5,-1,0,1,-1,-1,-3,-11
1570179577475177,1,-1,1,0,-1,0,6,10
1570179577477132,1,0,-2,0,-3,-1,-4,0
1570179577477132,-1,0,-2,-2,0,-1,-2,0
1570179577498076,0,-1,-3,-1,0,0,1,6
1570179577498076,-5,-1,-1,-2,-1,-1,-3,-10
1570179577499072,3,1,3,1,-1,-2,-13,10
1570179577499072,0,-1,-1,0,1,0,1,1
1570179577512092,-1,-2,-1,-3,-2,0,0,-3
1570179577512092,1,0,0,1,2,-3,-4,4
1570179577519021,-2,-2,-2,-2,-1,-1,1,-2
1570179577519021,-1,1,-1,-1,-2,2,1,2
1570179577534979,3,-1,-1,-1,1,-1,2,3
1570179577534979,0,0,0,-1,0,2,1,6
1570179577536971,-1,-2,-3,-1,0,2,2,-1
1570179577536971,-2,0,0,-1,-1,-2,-4,-4
1570179577558054,0,0,-1,1,-1,-3,-1,-2
1570179577558054,-3,-1,1,0,0,0,1,-3
1570179577559149,-7,-4,-2,-4,-1,-2,-2,-25
1570179577559149,3,-2,0,-1,0,-2,1,19
1570179577571876,0,0,-1,0,0,-2,-3,0
1570179577571876,-2,-1,0,-1,-1,0,2,-8
1570179577578858,1,-2,-3,-1,0,-1,0,3
1570179577578858,-4,1,0,0,0,-1,2,-16
1570179577594889,0,-1,0,-1,-1,-2,-2,4
1570179577594889,-6,-2,-2,-3,-3,-1,10,-19
1570179577596811,-1,1,0,1,-1,-1,-1,-3
1570179577596811,-3,0,2,-1,-1,-1,0,-6
1570179577624737,1,-2,-2,0,1,-1,-3,7
1570179577624737,-2,-1,1,0,-2,-2,-2,0
1570179577626732,0,1,0,0,1,0,-1,-8
1570179577626732,1,0,-2,-2,1,-1,1,2
1570179577631717,-1,-2,-4,-2,0,2,1,-2
1570179577631717,3,-2,-3,-1,0,0,-2,2
1570179577638703,2,1,0,0,0,-1,0,2
1570179577638703,4,-1,-1,-3,-1,1,1,8
1570179577654656,-3,-1,-2,-1,-2,-1,-2,-1
1570179577654656,1,0,-2,-1,-2,-1,0,-1
1570179577657109,1,-2,0,1,-1,-1,-2,7
1570179577657109,-2,-1,-1,-1,-2,0,5,-8
1570179577685666,-1,-1,-2,-1,-1,-4,-7,-15
1570179577685666,7,0,1,1,0,-2,0,16
1570179577686576,-2,0,-3,-1,-1,-1,2,6
1570179577686576,-1,0,-2,-1,-1,-2,-2,0
1570179577691556,2,2,1,0,-2,0,1,-1
1570179577691556,-4,-2,1,-1,0,-1,-6,-6
1570179577698539,0,1,1,-1,0,0,-1,-3
1570179577698539,2,-3,-1,-2,-1,0,-2,1
1570179577715533,1,0,0,0,0,1,6,15
1570179577715533,-4,-1,-3,-1,-1,-1,6,-11
1570179577717488,0,1,-1,1,0,0,-5,7
1570179577717488,-1,0,-2,-1,-2,0,-4,0
1570179577737471,-4,0,-1,-1,-1,1,0,-4
1570179577737471,-2,-2,-1,-2,-1,0,3,-4
1570179577739432,1,-1,0,-1,-1,1,0,-1
1570179577739432,-4,-1,-1,2,-1,-1,-3,-1
1570179577752393,1,-2,0,1,-1,0,-2,2
1570179577752393,2,1,-1,-1,-1,1,-3,5
1570179577759375,-2,-1,-1,-1,-1,-2,0,-3
1570179577759375,0,-1,-1,-1,-1,0,-2,-1
1570179577775336,-2,0,-1,-1,-2,-1,-1,-5
1570179577775336,4,0,1,1,0,-2,-2,4
1570179577776401,0,-2,0,0,0,-1,2,-1
1570179577776401,-3,-1,0,-1,-2,0,1,-2
1570179577798272,0,-1,0,0,1,-1,0,-2
1570179577798272,-3,0,-1,1,-2,0,-4,-3
1570179577800397,-1,-1,-2,-2,0,-1,0,1
1570179577800397,0,0,-1,0,-1,0,-1,1
1570179577811536,-1,-1,0,-2,-2,1,-3,-14
1570179577811536,0,2,0,1,-1,0,-6,2
1570179577826196,0,-2,-1,-1,-2,1,1,0
1570179577826196,-3,-1,0,-2,0,0,-3,-10
1570179577835176,2,1,0,0,-1,-1,2,12
1570179577835176,-3,-1,-2,-2,-1,0,0,-5
1570179577837168,0,-1,-2,-1,-2,0,-1,1
1570179577837168,4,1,-1,-2,0,-1,-9,12
1570179577857113,-4,0,-1,-1,-1,-1,-4,-8
1570179577857113,-2,-3,-3,-2,1,-3,2,4
1570179577859109,-2,0,0,0,-1,-1,-4,0
1570179577859109,6,0,-2,-1,-1,-1,-2,11
1570179577871177,-2,0,-1,-1,-2,-1,1,0
1570179577871177,-1,0,-1,-1,-1,0,-1,-6
1570179577880052,5,-1,-1,0,0,1,1,-3
1570179577880052,-2,-1,1,1,0,1,0,-4
1570179577895012,-2,-3,-3,-1,0,-2,-1,-1
1570179577895012,-2,-3,0,0,0,-1,0,-4
1570179577897007,-2,-2,-1,-1,-2,-1,2,-1
1570179577897007,-1,1,-1,0,1,0,2,-4
1570179577917955,4,1,-3,0,-1,1,0,9
1570179577917955,-4,-1,-1,-1,-2,-1,-1,-8
1570179577918948,-1,0,-1,0,-2,-1,1,6
1570179577918948,-2,-1,0,0,0,-1,-1,-4
1570179577930971,-1,-1,2,1,0,-1,1,-4
1570179577930971,2,1,0,0,-2,1,-2,3
1570179577940018,-1,-1,-1,-3,-2,0,1,6
1570179577940018,0,0,0,0,-1,0,-2,0
1570179577962835,1,-3,0,-1,-1,0,0,5
1570179577962835,2,0,0,-1,-1,0,2,8
1570179577963828,-2,0,0,0,2,-1,-5,-17
1570179577963828,-2,0,0,0,0,-2,-4,8
1570179577978028,1,2,-1,-2,1,2,0,3
1570179577978028,1,-2,-1,-2,1,1,3,3
1570179577978791,-2,-1,-1,0,-3,-3,-6,-1
1570179577978791,-1,-2,-1,0,-3,-2,3,-4
1570179577990757,3,0,1,1,-1,-1,1,5
1570179577990757,-4,-1,-2,-1,0,-3,-6,-7
1570179578000663,0,0,0,0,0,0,3,4
1570179578000663,0,-2,-2,-1,1,0,3,1
1570179578014694,-1,-1,-1,0,0,-1,-5,-1
1570179578014694,2,1,-2,-2,0,0,-3,4
1570179578016692,-2,1,-1,-1,-1,0,-1,-2
1570179578016692,-2,-1,-1,0,-3,0,-1,-4
1570179578037637,-2,-1,-1,-1,-1,-2,-3,-1
1570179578037637,-2,-3,-2,-1,-1,-1,4,12
1570179578039626,-2,0,-2,-2,-2,0,1,-15
1570179578039626,6,3,3,1,1,-4,-15,16
1570179578051603,-3,-3,-2,0,-1,-1,4,-4
1570179578051603,-1,-1,0,-1,-1,0,0,-4
1570179578060573,-1,-1,-2,-1,0,-1,1,-1
1570179578060573,-2,-4,-1,-2,-3,0,6,-6
1570179578075539,-2,0,1,-1,-1,-1,-2,-8
1570179578075539,-1,0,0,-1,-3,-2,-4,-1
1570179578076873,-1,-2,-1,0,-2,1,-2,5
1570179578076873,-2,0,-1,1,0,-1,1,-10
1570179578096477,0,0,-1,-1,-1,0,0,5
1570179578096477,-1,0,0,0,0,-1,1,-5
1570179578105450,-2,0,-1,-2,0,1,0,-3
1570179578105450,0,-2,-2,-2,-2,0,3,3
1570179578111439,-5,-2,-1,-1,-1,-2,0,-7
1570179578111439,0,2,0,1,-1,-1,-2,-5
1570179578120414,2,0,-1,0,0,-1,1,5
1570179578120414,-1,-1,0,-1,0,0,0,5
1570179578135410,-4,-3,-2,-3,-1,0,5,-5
1570179578135410,-1,-3,-1,-3,-2,-1,0,2
1570179578136369,9,2,3,2,1,-2,-18,24
1570179578136369,-3,-1,0,0,0,-1,3,-4
1570179578156320,-2,2,-2,-1,-1,0,-1,-1
1570179578156320,-2,0,0,-1,-1,-1,-1,-6
1570179578165290,-1,0,1,-1,-1,-1,4,-2
1570179578165290,-2,-1,-1,-1,-1,1,1,-5
1570179578171277,-1,-1,-1,0,0,0,-5,-1
1570179578171277,4,-1,0,1,1,0,2,2
1570179578181247,1,-2,-1,-1,-1,0,1,1
1570179578181247,-2,0,-1,-1,-1,-1,0,0
1570179578195321,0,1,1,1,-1,-2,-2,-6
1570179578195321,-4,-2,-3,0,-1,-1,-6,-12
1570179578197211,-3,-3,-1,-1,0,1,4,-4
1570179578197211,0,-1,-2,0,-2,-1,-3,-4
1570179578217204,-1,-2,2,-1,-2,0,-1,-1
1570179578217204,2,1,-1,0,-1,1,2,6
1570179578219147,0,-1,-1,-2,0,1,6,3
1570179578219147,-4,-1,-1,1,-2,-1,-1,-23
1570179578231115,6,1,-1,-4,1,-1,-10,19
1570179578231115,1,0,-1,-2,0,-2,0,5
1570179578240090,-7,0,0,1,-1,0,-1,-18
1570179578240090,3,0,-3,-1,0,1,3,1
1570179578255050,-1,0,-2,0,-1,1,5,-4
1570179578255050,-1,1,0,0,1,-1,-2,-1
1570179578261035,0,3,-1,0,0,-2,-10,0
1570179578261035,3,0,0,1,-1,-1,1,10
1570179578278061,-4,-1,-1,-1,-3,-3,-1,-8
1570179578278061,0,0,-1,0,0,1,0,2
1570179578278990,-2,0,-1,-1,0,-1,5,1
1570179578278990,-3,-2,-1,0,1,1,-3,-3
1570179578300137,2,0,1,-1,-2,1,-1,3
1570179578300137,-4,-1,-1,-1,-2,1,2,-7
1570179578301925,2,0,0,-1,-1,0,2,10
1570179578301925,-3,0,1,-3,0,0,1,-1
1570179578315005,1,-2,-2,0,1,-1,0,4
1570179578315005,-2,-1,1,1,0,-2,-1,2
1570179578316886,0,-1,-1,0,-1,-1,0,1
1570179578316886,-2,-1,0,0,0,-3,-3,-7
1570179578337829,5,1,0,1,2,-1,-10,20
1570179578337829,4,0,-3,-1,0,-2,1,3
1570179578338828,0,-2,-1,0,0,1,1,-6
1570179578338828,0,-1,-1,-2,-1,1,2,-1
1570179578359776,-4,0,-1,-2,-2,1,5,-13
1570179578359776,-3,-2,-1,-1,-1,0,-1,-3
1570179578361769,-1,-2,0,-2,-1,-1,5,4
1570179578361769,-6,1,1,-1,-1,0,-1,-5
1570179578374731,2,-1,-2,0,1,-2,3,3
1570179578374731,1,-1,-1,-3,-1,-1,-2,-6
1570179578376824,-5,-2,-1,-1,-2,-3,0,-12
1570179578376824,1,0,0,-1,1,-1,-3,7
1570179578397672,-5,-1,-2,0,-1,-2,2,-9
1570179578397672,-3,0,-1,0,0,-1,1,-7
1570179578399664,0,-1,-2,-1,-1,-1,-4,-2
1570179578399664,2,-2,-1,-1,-1,-1,0,1
1570179578419614,-1,0,-1,-1,0,1,-3,-6
1570179578419614,-3,0,2,1,0,2,-1,2
1570179578421605,-2,1,-1,0,-2,-1,1,-2
1570179578421605,0,-1,-2,1,-2,-3,-4,-3
1570179578442552,-3,-2,-2,-2,-1,1,4,0
1570179578442552,0,-1,1,-1,-1,-2,-1,-1
1570179578444543,2,-1,0,-1,0,-1,-2,4
1570179578444543,-8,-3,-4,-3,-2,1,13,-22
1570179578457605,-2,-1,-1,1,-2,-2,-1,1
1570179578457605,1,0,0,-1,-1,0,-1,-6
1570179578459618,-3,-2,0,0,1,0,-2,-5
1570179578459618,5,-1,-1,-1,1,0,2,14
1570179578480453,-1,0,0,0,0,0,1,-5
1570179578480453,-1,0,-1,-1,0,-1,0,2
1570179578481562,-1,0,-1,-1,-1,0,1,-6
1570179578481562,0,1,0,0,0,-2,-8,6
1570179578494410,4,-1,-1,0,-1,-2,-2,-8
1570179578494410,1,-1,-1,-1,-1,-1,4,24
1570179578501392,2,2,0,0,-1,-2,-4,2
1570179578501392,2,-1,-1,0,0,-1,-2,5
1570179578517462,0,-1,0,-2,0,0,-3,2
1570179578517462,-2,-1,-2,-2,1,-1,0,-4
1570179578519513,1,-1,-1,-2,0,2,0,0
1570179578519513,-1,-1,1,-1,-3,0,-2,1
1570179578540290,2,1,-1,2,0,0,-6,10
1570179578540290,3,-1,-1,0,0,0,1,-1
1570179578541379,-3,-1,-2,-1,-1,-1,0,-3
1570179578541379,0,1,0,0,2,-1,-4,1
1570179578554252,-2,-1,0,0,-2,-1,1,3
1570179578554252,-2,-1,0,1,0,-1,-2,-8
1570179578561271,-1,-1,0,-1,-1,-1,2,2
1570179578561271,1,-2,0,0,-1,0,3,1
1570179578577189,-5,0,1,-1,2,-1,-1,-12
1570179578577189,0,-1,-2,-1,0,-1,0,1
1570179578579184,-4,-1,0,-2,-2,-3,-4,-13
1570179578579184,1,-1,1,1,-2,-1,1,2
1570179578607146,0,0,-1,-2,-1,-1,0,-2
1570179578607146,2,-1,-1,-1,0,1,2,18
1570179578609103,3,2,-2,2,0,0,-2,-1
1570179578609103,-2,-1,-1,-1,-1,-2,2,-1
1570179578614128,3,0,0,2,0,-1,-6,13
1570179578614128,-1,-1,0,-2,-1,0,-2,-6
1570179578623070,-1,-1,-2,-2,2,0,0,-1
1570179578623070,-8,-3,-1,0,-2,3,16,-19
1570179578638026,-1,-1,-1,-1,-2,-3,-5,-3
1570179578638026,-3,0,0,0,-1,-1,-1,-6
1570179578639025,1,0,-1,-1,1,0,-2,4
1570179578639025,5,0,-1,-1,0,-1,-2,-5
1570179578660198,-1,-1,-1,-2,-1,0,6,-2
1570179578660198,-1,-1,0,-1,-1,0,-2,-3
1570179578661966,-1,-2,-1,0,-1,0,0,0
1570179578661966,-4,1,-2,-1,1,-1,-6,-3
1570179578674641,1,1,0,-1,0,1,2,-4
1570179578674641,1,1,1,0,-1,-2,-3,1
1570179578681602,-1,-3,0,1,0,-1,2,5
1570179578681602,-2,0,-2,-3,0,-2,-7,3
1570179578697756,-1,0,-1,-2,0,0,2,-3
1570179578697756,-2,-3,0,0,0,0,3,-4
1570179578699179,-1,0,0,-1,-2,0,0,1
1570179578699179,0,-1,0,-1,-2,-1,-4,5
1570179578719824,-2,0,0,1,0,-1,0,-1
1570179578719824,-1,-2,-3,-2,0,0,-1,-3
1570179578721779,1,-1,1,0,0,-1,-1,-3
1570179578721779,4,0,0,0,0,1,-2,14
1570179578734871,-3,0,-1,0,-1,-2,-6,-12
1570179578734871,-1,1,0,1,-2,0,0,0
1570179578741493,3,0,-1,-1,-1,-1,-4,5
1570179578741493,-3,1,0,0,-3,-2,-4,-5
1570179578757565,-2,-1,-1,-1,0,0,1,-1
1570179578757565,1,3,1,3,-1,-1,-4,-10
1570179578759525,-3,0,-2,-1,-1,-1,3,-2
1570179578759525,0,-1,0,-1,-1,1,-1,2
1570179578780427,2,-2,-1,-2,-2,0,-2,0
1570179578780427,-2,-1,-2,-2,-2,-2,-5,-12
1570179578781604,0,1,0,0,-1,-1,2,2
1570179578781604,1,-1,-1,-1,1,-1,0,2
1570179578793868,-1,0,0,-1,-1,-1,-3,5
1570179578793868,-5,0,-3,0,-1,0,0,0
1570179578802660,-1,-1,-1,0,-2,0,-1,-1
1570179578802660,0,-1,0,-1,0,0,0,2
1570179578817863,1,-2,-3,0,-2,0,8,3
1570179578817863,5,0,0,0,-1,-1,-14,14
1570179578819688,0,-1,-2,-1,-2,-1,-1,-1
1570179578819688,-3,0,-1,0,0,-2,-2,-8
1570179578840527,-4,-3,-1,1,1,-1,0,-2
1570179578840527,0,-1,-1,0,0,-1,5,1
1570179578841522,-1,-1,-1,-1,0,0,-3,-4
1570179578841522,9,2,2,2,1,0,2,26
1570179578854491,-2,-1,-2,-1,-1,0,-2,-4
1570179578854491,-3,-1,-1,-2,-2,-1,1,-3
1570179578862638,-6,-4,-1,-1,-2,2,6,-6
1570179578862638,-5,-1,-1,-1,0,-1,1,-9
1570179578885435,-2,-1,0,-2,-1,0,-1,-5
1570179578885435,1,-1,-1,1,-1,0,5,9
1570179578887203,1,0,-2,-1,0,0,-1,-1
1570179578887203,-2,-2,-1,0,1,-1,-1,-1
1570179578900319,2,1,1,0,-1,-1,-2,5
1570179578900319,-4,-1,-1,-3,-1,1,4,-18
1570179578901606,2,0,-1,-1,0,-1,-1,7
1570179578901606,2,-1,-3,-1,-1,-1,-2,-2
1570179578913275,0,1,0,-1,0,0,-6,9
1570179578913275,-2,-2,-2,-2,0,-2,2,1
1570179578923243,-2,-1,-1,-1,0,-1,-4,-4
1570179578923243,-1,-1,-1,-1,-1,0,-1,-4
1570179578937292,0,0,-1,-1,0,-1,3,-4
1570179578937292,-2,1,2,2,0,-1,-2,-3
1570179578939489,3,-1,-2,0,-1,-2,0,8
1570179578939489,-3,-1,0,1,-1,0,-3,-4
1570179578960835,-1,0,0,0,0,0,0,-4
1570179578960835,2,-2,-1,-1,-2,-2,0,3
1570179578961524,-3,1,0,1,-1,-3,-2,-3
1570179578961524,0,-1,-2,-3,-2,-1,1,1
1570179578974487,-4,-3,-2,-3,-1,1,8,-10
1570179578974487,0,0,-2,-1,-1,1,-1,1
1570179578982600,-3,0,-2,-2,0,0,2,-6
1570179578982600,2,0,-1,0,0,-1,-1,5
1570179578997438,3,0,-1,0,0,-2,-16,10
1570179578997438,-4,-3,-3,-2,-1,-3,-2,0
1570179578999704,2,0,0,-3,-1,-1,-1,-5
1570179578999704,-2,-1,-1,-1,1,-1,4,-6
1570179579020365,0,-1,1,-2,-1,0,3,1
1570179579020365,-1,0,-1,0,-2,-2,0,2
1570179579021369,1,-1,0,-1,-2,-1,-3,1
1570179579021369,-2,0,0,2,0,1,2,-6
1570179579034325,-3,-2,-1,-1,0,0,5,-9
1570179579034325,-1,0,-2,-1,-1,0,0,1
1570179579048414,4,-1,-1,2,-2,0,1,11
1570179579048414,1,-1,-1,-1,-1,0,-2,4
1570179579057269,1,0,-1,0,0,-2,2,1
1570179579057269,1,1,2,0,2,4,3,2
1570179579059299,0,0,-1,1,2,-2,-12,11
1570179579059299,-1,-2,1,0,0,-2,-6,-5
1570179579080203,-1,-1,1,3,0,-1,-2,-3
1570179579080203,3,2,0,-1,-1,0,1,-4
1570179579082198,-2,-1,-1,0,0,2,2,-1
1570179579082198,-4,-1,-2,-2,-1,0,-5,-17
1570179579094167,-1,-1,-1,-1,0,-1,-3,0
1570179579094167,0,0,-2,-1,-1,-2,-1,-2
1570179579109126,-4,0,-1,-1,1,1,2,-4
1570179579109126,0,-2,0,-1,-2,-2,-5,-11
1570179579118103,1,0,-2,0,0,-1,1,1
1570179579118103,0,-1,0,1,-1,0,-1,2
1570179579119100,-2,0,-1,0,-1,-2,0,-6
1570179579119100,-3,-2,-2,-1,-2,0,3,0
1570179579140525,-3,-3,-2,-1,-2,-3,-5,-3
1570179579140525,-3,0,1,-1,0,1,-2,0
1570179579142039,-1,0,0,0,0,-1,-1,-6
1570179579142039,-1,-1,1,1,-2,0,-1,2
1570179579154005,1,-2,-2,-1,-2,-1,-1,7
1570179579154005,-2,-2,-2,-2,0,-1,-2,0
1570179579162982,-5,-2,0,-1,-3,-2,0,-11
1570179579162982,1,-1,-2,-2,-2,-2,-2,-7
1570179579178989,-2,-1,-1,-1,0,1,0,0
1570179579178989,-1,-1,-1,0,-2,-2,0,-1
1570179579183924,3,1,0,2,1,1,0,8
1570179579183924,-5,1,0,0,2,0,1,1
1570179579199880,-3,-2,-2,-3,-2,-1,0,-3
1570179579199880,2,1,2,2,-1,0,-1,0
1570179579201876,10,0,1,3,3,2,4,25
1570179579201876,-9,1,11,5,0,0,-8,-18
1570179579222894,-5,-1,-11,-4,-1,-1,8,-3
1570179579222894,9,-2,-6,-3,11,8,3,16
1570179579223817,-1,0,4,0,3,-5,5,2
1570179579223817,-1,-4,-8,-12,-35,-15,-14,-10
1570179579237779,-7,5,6,3,1,2,0,-18
1570179579237779,4,1,3,8,13,9,6,-3
1570179579238946,0,-2,1,4,9,8,-1,1
1570179579238946,9,-3,2,-2,-8,-6,4,24
1570179579259733,0,1,-10,-9,-22,-18,-6,-14
1570179579259733,7,13,4,0,-4,-7,-18,-2
1570179579261781,3,26,4,-5,2,4,3,-14
1570179579261781,-34,-65,1,8,9,1,0,4
1570179579282729,-4,-7,-11,1,11,10,10,4
1570179579282729,8,1,22,10,10,5,13,11
1570179579284654,-4,0,6,-6,-5,-5,-24,-27
1570179579284654,11,16,26,0,-1,2,7,-5
1570179579296633,-25,-34,-26,-19,-6,-4,3,-9
1570179579296633,20,48,8,10,6,-2,-12,-18
1570179579303613,12,18,4,-6,-12,1,4,2
1570179579303613,-34,-17,-14,-5,4,9,30,14
1570179579320568,-19,-39,-17,2,9,-2,-45,6
1570179579320568,12,-19,-33,-18,-16,-14,-14,-11
1570179579321566,1,2,-4,1,-7,-5,-3,2
1570179579321566,23,40,18,14,10,3,3,7
1570179579342510,10,23,33,12,1,7,32,19
1570179579342510,-19,-3,-1,-8,-11,-4,-17,-5
1570179579344504,-10,-44,-25,4,12,7,24,-23
1570179579344504,22,21,-9,-4,0,2,0,-16
1570179579356959,8,24,18,6,-2,-10,-37,-25
1570179579356959,-10,-1,-2,-7,-5,0,5,-4
1570179579363454,-6,-5,2,3,40,17,13,13
1570179579363454,-10,1,-16,-6,-8,5,28,24
1570179579380410,24,-9,0,-6,-22,-18,31,24
1570179579380410,1,3,22,-3,-30,-22,-75,-1
1570179579381407,-28,-20,-11,9,-2,-1,18,2
1570179579381407,-3,-2,-13,1,22,5,-31,-19
1570179579402349,-20,-7,-3,1,24,21,10,4
1570179579402349,-5,-14,-12,-8,-19,-6,28,0
1570179579404345,25,20,14,-1,-18,-12,-15,-2
1570179579404345,12,18,2,10,45,20,-5,1
1570179579416314,26,16,-1,-7,-48,-18,-5,8
1570179579416314,-43,-28,-5,-4,-20,-16,14,7
1570179579425291,-4,-6,0,-4,-11,-2,-11,11
1570179579425291,-46,-32,0,4,-5,-10,-2,9
1570179579440251,57,50,-22,-20,19,12,-6,1
1570179579440251,5,-7,16,17,19,16,15,8
1570179579442243,34,35,18,20,-8,-6,-3,9
1570179579442243,-22,-31,2,-2,1,-1,-9,-1
1570179579462261,-29,-2,0,5,7,6,2,6
1570179579462261,24,-2,-32,-15,0,-4,4,-2
1570179579464190,-13,-1,0,-1,19,9,-4,2
1570179579464190,6,-9,5,0,-18,-9,-3,4
1570179579476583,2,16,35,23,12,10,-2,8
1570179579476583,50,24,-10,-16,-14,-5,7,-4
1570179579485283,-62,-40,-18,-7,6,3,-6,-16
1570179579485283,16,-8,-13,-4,-16,-9,5,-5
1570179579500393,-33,-10,2,-10,-6,-7,-10,-10
1570179579500393,7,-6,-12,3,33,18,9,6
1570179579502083,23,36,2,-9,0,-3,-4,7
1570179579502083,49,31,4,2,-1,-1,0,9
1570179579523071,10,-11,-11,-8,-12,-11,-10,-17
1570179579523071,-66,-45,2,3,7,11,10,10
1570179579524026,-12,-13,0,3,3,-2,1,6
1570179579524026,19,14,-11,-1,-1,0,-5,0
1570179579536003,13,3,8,11,2,2,7,17
1570179579536003,-5,18,4,3,7,2,9,-4
1570179579544970,-22,-24,-5,-10,-9,-6,-14,-7
1570179579544970,-8,3,2,-4,-11,-8,-8,-15
1570179579560325,-7,-25,0,11,9,7,6,1
1570179579560325,-50,-21,-7,-13,-3,-9,-1,-24
1570179579561925,5,3,-1,7,-14,-2,0,-2
1570179579561925,-3,23,1,-5,11,6,-6,-21
1570179579582874,44,24,-13,-12,-33,-14,-6,-16
1570179579582874,10,10,15,16,1,-1,0,6
1570179579584088,-14,-27,0,-1,-3,-3,3,-2
1570179579584088,-8,-13,-13,-12,5,10,3,2
1570179579595950,-31,-2,-4,1,13,0,13,-31
1570179579595950,2,-4,12,8,-6,-2,-8,7
1570179579611799,23,10,-17,-20,-15,-7,-6,-11
1570179579611799,-3,-1,3,7,-1,-2,2,7
1570179579628130,-16,-13,-13,-22,22,15,3,-4
1570179579628130,18,16,15,19,-22,-7,3,4
1570179579628747,20,32,11,2,-5,-2,3,1
1570179579628747,-36,-50,-11,9,5,0,0,-7
1570179579642871,23,-5,-6,-3,0,-4,-7,4
1570179579642871,13,7,-10,-10,17,8,-4,-13
1570179579644703,-20,-7,6,-1,-21,-11,6,8
1570179579644703,16,24,10,-5,-9,-5,-4,7
1570179579656679,-1,-1,11,20,5,-1,0,0
1570179579656679,-19,-12,-1,2,17,9,-4,-27
1570179579665771,-1,-4,-8,-2,-10,-3,5,-11
1570179579665771,-5,-5,-7,-8,-8,-11,-16,3
1570179579680611,7,-2,5,3,2,-1,-1,10
1570179579680611,7,19,8,7,7,-1,0,7
1570179579681605,16,12,-3,1,6,4,-1,1
1570179579681605,-21,-31,2,-2,6,3,5,-1
1570179579703547,-23,2,6,9,0,4,2,10
1570179579703547,43,22,-5,-1,-9,-9,-6,2
1570179579704544,16,3,4,-1,11,2,-4,-24
1570179579704544,-19,-10,-8,-18,-15,0,6,-15
1570179579716511,-6,-5,-1,3,-3,-4,-2,7
1570179579716511,-23,-17,-4,-9,-4,2,7,6
1570179579725488,-3,-7,-10,-16,-8,-2,-4,12
1570179579725488,17,24,10,9,13,5,2,5
1570179579740452,11,5,9,6,-1,-2,1,20
1570179579740452,-50,-50,-24,-7,-2,-3,-5,2
1570179579741444,-43,-18,0,2,4,4,1,4
1570179579741444,86,42,-14,-14,5,3,-5,11
1570179579762388,0,-7,-1,-9,-6,1,-2,6
1570179579762388,-15,-3,0,-7,-31,-23,-5,-16
1570179579764389,-8,-5,-1,-4,9,4,0,7
1570179579764389,-17,0,13,15,3,3,3,6
1570179579784336,-4,2,1,-4,-4,2,2,0
1570179579784336,11,9,3,-3,6,4,4,9
1570179579785330,14,3,4,3,-5,-4,-6,7
1570179579785330,0,0,-6,-4,1,-1,-2,-4
1570179579799289,6,9,-7,-11,-1,0,-4,-8
1570179579799289,10,17,-3,0,-1,0,3,-2
1570179579800287,1,-20,3,7,0,-2,-2,-8
1570179579800287,-18,-29,-5,1,0,-2,10,-3
1570179579830209,-20,8,9,-2,-9,-6,-9,-24
1570179579830209,27,3,-1,3,7,5,9,32
1570179579831212,16,15,7,7,24,12,7,17
1570179579831212,18,28,-8,5,-2,-5,-3,-1
1570179579844170,-38,-23,6,3,-11,-1,-3,-5
1570179579844170,90,22,-1,-3,-15,-5,0,0
1570179579845167,-90,-68,-22,-17,-10,-9,-14,-21
1570179579845167,1,-13,-2,-2,16,14,8,5
1570179579859139,39,24,4,30,101,43,33,22
1570179579859139,63,27,4,-1,-82,-32,-27,20
1570179579860126,-38,-2,5,-19,-49,-31,-51,-38
1570179579860126,-87,-9,5,-3,-24,-16,-7,-25
1570179579882068,-19,-49,-12,-6,19,13,3,-13
1570179579882068,6,27,21,34,79,45,31,11
1570179579883066,80,18,11,19,-30,-13,19,22
1570179579883066,60,76,7,1,15,8,-22,-10
1570179579906009,-77,-74,-10,-2,-6,-21,-24,-30
1570179579906009,23,-13,-9,-2,60,26,10,28
1570179579906009,67,26,2,3,-23,-8,30,25
1570179579906009,-63,-25,22,9,-47,-25,-9,12
1570179579919968,71,48,-4,-26,4,24,24,36
1570179579919968,-128,-52,-18,10,-17,-25,-28,-88
1570179579919968,33,28,13,25,50,17,-10,-2
1570179579919968,49,-8,-7,-15,-32,-20,-1,4
1570179579942005,57,18,-9,-1,36,14,9,7
1570179579942005,-31,-37,-10,-18,-46,-23,-9,7
1570179579942905,45,81,10,-28,-49,-8,12,2
1570179579942905,-10,-78,-9,6,3,7,12,-3
1570179579964846,22,29,1,0,-21,-12,-23,-3
1570179579964846,78,17,3,12,78,34,18,26
1570179579964846,-57,-59,-18,4,-23,-16,-3,-27
1570179579964846,-34,3,8,11,20,4,-4,6
1570179579979806,0,23,5,7,-23,-3,35,-21
1570179579979806,-28,-10,13,5,3,-2,-40,-10
1570179579980806,44,14,4,11,16,7,3,25
1570179579980806,87,33,-1,-3,-10,-1,5,25
1570179580001981,-34,-47,-3,15,78,26,5,-40
1570179580001981,102,78,21,14,-26,-15,1,76
1570179580002745,-89,-87,-14,-24,-51,-25,-5,-10
1570179580002745,83,48,-25,-23,5,-6,-13,-12
1570179580024687,-52,-14,34,23,-44,-24,-12,12
1570179580024687,-9,-7,-8,-21,22,14,6,-27
1570179580025686,95,31,-6,5,48,27,5,18
1570179580025686,-117,-50,-14,-7,-7,-4,-5,-32
1570179580039647,88,32,-6,-14,-24,-12,-14,5
1570179580039647,-37,-19,7,-6,-21,-7,8,-7
1570179580040645,-76,-12,2,10,22,16,-1,-28
1570179580040645,19,5,-9,-7,31,12,4,6
1570179580071566,72,53,9,-10,-26,-12,7,30
1570179580071566,-128,-90,11,24,1,-4,5,-58
1570179580072563,43,9,-6,2,16,12,-5,12
1570179580072563,17,5,7,0,-18,-6,5,5
1570179580085532,-28,2,-8,-13,-22,-17,-8,19
1570179580085532,-10,5,-20,-28,-39,-14,9,4
1570179580085752,20,8,2,-4,28,9,-6,-4
1570179580085752,-2,-5,8,4,7,11,-3,-15
1570179580107464,66,34,2,10,5,-5,10,13
1570179580107464,-74,-41,-1,-8,-24,2,-14,-15
1570179580108873,25,1,-5,-13,-2,-5,0,-1
1570179580108873,24,9,-3,8,11,6,-1,14
1570179580122466,-10,-15,-7,-15,-28,-9,-10,-8
1570179580122466,69,2,-20,-15,20,6,-5,-1
1570179580122466,-22,19,-6,2,17,7,3,3
1570179580122466,2,-4,25,0,-26,-10,5,5
1570179580145508,-11,2,-16,-13,-18,-6,7,-11
1570179580145508,-71,-18,5,8,7,1,-12,-9
1570179580146362,24,8,0,4,10,8,9,9
1570179580146362,1,9,-2,6,52,10,6,14
1570179580159326,-16,-21,-13,-29,-74,-20,-26,-7
1570179580159326,39,21,3,-2,7,5,17,9
1570179580167308,-54,-16,-3,-3,-22,-13,-1,-12
1570179580167308,15,5,5,12,26,17,7,10
1570179580182296,30,3,5,10,11,0,-23,1
1570179580182296,-21,1,-6,-1,-16,-19,-1,-20
1570179580183264,102,36,3,2,-5,-4,17,22
1570179580183264,-113,-64,-12,-9,-4,1,1,14
1570179580205211,29,-7,-1,10,24,6,0,10
1570179580205211,121,62,0,-2,-6,2,-3,56
1570179580206201,-116,-42,16,12,33,7,-1,-9
1570179580206201,38,20,-8,-12,-20,-4,3,-3
1570179580219166,8,-9,14,15,-19,-5,-4,-15
1570179580219166,-14,-6,-5,-4,8,-1,-18,4
1570179580220163,-11,-15,-9,-5,-17,-7,-1,10
1570179580220163,9,18,7,5,37,21,-4,-12
1570179580242179,-3,16,5,5,8,4,4,-19
1570179580242179,3,-7,2,-3,-24,-14,16,-16
1570179580243107,-5,3,2,1,16,12,-6,0
1570179580243107,0,15,6,5,12,6,6,8
1570179580264311,-3,-17,-18,-13,-40,-17,-15,7
1570179580264311,-14,-1,4,-1,-10,-6,7,-23
1570179580265358,-66,-43,-14,-7,-17,-8,-28,-53
1570179580265358,82,29,15,32,33,14,3,6
1570179580280008,62,33,6,-2,2,14,16,13
1570179580280008,-13,4,-3,4,-8,-15,4,6
1570179580280216,-12,-16,-1,7,35,13,-7,16
1570179580280216,38,18,3,-8,-59,-26,7,15
1570179580302392,58,16,11,4,34,9,-11,-8
1570179580302392,24,8,-11,-4,4,9,1,8
1570179580302942,41,28,22,15,16,-3,-6,-10
1570179580302942,-28,-49,-9,-8,-39,-14,-5,-7
1570179580324883,35,7,-13,-16,-1,-3,0,-2
1570179580324883,-23,3,6,7,19,15,5,24
1570179580325297,0,-3,5,-1,1,6,8,26
1570179580325297,89,41,-10,-9,25,9,-2,26
1570179580348824,-52,-30,10,14,-16,-7,2,33
1570179580348824,15,3,10,-10,29,15,2,-11
1570179580349818,30,-14,-1,17,6,12,-26,72
1570179580349818,30,18,-5,-21,-64,-36,-19,-28
1570179580361785,-75,-25,-9,-7,-9,-7,6,-11
1570179580361785,83,43,-8,0,19,10,-7,22
1570179580362784,29,15,17,4,3,2,16,-14
1570179580362784,-127,-84,5,11,-1,-8,-9,-85
1570179580384723,17,-4,-12,5,61,24,-9,11
1570179580384723,25,10,4,-5,-2,2,-2,-17
1570179580385721,0,-24,-37,-44,-50,-25,-11,-6
1570179580385721,21,62,17,10,-3,2,7,-11
1570179580399683,-18,-27,-2,-9,-15,-11,11,-14
1570179580399683,-40,-29,-17,-8,15,14,2,-55
1570179580399683,1,16,-8,-5,-14,-14,5,-30
1570179580399683,16,4,-1,-9,0,-1,-4,11
1570179580422378,80,49,10,15,29,12,6,23
1570179580422378,-38,-45,-20,-16,-52,-31,-8,-50
1570179580422623,28,1,14,12,20,12,9,-4
1570179580422623,9,-10,-9,-2,-8,4,-1,76
1570179580444609,-86,-22,-4,-12,-8,-6,1,-23
1570179580444609,-2,3,3,4,30,16,-4,25
1570179580445565,42,36,2,-2,-32,-22,2,-13
1570179580445565,91,42,13,14,4,0,8,2
1570179580460861,-128,-59,-18,5,17,9,-13,-47
1570179580460861,15,-3,6,0,-6,-3,-2,-1
1570179580462187,16,19,-1,-8,5,4,5,15
1570179580462187,-47,-36,1,6,2,-1,-12,-15
1570179580490444,52,24,-1,4,1,-3,-5,36
1570179580490444,22,28,17,7,9,6,10,25
1570179580490444,-10,-11,-8,3,20,2,4,-9
1570179580490444,29,16,0,6,15,7,7,31
1570179580504490,-26,-15,-6,-9,-36,-14,-5,-21
1570179580504490,-13,7,12,5,10,0,-5,-38
1570179580505406,8,-10,-6,-5,-9,-5,4,4
1570179580505406,-13,-35,-21,-20,0,-3,-2,-15
1570179580519364,78,55,26,17,1,7,7,6
1570179580519364,-61,-80,-17,-3,2,-1,-3,-19
1570179580520710,22,-9,4,9,6,-6,6,-70
1570179580520710,-34,-12,0,-9,-19,-9,-3,-7
1570179580541312,93,39,1,-1,26,11,12,32
1570179580541312,32,17,4,3,10,5,13,-16
1570179580549760,-103,-43,-12,-14,-34,-17,-8,-17
1570179580549760,12,-18,-4,14,17,9,5,6
1570179580564305,86,65,11,-8,-10,-3,5,16
1570179580564305,-34,-35,-3,1,7,1,-5,4
1570179580565242,56,6,1,14,-2,1,6,16
1570179580565242,31,14,-3,-14,0,-2,-2,15
1570179580579347,-57,-40,-16,-22,-35,-7,3,13
1570179580579347,-3,18,7,17,24,0,-5,8
1570179580580209,-58,-22,-5,-10,-40,-2,-4,7
1570179580580209,-16,-1,-5,-3,24,5,-1,8
1570179580602147,42,25,18,15,13,9,7,9
1570179580602147,-76,-66,-26,-10,10,0,-11,-19
1570179580603188,47,29,-2,-12,-47,-18,-2,39
1570179580603188,38,2,-9,-20,-5,-2,11,-32
1570179580625086,-94,-35,-1,17,9,3,3,-44
1570179580625086,23,27,12,7,-3,3,-2,70
1570179580626078,69,28,1,0,24,9,0,-6
1570179580626078,42,5,0,1,-10,-1,2,-4
1570179580639050,-61,-28,-3,-6,4,-2,-3,-4
1570179580639050,34,10,0,-8,-22,-7,-4,-17
1570179580640132,74,37,6,8,30,13,9,17
1570179580640132,-61,-13,1,3,-11,-4,-5,12
1570179580662054,11,-16,-6,-4,-2,-3,8,-12
1570179580662054,21,26,5,7,-14,1,-6,39
1570179580662982,-47,-24,-8,-5,18,-2,-6,-40
1570179580662982,30,22,11,12,12,1,-6,14
1570179580684921,9,-1,-3,0,-5,-7,-11,-9
1570179580684921,15,1,-8,-7,-11,-4,4,-28
1570179580685930,16,3,-1,-5,2,6,5,0
1570179580685930,-50,-17,-1,3,-4,-1,-6,-9
1570179580699881,35,2,0,-4,4,-1,-2,12
1570179580699881,19,12,1,-1,-13,-6,5,4
1570179580699881,-21,-6,5,16,13,6,-3,10
1570179580699881,-1,-1,0,2,-2,-3,1,-19
1570179580722820,-4,-3,0,-3,-5,-4,-25,17
1570179580722820,-3,0,3,-1,-4,-2,9,11
1570179580723607,-13,-12,-10,-7,1,0,-2,-2
1570179580723607,-15,0,4,6,-2,-2,-14,8
1570179580744762,-14,-13,-7,-2,-1,-2,-3,-26
1570179580744762,15,-1,-3,-7,-8,-6,-2,4
1570179580745222,22,15,7,4,11,4,-11,10
1570179580745222,29,8,0,-2,-1,-1,4,11
1570179580759728,-4,-18,-4,1,1,0,2,0
1570179580759728,-48,-4,1,3,2,2,1,-10
1570179580760720,19,7,0,-3,-4,1,3,8
1570179580760720,26,20,-2,-2,-2,-2,0,-16
1570179580790645,-41,-13,-4,0,-2,-7,-10,-13
1570179580790645,-36,-10,2,-1,-5,-4,-9,-8
1570179580790645,23,9,3,2,1,0,5,12
1570179580790645,-30,-11,4,2,-1,1,-2,3
1570179580804606,-3,0,-4,-4,-2,0,-2,0
1570179580804606,39,18,0,-4,-4,1,7,10
1570179580805600,-27,-5,3,2,3,3,-2,-6
1570179580805600,-6,-14,-7,-1,-3,-1,-2,5
1570179580818627,-39,-23,-9,-9,-6,-3,-1,-27
1570179580818627,77,40,13,8,0,-4,-12,36
1570179580826552,-23,-16,-4,-3,1,0,-1,-8
1570179580826552,-31,-12,-7,-4,-4,-6,-3,-61
1570179580841507,1,5,4,4,-1,-2,-3,-4
1570179580841507,31,0,-3,1,-1,0,4,-7
1570179580849488,3,4,0,1,-1,-1,-2,1
1570179580849488,-15,-7,0,-2,2,-1,-11,-14
1570179580865506,-23,-14,-2,-2,-2,-2,-2,2
1570179580865506,52,23,2,0,1,0,3,1
1570179580866438,-5,-2,-2,-2,2,0,0,21
1570179580866438,-17,-9,-2,-5,-5,2,7,3
1570179580878407,13,8,5,2,2,0,2,10
1570179580878407,-18,-1,3,-1,-3,-1,8,4
1570179580887379,-2,0,2,1,-1,-2,-5,-21
1570179580887379,17,1,-9,-10,-5,-1,12,5
1570179580902386,5,-5,-6,-5,-3,1,0,2
1570179580902386,57,17,7,10,6,-1,4,12
1570179580902386,-81,-24,-1,0,-1,-1,2,-11
1570179580902386,-28,-6,3,2,0,1,2,-9
1570179580924286,16,-7,-2,-5,0,-1,5,10
1570179580924286,-33,-11,-12,-15,-6,-1,-3,-15
1570179580925278,33,24,5,4,-6,-2,-3,-14
1570179580925278,7,12,5,4,1,-4,-6,23
1570179580939241,-33,-24,-9,-2,0,5,1,0
1570179580939241,-32,-15,-7,-8,-7,-4,-5,-9
1570179580947237,35,15,2,3,7,3,4,12
1570179580947237,-73,-28,-2,0,0,-1,-3,-13
1570179580962182,11,17,5,2,-1,-2,-3,-7
1570179580962182,12,12,7,2,3,3,13,-1
1570179580963179,-2,-1,-4,-1,1,6,-10,1
1570179580963179,8,-15,-3,2,0,-3,3,13
1570179580992185,-25,-2,-1,-6,-2,2,-10,-15
1570179580992185,26,0,-1,6,1,0,8,10
1570179581000083,-3,4,5,2,2,0,3,9
1570179581000083,46,20,7,5,10,30,8,40
1570179581002074,-62,-22,-6,-5,-7,-16,4,72
1570179581002074,11,-13,-16,-6,-11,-11,-14,-24
1570179581015040,1,-5,-3,-2,-1,-3,3,4
1570179581015040,43,18,1,-2,-2,2,0,-26
1570179581022358,-19,-13,0,2,2,4,0,-27
1570179581022358,12,12,13,11,7,1,-3,4
1570179581023017,-8,-12,-7,-3,-1,-1,-2,1
1570179581023017,6,11,0,-1,-1,-4,-2,-21
1570179581043966,26,4,-6,-1,-2,3,2,-9
1570179581043966,-56,-19,-4,-9,2,-1,-1,-11
1570179581044960,13,4,1,0,-2,-2,1,1
1570179581044960,3,3,1,-4,-3,-4,-1,26
1570179581059112,29,9,3,6,4,-3,0,-4
1570179581059112,-17,-5,-1,-2,-2,1,0,-5
1570179581067083,3,0,0,1,10,0,3,-2
1570179581067083,-3,-5,-1,-3,-13,-10,-4,-5
1570179581081885,13,4,5,4,3,2,-1,-4
1570179581081885,-1,2,-1,-3,-1,1,-6,-17
1570179581082860,20,2,2,2,4,2,5,12
1570179581082860,-15,-8,-3,0,2,-6,-2,3
1570179581104804,37,10,-2,-1,-4,0,-3,-8
1570179581104804,-9,-2,-2,0,1,0,-2,-25
1570179581104804,-12,-8,-5,-5,-9,-3,11,-4
1570179581104804,12,3,0,0,0,-3,-21,10
1570179581127738,-7,2,1,2,1,2,3,-6
1570179581127738,9,0,1,-3,-4,-1,0,2
1570179581128734,11,-4,-3,-3,-3,-9,-3,-4
1570179581128734,9,-2,-4,1,0,8,8,-3
1570179581141744,-5,2,7,7,4,-2,0,3
1570179581141744,-3,-3,-4,-2,0,-2,-6,3
1570179581142701,-3,-1,-1,0,-3,0,-1,47
1570179581142701,-7,-2,-1,-2,-2,-4,2,63
1570179581164639,-5,-4,-4,-3,-1,-2,-1,75
1570179581164639,5,0,-2,1,-1,1,10,85
1570179581165635,-4,2,2,0,-1,1,-2,32
1570179581165635,-10,-6,-2,-3,0,-2,3,14
1570179581187622,10,4,-1,1,-1,1,-2,-14
1570179581187622,5,-1,1,0,-3,-1,-6,-63
1570179581188576,-6,-3,-3,1,-1,0,-7,-56
1570179581188576,-2,-2,-2,-2,-3,3,2,-128
1570179581201547,24,5,3,3,1,-13,-13,-82
1570179581201547,1,-2,-1,-4,2,-1,1,-59
1570179581202535,0,-1,-1,-1,-3,0,-9,-38
1570179581202535,1,-1,-1,-1,-1,-2,1,-18
1570179581224617,-6,-2,-2,-4,-3,3,4,-2
1570179581224617,-6,-2,0,-2,-3,-2,-3,49
1570179581225482,2,3,1,0,1,-2,-4,40
1570179581225482,2,0,-1,1,-1,-1,-1,57
1570179581247418,-2,-2,-3,-2,1,1,4,74
1570179581247418,-5,0,-2,1,0,-3,-6,63
1570179581248415,-4,-2,-1,0,-2,-2,-2,40
1570179581248415,0,-1,-3,0,0,-1,1,32
1570179581262378,-6,-2,-1,-1,-1,0,0,0
1570179581262378,4,-2,-2,0,-1,2,2,0
1570179581263375,-3,-1,-1,-1,-1,2,4,-20
1570179581263375,0,-4,0,-2,0,-3,-2,-3
1570179581284362,-6,1,1,1,0,0,-7,-43
1570179581284362,1,0,1,0,0,2,4,-8
1570179581285317,4,2,1,1,0,0,5,25
1570179581285317,-5,-1,0,0,-2,-3,7,-2
1570179581307418,-1,-3,-1,-1,0,3,5,-13
1570179581307418,-1,-2,-2,0,-2,-1,-2,-8
1570179581308761,-4,0,2,1,-1,-2,-8,-15
1570179581308761,-2,1,-1,-1,0,-1,1,-11
1570179581330201,1,0,1,1,1,0,0,3
1570179581330201,-1,-2,-1,0,0,-1,-1,-2
1570179581331309,-5,-3,0,-2,-1,-2,8,-19
1570179581331309,4,3,1,2,2,-3,-7,1
1570179581344159,-2,-1,-2,-2,-1,0,-1,-2
1570179581344159,2,0,-1,-3,0,-1,-2,7
1570179581345156,-3,0,-1,0,-2,0,-3,-13
1570179581345156,-2,0,-1,-1,-1,-1,-1,-5
1570179581367097,-2,1,-2,1,-2,-1,-3,-1
1570179581367097,1,1,0,-1,0,1,2,8
1570179581382057,-1,-1,-2,-1,1,1,0,3
1570179581382057,-4,-4,-3,-2,-1,-1,9,-10
1570179581390035,2,0,-1,-1,-1,-3,-4,12
1570179581390035,1,-1,0,-1,-1,0,1,8
1570179581391079,-1,-1,-2,-2,-1,-1,-1,-9
1570179581391079,-1,-1,1,-1,-1,-1,6,-2
1570179581405993,1,0,-1,1,2,1,-2,-4
1570179581405993,-2,-1,-1,-1,-1,1,3,-5
1570179581407032,-1,-2,0,-1,0,0,0,-4
1570179581407032,-1,-2,-2,-1,-1,0,-3,-1
1570179581427937,-2,-1,-2,-3,-1,0,3,-1
1570179581427937,0,1,1,1,-1,-2,-8,1
1570179581428932,1,0,1,1,0,2,2,3
1570179581428932,-1,0,0,-2,-1,-1,-5,4
1570179581441932,0,0,0,-1,-2,-2,0,-2
1570179581441932,-3,-3,-2,0,0,-1,2,-7
1570179581443213,-2,-2,-2,-1,0,-1,-1,-8
1570179581443213,2,0,-1,-1,0,-1,-2,7
1570179581464891,-4,-3,-1,-2,-2,-2,-5,-11
1570179581464891,-1,0,1,0,-2,-1,1,-3
1570179581465836,-2,0,-2,1,0,0,-2,-3
1570179581465836,0,-2,-1,1,1,0,-7,21
1570179581487773,-2,-1,0,0,-2,1,1,1
1570179581487773,0,0,-2,-3,-2,2,4,-3
1570179581488780,-1,-1,-2,-2,-2,-2,-4,4
1570179581488780,4,-1,1,1,-1,-3,0,4
1570179581501744,-1,-2,-1,0,1,0,4,0
1570179581501744,-1,-1,-2,-1,-1,-2,-1,1
1570179581502735,-1,0,-2,0,-1,1,4,-3
1570179581502735,-1,0,-1,0,-1,0,-2,-7
1570179581524679,0,1,0,0,0,0,2,2
1570179581524679,-2,0,-3,-1,1,0,-2,1
1570179581525750,6,4,2,-1,1,-2,-1,-2
1570179581525750,-13,-6,-3,-1,-2,-2,-4,-7
1570179581547618,4,0,1,-2,1,0,-1,4
1570179581547618,-2,-7,-5,-3,-1,1,0,-7
1570179581548612,8,2,1,0,-2,-2,-4,1
1570179581548612,-3,0,1,1,1,2,2,-2
1570179581570558,-9,-6,0,2,-1,-1,0,4
1570179581570558,20,17,6,3,2,2,2,3
1570179581570558,7,-7,-4,-5,-2,-2,-2,3
1570179581570558,0,-4,-2,-3,-2,0,14,-15
1570179581592498,-1,5,-2,0,-2,0,0,5
1570179581592498,-2,1,3,2,1,0,4,2
1570179581593585,4,-1,-3,0,-3,-5,-5,-5
1570179581593585,-7,-7,2,2,3,1,-1,-4
1570179581607591,15,5,8,7,3,3,3,4
1570179581607591,35,14,-6,-5,-7,-5,-3,7
1570179581608452,8,2,6,4,0,1,-1,3
1570179581608452,-23,-10,-10,-8,-5,-7,-14,-12
1570179581622414,11,1,3,0,0,1,3,5
1570179581622414,-66,-2,12,11,9,8,5,13
1570179581623465,20,15,-18,-17,-8,-12,-12,-39
1570179581623465,23,-5,3,0,-1,-3,-20,23
1570179581645365,-28,-6,-3,-1,-2,-4,1,2
1570179581645365,34,-11,0,-1,5,1,4,8
1570179581645365,-34,-4,2,2,-13,2,9,-2
1570179581645365,-7,21,5,8,17,0,6,-13
1570179581667481,7,-13,-12,-14,-10,-1,-4,3
1570179581667481,4,1,1,2,3,-4,-9,-4
1570179581668800,-3,0,4,6,6,5,8,1
1570179581668800,10,2,0,-3,5,-4,1,31
1570179581682259,27,18,6,1,-5,2,1,58
1570179581682259,-59,-9,-1,0,2,-4,5,-34
1570179581683252,20,-6,-4,-6,-13,2,-11,28
1570179581683252,-2,1,5,6,0,-4,-10,14
1570179581704392,-2,-6,-5,1,4,-7,-1,2
1570179581704392,-9,8,1,-2,-5,9,2,-1
1570179581712174,10,-1,3,3,12,0,1,19
1570179581712174,-16,-8,-3,-4,-11,7,3,-14
1570179581727135,-4,5,0,1,7,-3,1,-29
1570179581727135,10,-3,-5,-5,-5,-8,-6,-2
1570179581728133,-17,-5,3,1,3,1,7,-13
1570179581728133,15,2,-3,-4,-3,2,2,-1
1570179581741101,-9,-2,-2,0,0,-2,-2,-20
1570179581741101,6,-5,-3,-3,-5,-2,-4,4
1570179581749257,-7,-6,0,0,5,-1,0,6
1570179581749257,0,2,0,-1,-6,-2,3,-9
1570179581764239,-3,-4,-2,0,-2,-1,-2,8
1570179581764239,5,-5,-4,-4,-3,-7,-2,12
1570179581772020,1,3,3,4,4,1,-9,25
1570179581772020,4,2,-5,-6,-6,-4,-3,20
1570179581787976,-4,-1,-1,-2,-4,2,0,53
1570179581787976,3,-1,-1,0,0,3,1,73
1570179581787976,-17,-6,-4,-3,-5,-7,12,32
1570179581787976,4,0,-3,-1,2,-1,-5,24
1570179581800942,-6,-4,-4,-3,-11,-6,5,-9
1570179581800942,1,2,0,0,-1,-1,-11,-45
1570179581809954,-6,-5,-4,-4,8,-4,-8,-36
1570179581809954,-6,-3,3,-1,-4,-1,-8,-64
1570179581824874,-3,1,-2,-2,2,3,4,-44
1570179581824874,2,-4,-2,0,-2,-1,5,-35
1570179581825876,2,3,0,-1,-1,5,1,-46
1570179581825876,3,1,-1,0,1,1,6,-25
1570179581847815,-2,-3,1,0,0,3,-2,-24
1570179581847815,2,-2,-3,-1,-2,-4,0,-6
1570179581848816,-2,0,-1,1,3,7,2,0
1570179581848816,1,2,-1,-1,-1,0,6,4
1570179581860840,-4,-1,-1,-3,1,-2,-3,-6
1570179581860840,1,-1,0,1,0,-2,-7,0
1570179581869752,2,1,2,1,-2,-1,0,12
1570179581869752,1,0,0,0,-1,1,2,3
1570179581884715,-2,-3,-2,0,2,1,0,-7
1570179581884715,1,0,-2,-2,-2,0,-1,0
1570179581885711,0,1,1,0,-2,-1,-1,8
1570179581885711,-1,-1,-1,2,-1,-2,3,19
1570179581907657,2,2,-1,0,1,-1,-3,0
1570179581907657,3,0,0,-3,-2,-1,-1,5
1570179581908652,-3,0,-3,-1,-2,-3,-1,-4
1570179581908652,-1,-1,-1,-1,1,0,1,-8
1570179581921739,1,0,-1,-1,0,-1,-4,-14
1570179581921739,-1,-2,-3,-2,-1,0,0,-6
1570179581929595,0,-2,1,1,-2,0,1,-12
1570179581929595,1,-1,0,0,-1,0,0,-10
1570179581945550,-1,0,2,-1,0,1,0,-2
1570179581945550,0,-1,-1,-1,-1,0,0,-1
1570179581945550,-2,-2,1,-1,0,-2,-1,2
1570179581945550,0,0,-1,0,0,1,2,36
1570179581967491,-1,-1,0,0,0,-1,-1,23
1570179581967491,-1,-1,0,0,1,0,0,12
1570179581968490,1,-1,-1,-1,-1,0,-1,-1
1570179581968490,0,0,0,1,-1,1,1,-14
1570179581981457,0,2,0,1,-1,-3,-4,-19
1570179581981457,1,0,-1,0,0,-2,-3,-15
1570179581997415,0,1,-1,0,-1,0,-3,-8
1570179581997415,-2,-1,1,-3,0,-1,0,-13
1570179582005390,1,-2,-2,0,0,1,-1,-3
1570179582005390,0,-1,-1,-1,-1,0,0,-9
1570179582006387,-1,-2,-2,-1,0,0,2,0
1570179582006387,-1,-1,0,-3,-2,1,-4,-6
1570179582027332,-2,-3,-3,-1,-1,-1,-1,-6
1570179582027332,2,2,1,2,-1,1,0,4
1570179582028332,-1,0,0,0,-1,-1,-1,3
1570179582028332,-2,-1,0,2,0,-2,-2,-2
1570179582041518,-1,0,-1,-1,-2,-1,2,1
1570179582041518,-4,1,-1,-3,0,0,-1,-8
1570179582049799,1,1,0,0,0,-1,-1,6
1570179582049799,-1,0,-1,0,0,-1,-1,-1
1570179582064233,-1,-2,0,-1,-1,-1,-3,-3
1570179582064233,1,-2,-2,-1,-2,0,0,4
1570179582065306,-2,0,0,-2,-2,1,-2,-9
1570179582065306,1,-1,-2,0,-1,0,0,3
1570179582088172,-1,0,0,0,0,0,-1,0
1570179582088172,0,-2,-2,-2,0,0,-1,4
1570179582088172,-2,0,0,0,-2,-2,0,1
1570179582088172,-1,0,-3,-2,0,0,1,0
1570179582110112,0,-1,-1,3,-2,-1,1,-1
1570179582110112,-1,-2,1,-1,-1,-1,1,2
1570179582111107,-1,-1,-3,1,0,1,0,4
1570179582111107,-1,-2,0,-1,-1,-1,1,0
1570179582124072,-2,1,-3,-2,1,0,0,2
1570179582124072,0,0,-2,-1,-1,-2,1,3
1570179582125075,0,-1,1,-1,-1,1,-1,2
1570179582125075,0,-2,-2,0,-1,-2,0,2
1570179582148042,0,0,-1,-1,0,-1,0,1
1570179582148042,0,1,-1,-1,0,0,-2,3
1570179582148414,0,0,0,-1,-1,-1,-2,0
1570179582148414,1,1,0,-1,1,-2,-2,0
1570179582169996,-2,-1,0,-2,0,-1,0,-2
1570179582169996,-2,-2,-3,0,0,-2,-1,0
1570179582170948,-1,-1,-1,-1,0,1,1,4
1570179582170948,0,-1,1,-1,-3,1,0,1
1570179582183956,1,-2,-1,-1,0,-1,0,1
1570179582183956,1,-2,1,-1,-2,-1,0,2
1570179582185112,0,0,0,-2,-1,-1,-1,1
1570179582185112,1,0,-1,0,-1,0,1,0
1570179582207893,-4,0,0,-1,-2,-1,0,-4
1570179582207893,-3,0,0,1,-1,1,0,-7
1570179582208845,-1,-2,0,-1,0,0,1,4
1570179582208845,1,1,0,-1,-1,-2,-2,0
1570179582229795,0,-1,0,-1,0,-1,-2,0
1570179582229795,0,0,0,0,-1,-2,-1,-1
1570179582230793,-2,-1,0,-3,-1,0,2,0
1570179582230793,1,0,1,-1,-1,0,-1,-2
1570179582244801,-3,-1,1,2,-1,1,-3,-4
1570179582244801,0,0,1,0,0,1,-2,2
1570179582245746,0,-1,-2,0,-2,-2,-1,0
1570179582245746,-2,1,-1,-1,-1,-2,1,2
1570179582267701,0,-2,-1,0,2,-2,0,2
1570179582267701,1,0,0,-2,0,0,1,1
1570179582274890,-2,-2,-2,0,0,0,-3,-3
1570179582274890,-1,-1,1,-1,-2,1,3,1
1570179582297683,0,-1,-1,-1,-1,1,-1,2
1570179582297683,-2,-1,-1,-2,-1,0,0,-3
1570179582299604,-1,-1,-1,-1,0,-1,1,0
1570179582299604,-1,-1,-1,1,0,-1,-2,-1
1570179582312574,0,-2,-2,-1,-2,0,-1,1
1570179582312574,1,0,1,-2,0,-2,0,3
1570179582314569,-1,-1,-1,1,0,0,1,-2
1570179582314569,-1,0,-3,-2,-1,1,-1,-1
1570179582327556,1,0,-1,-1,1,-1,-1,0
1570179582327556,2,-2,-2,0,-1,-1,0,0
1570179582329524,-2,0,1,1,-1,-3,-2,-4
1570179582329524,1,-3,-1,0,0,-2,0,1
1570179582350533,-1,0,-2,-1,0,-1,1,-1
1570179582350533,0,-1,0,1,0,0,0,-1
1570179582351792,0,1,0,0,-1,-1,-1,-2
1570179582351792,0,-1,1,-1,1,2,0,0
1570179582363479,2,1,1,-2,0,-1,-2,0
1570179582363479,-5,-1,2,0,-1,0,-2,-6
1570179582380389,-3,0,0,-1,-1,0,-2,-2
1570179582380389,0,-1,-2,-1,-1,-2,-4,-13
1570179582387485,1,0,0,-1,-2,-1,1,5
1570179582387485,1,1,-2,-1,1,0,-1,3
1570179582389362,1,-2,-1,-2,-1,0,-1,3
1570179582389362,-1,-1,0,-1,0,0,-1,1
1570179582410425,-2,-1,-2,0,0,0,1,-2
1570179582410425,0,-1,1,1,-2,-2,-1,1
1570179582411309,-1,-2,-2,0,1,-2,-1,-3
1570179582411309,-1,-1,-1,0,1,-1,0,0
1570179582424270,2,-1,-2,0,-1,0,0,-1
1570179582424270,0,-2,0,-2,-1,2,0,3
1570179582439231,2,-1,-1,-3,-1,-1,0,4
1570179582439231,0,0,0,-1,-4,0,1,2
1570179582447306,-1,1,1,2,1,0,-3,-1
1570179582447306,0,-2,-3,0,-2,-1,-4,-1
1570179582449205,1,-1,1,-1,-1,0,-4,0
1570179582449205,-2,0,-3,-1,-2,-1,0,-2
1570179582470147,1,-3,0,-2,-3,0,1,0
1570179582470147,-4,-2,-1,-2,-1,2,12,-14
1570179582472187,-2,-1,-3,-1,-3,-3,-3,-16
1570179582472187,4,3,0,2,1,-2,-17,22
1570179582484113,-3,-1,-4,-3,-1,-1,-2,-12
1570179582484113,8,3,3,2,1,-2,-10,21
1570179582493085,0,-2,-2,-2,0,-1,2,0
1570179582493085,-5,-3,-1,0,0,0,8,-9
1570179582507568,0,0,1,0,2,2,10,14
1570179582507568,0,0,-3,0,0,-3,-7,-4
1570179582514077,0,-1,2,1,0,1,2,2
1570179582514077,1,0,0,-1,0,-1,-2,3
1570179582530081,-2,-2,-2,0,0,0,-3,-3
1570179582530081,-4,-2,0,-2,-1,-1,4,-3
1570179582531988,1,-2,0,1,-1,3,1,6
1570179582531988,-4,-2,-1,-1,-1,-1,4,-8
1570179582543949,1,-1,-1,-1,-1,-1,-1,0
1570179582543949,-3,0,-1,0,1,-1,-1,-2
1570179582553016,2,0,-2,0,1,-1,1,5
1570179582553016,-1,-1,0,0,-2,1,-2,-5
1570179582567978,-6,-2,-3,-2,-2,-1,4,-11
1570179582567978,0,0,-1,0,-1,0,-2,5
1570179582569882,0,1,1,0,1,-1,-1,3
1570179582569882,-1,-1,0,-1,1,0,2,-1
1570179582589946,1,0,2,1,-1,-2,-2,-5
1570179582589946,3,0,0,-1,0,-1,-10,15
1570179582592059,-2,0,0,0,-2,0,3,10
1570179582592059,2,0,-1,-2,-1,0,0,2
1570179582603790,1,-1,-3,0,1,-1,-3,5
1570179582603790,-1,0,0,-1,0,-1,3,-9
1570179582612767,-1,0,-1,0,0,-1,-1,-5
1570179582612767,2,0,-2,0,1,-2,-2,8
1570179582627729,-1,1,0,-2,0,-1,2,-1
1570179582627729,-1,-2,-3,-1,-1,0,2,-4
1570179582629721,-1,0,0,-2,-1,-1,2,-6
1570179582629721,-2,1,0,0,-2,0,1,-5
1570179582657691,0,-1,2,0,0,0,-3,-2
1570179582657691,-1,-1,0,0,0,0,1,-1
1570179582659642,0,-1,-1,-1,0,0,-3,2
1570179582659642,-2,-2,-2,-1,-1,1,1,-6
1570179582663675,0,-1,0,0,-1,-1,-4,10
1570179582663675,-2,-3,-2,0,0,-1,1,-1
1570179582673258,0,0,-1,-1,0,-1,-1,-2
1570179582673258,1,0,-2,2,-1,-1,1,1
1570179582687564,0,2,0,-1,-1,-1,-1,-1
1570179582687564,-2,-1,-1,0,-1,1,1,-1
1570179582689560,-6,-2,1,-1,-1,-1,2,-29
1570179582689560,4,1,1,0,3,0,-8,23
1570179582709683,-4,0,0,0,0,-2,-6,-10
1570179582709683,1,-1,0,2,0,-1,-4,-1
1570179582718206,0,1,-2,-1,0,0,-1,3
1570179582718206,-3,-3,0,-1,-3,-2,4,-12
1570179582724414,2,0,0,0,-1,-1,-1,1
1570179582724414,-1,1,-2,-2,0,-1,1,0
1570179582732612,-1,0,-1,-1,-1,0,0,4
1570179582732612,-1,-1,0,-1,0,-2,1,-11
1570179582748052,2,1,-3,-1,-3,0,3,16
1570179582748052,-5,-1,-2,-2,-3,0,11,-14
1570179582749332,4,-1,0,-1,-1,-1,-8,15
1570179582749332,-2,1,0,-1,-1,0,0,-4
1570179582770550,0,0,-2,-1,0,-2,2,-2
1570179582770550,-6,-2,-2,-1,-3,1,8,-12
1570179582771827,-3,-3,-1,-2,-3,0,0,4
1570179582771827,-2,0,-1,1,2,-3,-2,-3
1570179582784313,-1,-1,-1,0,1,0,-2,-6
1570179582784313,1,0,0,-2,0,1,-1,1
1570179582792701,-2,-1,-2,0,0,0,-1,-2
1570179582792701,0,-1,-1,-1,-2,-1,-2,-1
1570179582808098,-1,-1,1,-2,-2,-3,2,-1
1570179582808098,2,-1,-3,-2,-1,-1,-3,13
1570179582809735,-4,-1,-2,-2,-4,-1,1,-8
1570179582809735,4,-1,0,1,-1,-3,-6,2
1570179582854405,6,0,1,-1,1,3,4,18
1570179582854405,-1,-1,0,1,-1,-1,-4,1
1570179582855410,0,0,0,2,2,-1,-3,-4
1570179582855410,-3,-1,-1,-1,0,1,2,-8
1570179582856399,-1,-2,-3,-1,0,0,-1,-6
1570179582856399,7,3,3,2,-1,-5,-22,23
1570179582860461,2,0,1,0,1,-2,2,5
1570179582860461,-1,0,-2,-2,-1,0,2,0
1570179582868492,-3,-1,-1,0,-1,0,-2,2
1570179582868492,-2,-2,-1,0,0,2,4,-7
1570179582869641,-3,-1,1,0,-1,-1,4,-8
1570179582869641,2,1,0,-1,-1,1,-4,3
1570179582889689,-1,-2,-2,-1,-1,-2,1,-1
1570179582889689,-1,-2,0,-1,1,-2,-1,-6
1570179582892154,-2,-1,-1,-2,-3,-1,-1,-1
1570179582892154,-1,-1,-2,0,0,-1,3,2
1570179582903694,-1,1,0,-1,-1,1,1,-2
1570179582903694,0,1,-1,-1,0,0,2,0
1570179582912831,1,1,-1,0,-1,-2,-10,-8
1570179582912831,-3,-1,-2,-3,1,0,1,4
1570179582926745,1,-2,0,-2,-2,-1,-2,0
1570179582926745,-6,-3,-2,-1,-1,0,10,-10
1570179582935573,3,0,0,0,-1,-2,1,8
1570179582935573,-4,-1,0,-2,-2,3,4,-6
1570179582957776,-1,0,1,2,-2,-3,-8,-11
1570179582957776,-1,0,-2,0,-2,0,3,-4
1570179582959654,-1,-2,-2,-1,1,-1,-1,0
1570179582959654,-1,-1,-1,0,-2,-2,-1,-2
1570179582963695,-1,-2,-1,-2,-1,1,5,0
1570179582963695,-2,-1,0,-1,0,-1,-2,1
1570179582978615,0,0,-2,-1,0,1,1,-1
1570179582978615,7,3,4,2,2,-4,-11,30
1570179582995719,-3,-2,-2,-2,1,1,0,23
1570179582995719,1,-1,0,-1,-1,-1,-3,21
1570179582996476,4,0,-2,-1,-1,0,0,21
1570179582996476,-7,-5,-4,-1,-2,0,11,-25
1570179583009735,0,-1,0,1,0,-2,-3,-17
1570179583009735,-2,-4,-3,-4,0,-1,-1,-12
1570179583011740,-2,1,2,0,0,-2,-2,-14
1570179583011740,-4,-1,-1,1,-2,-1,1,-10
1570179583032685,0,0,0,0,2,-1,-1,-9
1570179583032685,0,-1,-4,-2,-2,0,-1,-8
1570179583034680,-3,-2,0,0,-1,0,-1,-9
1570179583034680,2,-1,-1,1,-3,0,-1,0
1570179583047644,0,-2,-2,-1,0,-1,-1,3
1570179583047644,-1,1,2,-1,0,0,-3,-3
1570179583049729,0,-1,-2,1,0,-1,0,2
1570179583049729,0,1,-1,0,-1,0,-2,4
1570179583070586,0,0,0,-2,-2,0,1,-2
1570179583070586,1,0,0,0,1,-1,0,-5
1570179583072668,0,0,-1,0,0,0,-1,2
1570179583072668,-3,-1,-1,-1,1,-2,0,2
1570179583091613,4,0,-1,0,-2,-2,-7,5
1570179583091613,0,-1,-2,0,0,0,1,3
1570179583100506,-1,-3,-1,-1,-2,0,-2,0
1570179583100506,2,1,2,-1,1,-1,-3,10
1570179583107488,-3,1,-1,-1,-1,-2,-1,-8
1570179583107488,-3,2,-1,-1,-1,-2,0,6
1570179583109690,3,0,-2,-1,0,0,-4,2
1570179583109690,-3,-3,-2,-1,-2,-2,-2,-7
1570179583130424,-1,-1,-1,1,0,0,-1,-3
1570179583130424,1,0,0,-2,-1,0,0,0
1570179583131421,0,0,0,-1,0,2,4,-5
1570179583131421,1,-1,-2,-2,-1,0,-2,3
1570179583152365,-1,0,3,0,0,1,6,4
1570179583152365,2,1,0,0,-1,-2,-3,-1
1570179583154360,-3,-1,-1,-2,-3,-1,0,-3
1570179583154360,0,-1,0,0,1,-1,-1,0
1570179583168321,-1,-1,-1,-1,-2,-2,-3,-1
1570179583168321,-2,-2,0,-1,0,0,0,0
1570179583169319,-4,1,2,0,0,-1,-1,-9
1570179583169319,2,1,-1,1,0,2,1,6
1570179583190265,0,1,0,0,-1,0,3,-1
1570179583190265,0,0,0,-1,-1,-4,-3,-5
1570179583192258,1,0,-2,-2,0,0,-2,4
1570179583192258,-8,-3,-1,-1,-3,-2,5,-24
1570179583212331,5,2,1,1,1,-2,-16,10
1570179583212331,1,-2,-1,0,-1,0,-3,4
1570179583214942,2,-1,-3,-1,0,0,2,6
1570179583214942,-1,0,0,-2,0,0,1,-2
1570179583234889,-3,-2,-3,-2,0,2,4,-4
1570179583234889,-2,-2,0,0,-1,-6,-5,-11
1570179583236883,4,0,2,2,-1,-1,-2,11
1570179583236883,-1,-1,1,-1,-1,0,-4,5
1570179583249849,1,0,-1,-1,-1,-1,6,9
1570179583249849,-1,1,2,-1,0,1,0,1
1570179583251844,-3,-2,-1,-2,-2,-2,1,-5
1570179583251844,3,1,0,-1,-1,-1,-2,8
1570179583272787,-3,-2,0,0,0,0,-2,-16
1570179583272787,-4,-1,-2,-1,-3,1,6,-5
1570179583274799,1,0,-1,1,0,-3,-5,3
1570179583274799,2,-1,-1,-1,-1,0,-1,5
1570179583286749,1,0,-1,-1,1,-2,-9,21
1570179583286749,1,0,1,-1,-1,-3,-1,3
1570179583293734,6,1,1,1,1,2,0,23
1570179583293734,3,-1,-1,0,-1,1,-2,6
1570179583309693,-3,-1,-1,0,-2,0,2,-7
1570179583309693,-1,0,-2,0,-2,0,-2,-5
1570179583311684,1,0,-2,-2,-2,-1,3,3
1570179583311684,-3,-2,-1,-1,-2,-2,-1,-13
1570179583340615,-2,0,2,0,-2,-2,-1,-6
1570179583340615,-2,0,0,-1,-2,0,-2,-3
1570179583341848,-2,-2,0,-1,-2,-2,0,-6
1570179583341848,0,-1,-1,-2,1,0,0,1
1570179583346593,-1,-2,-1,-2,0,-1,1,-8
1570179583346593,1,-2,0,1,1,-1,0,0
1570179583353958,-3,0,-1,-1,-2,-1,-1,-8
1570179583353958,0,0,0,1,1,-1,1,3
1570179583369549,-2,-1,-1,-1,-1,0,1,-2
1570179583369549,-1,-1,-1,-1,-1,-1,1,0
1570179583377508,0,2,3,1,0,0,-1,-6
1570179583377508,2,0,1,0,1,-2,-9,13
1570179583393465,-1,-1,-1,0,-2,2,1,0
1570179583393465,-1,1,-1,-1,0,1,1,-1
1570179583398453,-3,-1,-3,-2,-1,-2,-5,-6
1570179583398453,-4,-1,-1,-1,-3,0,0,-13
1570179583407473,2,-1,-1,-1,2,1,6,16
1570179583407473,-4,-2,0,0,-2,-1,3,5
1570179583413413,-3,-4,-2,-1,0,1,0,-8
1570179583413413,0,1,0,-1,0,0,1,-3
1570179583430366,-2,-1,0,0,-1,-2,-2,-3
1570179583430366,-2,0,0,-1,-2,-1,-1,-3
1570179583431368,-2,-2,-1,-2,-1,-1,0,0
1570179583431368,-1,-1,0,-1,-1,1,1,-5
1570179583460316,-2,-2,-2,-1,-1,-2,2,-6
1570179583460316,0,0,-2,1,0,0,-2,4
1570179583462281,-2,0,-1,1,-1,0,-1,10
1570179583462281,-1,0,-1,0,-1,0,-1,23
1570179583467437,-1,2,0,0,-2,-1,-3,12
1570179583467437,1,-2,-1,-1,0,-1,-2,6
1570179583474248,-2,-1,-3,-2,-1,-1,-2,-7
1570179583474248,-1,-1,-2,-1,-1,-2,0,-13
1570179583490206,-1,-3,-1,0,-1,0,3,-10
1570179583490206,1,0,1,1,1,0,-1,-10
1570179583492201,-2,-2,0,1,-2,0,2,-19
1570179583492201,2,2,-1,0,1,0,-11,-1
1570179583513150,1,0,-1,-2,-1,-2,-6,0
1570179583513150,2,0,-1,-1,0,0,1,-3
1570179583515141,-3,-2,1,0,2,-1,2,-3
1570179583515141,-2,0,-1,-1,-1,0,3,-7
1570179583526114,-3,-4,0,-1,1,0,0,-7
1570179583526114,1,0,-2,1,-1,-2,-2,6
1570179583535086,-3,-1,-1,-1,1,-2,-2,-2
1570179583535086,0,-3,-2,-2,-1,-1,9,-8
1570179583550046,1,0,1,-1,-2,0,1,5
1570179583550046,-2,-1,-1,-1,0,-1,0,-3
1570179583552043,-1,0,0,1,0,1,4,0
1570179583552043,-3,-3,-1,-2,-2,-2,2,-3
1570179583573019,-2,1,1,0,-1,-1,0,-8
1570179583573019,2,1,2,1,-1,-1,-4,-1
1570179583574995,-5,-2,-1,-1,-1,1,-2,-17
1570179583574995,5,3,3,1,1,-2,-15,21
1570179583586659,0,-2,-1,-1,-1,-1,-2,-4
1570179583586659,-2,0,0,-2,0,1,0,-1
1570179583602906,-1,-1,-2,-3,-1,-2,0,-4
1570179583602906,-2,-1,0,1,-1,0,2,3
1570179583609887,0,2,0,1,0,-2,-3,-7
1570179583609887,1,-1,-1,-2,-1,0,-2,3
1570179583611882,0,0,-2,0,-2,-1,0,6
1570179583611882,-2,0,-1,0,1,0,3,-3
1570179583632895,-2,-2,-1,-2,-1,2,1,-4
1570179583632895,0,0,-1,0,-1,-2,-1,0
1570179583633866,2,2,1,-1,-1,-1,-4,7
1570179583633866,-2,-1,2,-1,0,-2,1,-5
1570179583645793,-2,0,-2,-1,0,0,-1,-2
1570179583645793,-1,-2,0,-2,-3,-1,1,-6
1570179583654766,2,0,0,-2,0,-2,-1,15
1570179583654766,-3,-1,0,0,-1,-1,-1,-7
1570179583670723,1,0,-1,0,0,-1,-2,-6
1570179583670723,-1,-1,-2,-2,3,0,1,4
1570179583671722,0,-1,0,0,-3,0,2,1
1570179583671722,-4,-2,-2,0,0,0,10,-22
1570179583692664,-1,-2,-1,0,-1,-2,-4,2
1570179583692664,-1,0,0,0,0,0,1,-1
1570179583694662,-2,-1,-2,1,0,-1,0,-4
1570179583694662,-3,-2,-4,-3,0,0,3,-5
1570179583706730,-5,-2,-1,-1,-1,-3,0,-6
1570179583706730,8,3,1,0,-1,-3,-9,17
1570179583715604,0,-1,-1,0,-1,-2,-3,1
1570179583715604,1,-3,1,0,-1,-2,-1,5
1570179583730563,-1,0,-1,0,-1,-1,1,5
1570179583730563,-5,-2,-2,0,0,1,-2,-9
1570179583731574,0,0,-1,0,0,1,0,2
1570179583731574,-3,0,0,1,-1,1,-6,-6
1570179583752505,0,0,-1,-1,-2,1,2,4
1570179583752505,-5,-2,-1,-3,-1,-3,-2,-24
1570179583758498,-3,0,-1,0,0,-1,-1,3
1570179583758498,1,-1,-3,-2,0,0,-3,3
1570179583766507,-2,1,1,0,1,-1,-3,-5
1570179583766507,0,0,1,0,0,0,-2,-1
1570179583775632,0,1,0,-3,-2,-1,-3,-2
1570179583775632,0,1,-1,-1,-3,-1,0,3
1570179583790406,3,-1,-2,-1,-3,-1,0,6
1570179583790406,-4,-1,-1,0,0,1,0,-4
1570179583792126,2,1,2,0,1,-1,-6,5
1570179583792126,4,-1,0,-1,0,-1,3,16
1570179583812349,2,0,1,-1,-1,1,1,0
1570179583812349,-1,0,-3,-1,0,0,-1,7
1570179583814341,5,2,0,3,2,1,0,21
1570179583814341,-4,0,-1,-1,-3,-1,-2,-7
1570179583826307,6,2,-1,0,0,0,-1,8
1570179583826307,-1,-1,1,-1,-1,-1,5,-12
1570179583835283,-1,-1,-1,0,-2,0,-2,-7
1570179583835283,0,0,0,0,-1,-1,1,1
1570179583850247,-1,-2,-1,-1,0,0,0,0
1570179583850247,0,-2,-1,-2,-1,0,3,1
1570179583852240,1,-2,-1,-2,-2,-2,0,-3
1570179583852240,-1,-1,0,0,-1,0,-4,-3
1570179583872186,-1,-1,-1,0,-2,-1,0,3
1570179583872186,-2,0,-3,0,0,-3,-1,-3
1570179583880169,-2,0,-1,0,-1,1,1,-6
1570179583880169,4,-1,-3,-1,0,-2,0,13
1570179583886262,-3,-3,-1,-1,1,-1,-1,-4
1570179583886262,1,-1,0,-2,-1,-2,0,5
1570179583895329,-4,-2,-2,-1,-1,-2,-1,-15
1570179583895329,0,1,-1,-2,-2,-1,0,1
1570179583910287,-1,-1,0,-2,1,-1,-1,0
1570179583910287,-1,-1,-1,-1,-1,0,3,4
1570179583912078,-1,-2,-1,2,-1,-4,-15,-6
1570179583912078,-1,-1,-2,-1,-2,-2,-6,-9
1570179583933183,-5,-1,1,0,-1,-1,-5,-16
1570179583933183,4,-1,-2,-1,-1,2,6,14
1570179583934021,-2,-1,0,-1,1,0,5,0
1570179583934021,-1,0,-1,-1,0,1,0,-3
1570179583945992,1,0,-2,-2,0,0,-2,-1
1570179583945992,1,-1,-1,-1,0,1,-5,-1
1570179583955288,4,1,0,0,1,1,0,12
1570179583955288,-3,0,2,2,0,0,-3,-7
1570179583969927,3,0,-2,-1,-1,-1,5,9
1570179583969927,0,-1,-1,0,-1,-3,-1,-3
1570179583971919,-1,-2,-1,-2,-2,-2,2,3
1570179583971919,1,0,0,-1,0,-1,3,2
1570179583992867,-2,-1,1,-1,-1,0,-1,-2
1570179583992867,-1,-1,-1,-1,-1,1,-3,0
1570179583994394,-2,-2,-2,-1,-2,0,1,-2
1570179583994394,-6,-2,-2,-1,-1,3,8,-18
1570179584014810,2,-2,2,0,-3,-4,-13,-13
1570179584014810,2,2,-1,-1,0,1,4,15
1570179584016799,-4,-1,0,-2,0,2,4,-8
1570179584016799,-1,-1,0,0,-2,0,3,1
1570179584029868,-1,-1,-1,-1,0,0,4,1
1570179584029868,0,0,1,1,-2,-2,-3,-3
1570179584031758,2,1,-1,-1,-1,0,-2,2
1570179584031758,0,0,0,0,-1,1,-1,5
1570179584052702,-4,-2,-2,-2,-2,1,4,1
1570179584052702,-2,0,-2,0,1,-1,-1,-1
1570179584054700,0,-3,0,0,-1,-1,3,1
1570179584054700,2,0,0,0,0,-2,-4,6
1570179584075645,-4,-2,-1,-1,0,0,2,3
1570179584075645,-4,-3,-1,0,-1,0,-4,-9
1570179584076638,-2,-1,-3,-1,-2,0,1,-3
1570179584076638,1,-2,-2,-2,1,1,0,-2
1570179584089604,-4,0,1,-1,-1,1,10,-4
1570179584089604,4,0,0,-2,1,0,3,18
1570179584103568,-1,0,-2,-1,-1,-2,0,-1
1570179584103568,2,0,0,-1,-1,-1,-3,5
1570179584112770,-2,0,-1,1,-1,-1,3,-2
1570179584112770,-1,-2,-1,-1,-1,-2,-4,-4
1570179584114538,-1,-2,0,-1,1,1,3,-2
1570179584114538,-4,-1,0,0,0,-1,4,1
1570179584135480,0,1,1,0,0,-1,-2,0
1570179584135480,2,-1,0,0,-1,-2,-1,3
1570179584136479,-2,-2,0,-2,0,-1,0,-5
1570179584136479,1,-1,0,-1,0,-3,-4,0
1570179584157574,1,-1,-1,-1,1,-1,-3,-3
1570179584157574,-4,-1,0,0,-1,-1,-4,-6
1570179584159420,-1,0,-1,0,-1,0,2,2
1570179584159420,-2,-1,-2,0,-1,0,-1,1
1570179584172618,0,0,-3,1,-2,-2,-3,4
1570179584172618,-2,-1,-1,-1,-1,0,2,-6
1570179584174378,3,0,0,-1,-1,1,-1,7
1570179584174378,-1,-2,-2,0,-3,0,-1,-3
1570179584195550,-1,1,-1,-1,1,0,-4,1
1570179584195550,-3,-1,-3,-4,0,0,5,-3
1570179584196324,-3,0,-2,-2,-2,-1,-1,-18
1570179584196324,2,0,0,0,0,0,-3,8
1570179584217263,2,1,1,0,-1,-1,-15,18
1570179584217263,0,-1,0,0,-2,-1,-1,1
1570179584219510,3,0,-1,-1,0,-1,2,7
1570179584219510,-3,0,1,0,-1,-1,-1,-4
1570179584232647,-3,-2,-2,0,-1,-1,3,-12
1570179584232647,1,3,1,2,1,0,1,3
1570179584234394,0,0,1,2,-1,-2,-9,1
1570179584234394,-3,-1,-3,-1,-1,-1,2,-3
1570179584255171,0,-2,-2,-1,0,0,0,3
1570179584255171,-2,-1,-2,0,0,-1,-4,-13
1570179584261261,0,-2,0,-1,-1,-2,-2,-1
1570179584261261,0,0,-1,0,1,0,-1,4
1570179584269385,3,0,0,0,0,0,8,11
1570179584269385,0,0,0,0,1,-2,-3,-3
1570179584278103,0,0,-1,2,-1,-1,0,5
1570179584278103,-1,0,0,0,-1,-2,0,-3
1570179584293061,1,-1,0,0,-2,-1,-1,1
1570179584293061,0,-1,-2,-2,-1,0,-1,-4
1570179584294062,-1,0,-3,-1,0,-1,1,3
1570179584294062,7,1,1,0,-2,-3,-15,19
1570179584314005,7,3,3,1,0,-1,-6,9
1570179584314005,-5,-2,0,0,-2,-2,-3,-15
1570179584323035,-2,-1,0,0,-1,-3,-6,-9
1570179584323035,0,0,-1,0,0,1,3,-11
1570179584329032,-4,-3,-2,-1,-1,1,1,-11
1570179584329032,5,0,1,1,0,1,-6,13
1570179584335945,0,-2,0,-1,0,-1,-3,-2
1570179584335945,-2,-2,-1,-2,0,-2,1,-4
1570179584352899,-3,1,-1,-2,0,0,-1,-1
1570179584352899,-2,-1,-3,-1,-2,-1,3,-3
1570179584353896,-2,-2,-1,-1,-1,1,0,-1
1570179584353896,-6,-1,-2,-1,0,2,13,-21
1570179584382825,2,-1,-2,-2,0,-2,-4,0
1570179584382825,1,1,-1,1,0,1,0,-2
1570179584383926,0,-1,0,-1,0,0,1,9
1570179584383926,-3,-2,-1,-1,-1,-3,-1,1
1570179584389805,0,-1,-1,-2,-3,-1,0,-1
1570179584389805,0,-1,-1,0,-1,0,2,6
1570179584396309,4,3,2,2,0,0,-5,14
1570179584396309,0,-1,-2,-1,-2,3,-1,0
1570179584412738,-3,0,-2,3,1,-2,0,-13
1570179584412738,2,1,0,0,0,0,-4,6
1570179584413738,-3,-2,-1,-3,-2,0,2,-6
1570179584413738,1,-2,0,-1,-1,0,-3,8
1570179584435682,-1,0,1,1,-2,-3,-4,3
1570179584435682,0,-1,0,0,1,0,2,-2
1570179584436676,0,-1,-1,-1,2,1,-1,-2
1570179584436676,0,0,-1,-1,-4,-2,-1,-2
1570179584449641,-1,-2,-2,-1,0,1,1,0
1570179584449641,-5,-1,-2,-2,-2,-3,-1,-7
1570179584456626,0,1,-1,-2,-4,-3,1,-2
1570179584456626,0,0,0,-1,0,-2,-4,-3
1570179584472772,-1,0,1,-1,0,0,1,0
1570179584472772,-2,-3,0,-1,0,1,-1,0
1570179584474573,4,1,0,1,3,-1,-15,18
1570179584474573,-2,-4,-2,1,-1,0,0,-1
1570179584495616,-1,-1,0,1,0,-1,1,-3
1570179584495616,-2,-1,-2,-2,-1,-2,-1,-8
1570179584496521,-5,-1,-2,-1,-2,-1,5,-9
1570179584496521,1,2,0,-2,0,0,0,1
1570179584508494,-3,-2,-1,-1,-1,-1,-2,-5
1570179584508494,3,1,0,1,0,0,5,17
1570179584517459,-2,-2,-2,-1,-1,0,3,-7
1570179584517459,-5,-1,-3,1,0,-1,-4,-9
1570179584532419,0,-3,-2,-3,0,-1,3,-2
1570179584532419,-2,-2,-1,-2,-2,1,-1,-4
1570179584534414,-1,0,0,0,0,-2,2,-3
1570179584534414,5,1,2,-1,-1,-1,-8,12
1570179584555458,0,0,0,0,-2,-1,0,-4
1570179584555458,1,-1,-1,-1,-1,-1,-1,0
1570179584557429,-3,-3,-1,-2,-1,2,5,-9
1570179584557429,-2,0,0,0,-1,-1,2,-3
1570179584569320,-1,1,2,0,-1,-2,-1,0
1570179584569320,1,0,0,-1,-1,-1,-2,3
1570179584578304,-2,0,-2,-1,-1,0,2,-6
1570179584578304,2,-1,-1,-2,-2,-1,1,5
1570179584600237,-6,-3,-3,-3,0,1,12,-15
1570179584600237,-2,0,-1,0,-2,-2,-1,1
1570179584602238,3,-1,-1,0,0,-1,0,-7
1570179584602238,0,-2,-1,-2,-1,1,2,0
1570179584622472,-2,0,-3,-1,-1,-3,-10,-14
1570179584622472,-1,0,1,1,0,-2,-1,3
1570179584624173,-1,-2,-1,-1,-1,-1,0,0
1570179584624173,-1,1,0,1,-1,0,2,-4
1570179584629166,1,1,1,2,1,1,-2,3
1570179584629166,-4,-3,-2,0,-1,-1,-1,-9
1570179584638187,-1,-1,0,0,1,-1,-4,3
1570179584638187,-6,-2,-2,-1,-1,0,-3,-12
1570179584652099,1,1,-1,-1,-1,2,0,9
1570179584652099,2,0,0,-1,0,0,-1,-1
1570179584660675,-3,0,-2,-1,0,1,3,3
1570179584660675,0,1,0,0,0,-1,-1,-1
1570179584675047,-1,-3,0,-1,-1,0,0,6
1570179584675047,-2,-2,1,-3,0,0,4,-6
1570179584677072,-5,-3,-1,-1,-2,0,4,-12
1570179584677072,4,3,0,2,0,-4,-20,17
1570179584689006,1,-3,-1,-1,-1,0,0,-1
1570179584689006,-1,-1,-1,0,-2,0,0,-4
1570179584703965,0,-1,0,-1,0,0,0,4
1570179584703965,0,-1,0,-1,-1,0,2,-4
1570179584712938,0,1,0,-2,-1,0,0,3
1570179584712938,0,-1,-2,-1,-2,0,-3,1
1570179584714055,0,-1,-1,-2,-1,1,-3,-5
1570179584714055,-1,-1,0,0,0,-1,0,-5
1570179584734877,1,0,0,1,-1,0,-2,6
1570179584734877,-4,2,-1,-1,-2,-1,-1,-7
1570179584736956,3,1,0,-1,-1,0,0,6
1570179584736956,0,-1,1,1,1,-1,4,0
1570179584748842,-2,0,-1,-1,0,0,-1,3
1570179584748842,1,-1,-2,-1,0,-1,-1,0
1570179584757818,-2,-1,-2,-1,-2,-3,-2,-1
1570179584757818,-1,-1,-1,-2,0,-2,0,-2
1570179584772865,-2,1,-2,-1,-1,0,-1,-5
1570179584772865,0,-1,-1,1,-2,-1,0,-3
1570179584774590,-1,0,0,-1,-1,-2,-6,-14
1570179584774590,-1,0,0,0,-1,1,4,-2
1570179584794813,-2,-1,0,0,1,-1,-1,3
1570179584794813,0,-1,-1,-2,-1,0,0,2
1570179584796712,0,0,0,-1,-1,-2,0,2
1570179584796712,0,-1,-1,-1,-1,0,-4,9
1570179584808907,0,-1,2,1,-1,-1,1,-1
1570179584808907,-1,0,1,0,-1,1,1,3
1570179584817658,5,-1,2,2,0,0,-10,13
1570179584817658,0,-2,-1,-1,1,1,6,1
1570179584832615,-1,-1,-2,-1,-1,-3,-1,2
1570179584832615,1,0,0,-2,0,0,1,2
1570179584834655,-2,0,-2,-1,-2,2,6,-1
1570179584834655,-3,0,0,-2,-1,0,1,-3
1570179584854965,-1,-1,1,-1,-1,-1,-3,1
1570179584854965,0,0,-2,-1,-1,-1,-3,-5
1570179584861697,-6,-1,-2,-1,-3,-2,-6,-19
1570179584861697,5,-3,-2,0,0,1,3,8
1570179584868852,-1,2,1,1,-1,-3,-2,-5
1570179584868852,1,0,-1,1,0,-1,-2,3
1570179584877496,1,-1,1,0,-1,0,-2,3
1570179584877496,-4,-2,-1,-3,-1,-2,1,-7
1570179584900435,6,2,2,1,1,-1,-12,13
1570179584900435,1,-3,-2,-2,-1,-2,-5,-1
1570179584901433,0,1,0,2,1,1,3,7
1570179584901433,-3,0,-2,-1,-1,-2,-3,1
1570179584930375,-1,0,-2,-2,-2,0,4,-9
1570179584930375,-4,-1,0,0,0,-1,0,-7
1570179584931352,2,1,0,0,-1,0,1,10
1570179584931352,1,-2,0,-2,-2,-1,1,0
1570179584937340,-2,-1,-1,-1,0,-1,1,-3
1570179584937340,1,-1,0,0,-1,0,2,-1
1570179584939341,-1,-3,-2,-2,-1,-2,-2,-1
1570179584939341,-2,0,-1,0,0,0,-1,-2
1570179584960321,2,0,-2,0,0,0,6,16
1570179584960321,0,1,-2,0,-1,0,0,5
1570179584961273,0,0,-1,-1,1,0,3,3
1570179584961273,0,0,-1,0,-1,0,-1,-2
1570179584975265,-2,-3,-1,-1,-1,-1,-4,-5
1570179584975265,-6,-1,0,-1,0,-2,-1,-9
1570179584977245,8,4,2,1,-1,-1,-2,18
1570179584977245,-1,0,0,1,-1,0,-1,16
1570179584998174,0,-2,-1,-2,-2,-2,0,21
1570179584998174,-5,-3,-2,-1,0,-2,-5,5
1570179584999170,-3,-3,-1,-2,0,-1,0,-5
1570179584999170,0,1,1,1,0,-2,-2,-5
1570179585013134,1,-1,-2,-1,-1,0,1,-7
1570179585013134,0,-2,-2,-1,1,-1,4,-3
1570179585014237,-3,-1,-1,-1,-2,1,0,-12
1570179585014237,1,-2,0,-3,-2,0,-3,-14
1570179585043061,-2,-2,1,-1,-2,-1,-1,-16
1570179585043061,2,0,0,0,0,-1,-3,-7
1570179585044050,-4,-2,-2,-3,0,2,8,8
1570179585044050,3,0,-2,0,0,1,4,7
1570179585065099,4,2,0,0,0,0,-6,1
1570179585065099,2,0,0,1,-1,1,-5,4
1570179585066991,0,-2,0,0,-1,-2,-2,-3
1570179585066991,-3,0,0,-1,-1,-2,2,-6
1570179585072974,-3,0,-1,-1,1,0,4,-6
1570179585072974,7,3,2,-1,-1,1,-8,19
1570179585073970,-2,0,2,2,-1,-2,-4,-5
1570179585073970,0,-1,0,-1,-2,-1,-1,0
1570179585094358,-1,-1,-2,-2,0,0,-1,-3
1570179585094358,-3,-1,-3,0,-1,1,2,-2
1570179585102896,-3,-1,-3,-1,-1,0,-2,-7
1570179585102896,-1,0,1,0,0,0,-2,2
1570179585117855,-4,-2,-2,0,-1,0,4,-7
1570179585117855,4,-1,-1,0,0,0,3,6
1570179585118885,-2,-1,0,0,0,-2,-4,-10
1570179585118885,5,1,-1,1,1,1,7,18
1570179585131818,0,-2,-1,-1,-1,-2,-2,2
1570179585131818,-1,-1,1,1,1,-1,2,-2
1570179585139638,2,0,0,0,-1,1,0,5
1570179585139638,-2,0,-1,-1,-1,-1,-5,-8
1570179585155039,-3,0,-2,-1,0,0,1,-1
1570179585155039,5,1,2,0,0,-2,-6,12
1570179585156749,-3,0,-1,0,-1,0,5,-2
1570179585156749,-2,-1,-2,0,-2,0,-1,-5
1570179585177867,-1,0,2,2,-1,-1,0,1
1570179585177867,-1,-3,-3,-1,-2,-2,1,4
1570179585179689,0,0,0,-4,0,0,0,-8
1570179585179689,-3,-1,1,-1,-1,-1,-4,-6
1570179585191657,-1,-1,0,0,-2,-1,-2,-5
1570179585191657,-4,-2,0,-1,-1,1,3,-7
1570179585206699,-1,1,0,-1,-1,-1,0,4
1570179585206699,-1,0,-2,-1,-1,0,1,-2
1570179585215635,-4,-2,-1,-1,0,-1,-4,-19
1570179585215635,2,1,-1,0,0,1,4,12
1570179585216590,1,-3,-2,-1,-1,-1,-1,3
1570179585216590,-3,-1,2,1,1,0,-2,-8
1570179585237905,0,0,0,0,-1,-1,1,4
1570179585237905,-5,-1,-3,-1,-2,-1,-3,-15
1570179585239529,1,0,0,0,0,-2,0,1
1570179585239529,5,2,-1,-1,1,-2,-12,17
1570179585251501,-3,-2,-3,-2,-1,0,5,1
1570179585251501,5,1,2,0,1,-1,-6,7
1570179585266457,0,0,0,-1,0,-2,-6,2
1570179585266457,-1,-3,-2,-2,-1,1,5,-4
1570179585275436,-1,-1,0,-2,-1,-1,-2,-2
1570179585275436,-1,-1,-1,-1,-2,-1,-1,-7
1570179585276431,-3,-1,-1,0,-1,-1,-3,-5
1570179585276431,0,0,-1,-1,0,-1,-1,-4
1570179585297376,-1,1,0,1,0,1,-1,2
1570179585297376,-4,0,-2,0,0,1,5,-6
1570179585299370,0,0,0,-2,0,0,-2,-1
1570179585299370,-3,-2,0,0,0,-2,4,6
1570179585312336,2,0,0,-1,-1,-2,-2,4
1570179585312336,-4,-3,0,-2,-1,-2,-1,-4
1570179585318353,0,-1,-1,1,-1,0,3,5
1570179585318353,-4,-2,-1,0,-1,-3,-6,-12
1570179585335273,0,-1,-1,2,0,1,2,0
1570179585335273,2,0,0,0,1,-1,1,1
1570179585336271,-2,-2,-2,-1,0,1,-1,-3
1570179585336271,-2,-2,-1,-1,0,2,0,-8
1570179585358212,3,-1,-4,-1,-1,1,-1,9
1570179585358212,-3,0,0,-1,-1,-1,0,-10
1570179585359209,6,1,0,-1,1,-1,-12,19
1570179585359209,-1,0,1,0,-1,-1,0,-5
1570179585380318,1,-1,0,1,1,0,0,3
1570179585380318,0,-1,1,1,-1,-1,0,2
1570179585382156,-3,0,0,0,1,2,10,-8
1570179585382156,4,-1,-1,-2,0,1,-5,0
1570179585395115,1,-1,1,0,-1,-1,-1,12
1570179585395115,2,2,0,-2,-2,2,4,3
1570179585397108,0,-2,-2,0,-2,-3,-4,-4
1570179585397108,-4,-1,-3,-3,-2,-2,-2,-8
1570179585417055,-3,0,1,1,-1,-2,-1,-9
1570179585417055,-1,-2,-1,-2,0,-1,-2,-7
1570179585424114,2,0,1,1,-1,-1,-9,10
1570179585424114,-1,-2,-2,-2,-1,-1,2,-1
1570179585431023,-1,-1,-2,-2,-1,0,0,-3
1570179585431023,-3,-3,-1,0,-2,-2,4,-5
1570179585440089,-3,-1,0,-1,1,0,1,-8
1570179585440089,-2,-1,-1,-1,0,0,3,2
1570179585456021,-1,0,-2,-1,1,1,0,0
1570179585456021,0,0,-1,1,1,-1,-5,-3
1570179585457018,0,-1,-1,-1,0,-1,3,-2
1570179585457018,0,-1,1,0,-2,-1,-8,-13
1570179585476893,1,0,0,0,0,0,3,4
1570179585476893,-3,0,-1,0,0,0,-1,-1
1570179585493849,0,0,1,0,-2,-2,1,-7
1570179585493849,5,2,0,2,2,-2,-4,15
1570179585493849,-1,0,-2,-3,-2,0,-2,-7
1570179585493849,1,-1,-1,-1,-1,1,-2,-1
1570179585499832,-4,0,0,0,0,0,-2,-2
1570179585499832,3,1,0,2,-3,-2,-13,20
1570179585514792,-4,-2,-1,-2,-3,0,1,1
1570179585514792,1,0,1,0,0,0,1,6
1570179585516787,-2,-2,-1,-1,-1,1,5,-1
1570179585516787,-3,-1,0,0,0,0,7,-6
1570179585537733,-1,-2,-1,-1,1,-2,0,-5
1570179585537733,2,-3,-1,-2,-1,-1,-2,3
1570179585539248,-1,-2,-4,-1,0,1,1,-2
1570179585539248,-4,-2,0,0,1,0,5,-4
1570179585551742,2,2,0,0,0,-1,-6,-3
1570179585551742,0,0,-2,-1,0,1,3,1
1570179585560669,-4,-3,-1,-1,-1,-2,-3,-13
1570179585560669,0,-2,1,-2,0,0,7,4
1570179585575746,-2,0,-1,0,0,-1,0,-2
1570179585575746,1,1,0,1,-1,-2,-5,3
1570179585576629,0,-2,-2,0,-1,-3,-3,1
1570179585576629,-2,-1,-3,-2,-3,1,0,-5
1570179585597884,-1,-2,0,0,-1,-1,0,-5
1570179585597884,-3,0,0,-1,-2,-1,0,-2
1570179585599714,3,0,1,1,-2,1,1,-1
1570179585599714,-5,-2,0,-1,-1,0,11,-19
1570179585611534,7,3,3,1,0,0,-10,21
1570179585611534,-1,-2,-2,0,0,-1,-1,-1
1570179585620510,-3,0,-1,-2,0,-1,2,2
1570179585620510,-2,-2,-3,-1,-1,-1,3,-5
1570179585635475,-3,-3,-1,-1,-1,1,2,-9
1570179585635475,1,-1,-1,-1,-2,-1,-1,3
1570179585636468,1,0,0,0,0,0,-2,7
1570179585636468,3,0,-1,-1,-1,0,-3,8
1570179585657411,-1,-2,-2,-1,1,-1,0,-2
1570179585657411,0,0,-2,0,1,0,0,1
1570179585659406,-2,-2,-2,0,-1,0,3,-3
1570179585659406,4,1,-1,0,0,1,1,21
1570179585671373,-3,-1,1,2,-1,1,0,-6
1570179585671373,-1,-1,2,-1,0,2,3,-3
1570179585680352,0,0,-1,-2,-1,-3,-3,-1
1570179585680352,-3,0,0,0,-2,0,-2,-6
1570179585695313,-1,0,-1,-1,-1,-1,1,2
1570179585695313,-7,-1,-1,-2,-1,0,-2,-14
1570179585697306,-1,0,-1,-1,-1,1,13,-9
1570179585697306,-1,-2,-1,-1,-1,-2,-5,1
1570179585717250,-4,-1,-1,-2,0,-2,-1,-11
1570179585717250,-2,0,-1,0,-1,0,0,-1
1570179585719246,0,-1,0,-2,-1,0,0,1
1570179585719246,-1,0,-3,-1,-1,2,0,-4
1570179585732212,0,-1,0,-1,-2,0,2,-1
1570179585732212,-2,-3,-1,1,0,0,-1,-2
1570179585740190,0,0,1,0,0,-1,-9,1
1570179585740190,1,-1,0,-1,1,-1,3,10
1570179585754158,2,-1,-2,-2,0,-1,-1,8
1570179585754158,3,2,-1,-1,-1,-2,-2,4
1570179585769111,0,1,0,1,0,-2,-5,1
1570179585769111,-3,-1,-2,-1,-2,0,-4,-5
1570179585778088,-1,0,-2,0,-2,0,1,-2
1570179585778088,-5,-2,-1,-2,-1,0,4,-10
1570179585779085,1,-3,-2,0,-1,3,17,-6
1570179585779085,0,-1,2,3,-1,-1,-5,-6
1570179585791154,-1,0,0,-1,0,-1,0,6
1570179585791154,0,-1,1,1,-1,-2,0,-3
1570179585800029,-3,-2,-1,0,-3,-1,-3,-2
1570179585800029,-2,0,-1,-1,0,-3,0,-7
1570179585814082,4,-2,-1,-1,-1,0,2,5
1570179585814082,-1,-2,-3,-1,-1,-2,-2,1
1570179585822967,-1,0,1,-1,-1,-1,-3,2
1570179585822967,0,0,0,0,-1,-2,1,-1
1570179585837927,-1,0,-1,1,-1,-2,-3,-1
1570179585837927,2,1,0,-1,0,-3,-1,17
1570179585838927,0,0,-1,-1,0,0,-2,3
1570179585838927,-2,-3,-1,-1,-1,0,-2,-1
1570179585850893,-2,-2,-2,-2,0,1,1,-3
1570179585850893,-2,-2,-1,-1,-1,-1,-4,-3
1570179585860003,-1,0,0,-1,0,-2,-3,0
1570179585860003,2,-2,0,0,-2,0,1,1
1570179585874831,-1,0,-1,1,-1,-1,0,-3
1570179585874831,2,-1,-1,-1,-1,0,0,-4
1570179585876823,0,-2,0,-1,-2,0,-3,11
1570179585876823,-2,0,1,-3,0,0,0,-8
1570179585897773,-1,-1,-1,-2,1,-1,2,-3
1570179585897773,3,0,-1,-1,0,0,-2,9
1570179585898765,-2,0,-3,-1,0,-2,1,0
1570179585898765,2,0,-2,0,1,-1,0,0
1570179585919784,0,0,0,-1,-1,-1,1,3
1570179585919784,-2,0,0,0,0,1,4,-5
1570179585935667,3,1,0,-1,-2,0,-1,5
1570179585935667,-1,0,-1,-1,-1,-1,-5,-11
1570179585936914,-2,-1,-1,0,-1,0,0,3
1570179585936914,-6,1,2,-1,0,-2,-6,-17
1570179585938659,4,-2,0,0,-1,-2,2,14
1570179585938659,-1,-2,0,0,-1,-1,0,-5
1570179585957673,-1,-1,0,-1,-2,-2,-3,-3
1570179585957673,1,-2,-2,-1,-1,-2,-1,0
1570179585959603,-6,0,-2,-1,0,0,-2,-6
1570179585959603,-5,-2,-1,-3,-2,1,7,-5
1570179585980552,-1,-1,0,1,0,2,3,-4
1570179585980552,1,-1,-1,0,0,0,2,4
1570179585981544,2,2,-2,-2,0,0,-6,1
1570179585981544,4,-1,-4,-2,-1,0,-2,11
1570179585995575,-2,-1,-1,0,-1,-1,-1,-4
1570179585995575,-2,-3,0,-1,-1,-2,-1,1
1570179585997569,0,1,-2,-1,-1,-1,3,-7
1570179585997569,-3,0,0,-1,-1,0,-1,-1
1570179586017448,1,3,-2,0,-1,0,2,15
1570179586017448,2,0,-1,0,0,0,-1,4
1570179586019443,0,0,-1,-2,-1,-1,0,-1
1570179586019443,0,-1,1,0,2,-1,-3,3
1570179586039395,2,0,1,-1,-1,0,-2,4
1570179586039395,-3,2,-1,0,-1,-1,-9,3
1570179586048365,2,-2,0,1,0,0,2,7
1570179586048365,0,0,-1,-1,0,0,-3,-3
1570179586054654,-2,-2,-1,0,-1,-2,-5,-5
1570179586054654,-3,-1,0,1,-1,-2,-1,-11
1570179586061437,-3,-1,-1,0,-1,-1,-5,-9
1570179586061437,3,1,2,1,0,-1,-5,10
1570179586077332,-3,-3,-2,-2,-1,-2,2,-9
1570179586077332,1,-1,-1,-2,0,0,3,2
1570179586079284,-2,-2,1,0,-2,-1,-3,-2
1570179586079284,-3,0,0,0,-1,0,1,-13
1570179586100655,5,0,0,0,-2,-5,-7,13
1570179586100655,3,1,-2,0,-1,1,1,8
1570179586101463,-1,0,-1,-1,1,1,-1,-2
1570179586101463,-2,-2,-2,0,-1,0,-2,-1
1570179586114193,-3,0,0,-2,1,0,-2,-10
1570179586114193,2,0,1,-1,0,-1,3,10
1570179586122169,-2,-2,0,-2,-1,-2,5,-3
1570179586122169,3,1,0,1,0,-2,-9,15
1570179586138126,-1,0,-1,1,-1,0,-2,-2
1570179586138126,-2,-3,-1,-1,-1,-1,0,-4
1570179586139124,-4,-3,-2,-1,0,1,0,-8
1570179586139124,-1,0,0,0,-1,0,5,-4
1570179586160069,-1,0,-2,0,-2,0,-4,-3
1570179586160069,1,-1,0,0,-1,1,-4,1
1570179586162062,2,0,-1,0,0,0,-9,12
1570179586162062,3,0,-2,-2,-3,-1,1,0
1570179586174029,-3,-2,0,-2,-1,-2,-3,-14
1570179586174029,-3,2,1,2,-1,-1,3,-9
1570179586181383,-2,-1,0,-1,-2,-1,0,0
1570179586181383,-1,-2,-2,-2,-1,-1,4,5
1570179586197965,-1,-1,-1,0,0,0,0,-3
1570179586197965,-1,-2,-3,-2,-2,-1,-2,-7
1570179586198963,-2,-3,-3,-2,0,-1,5,-4
1570179586198963,1,-2,-1,-2,-1,-2,-3,0
1570179586219913,0,-2,-1,-1,-1,-2,2,-4
1570179586219913,0,-2,-1,-1,0,-1,-1,1
1570179586221903,0,-1,0,-1,-1,-2,5,1
1570179586221903,5,3,1,0,1,-2,-6,18
1570179586234867,-1,-1,2,0,1,-1,1,1
1570179586234867,0,-1,-1,-1,-2,0,2,1
1570179586240855,-6,-1,0,0,-1,-4,-1,-16
1570179586240855,-3,-1,-1,0,0,0,2,-8
1570179586257807,0,0,-1,0,-2,-1,-2,-8
1570179586257807,2,0,-2,-1,0,0,-2,5
1570179586258828,-1,-2,-1,-1,-2,0,-2,0
1570179586258828,0,0,-1,1,0,-1,-9,4
1570179586280745,0,1,1,0,-2,-1,-2,-2
1570179586280745,-3,-2,-1,-2,-2,-1,2,-5
1570179586281743,-1,1,0,1,-1,-2,-3,-4
1570179586281743,1,-1,-2,1,0,0,5,2
1570179586294709,-1,0,-2,-1,0,2,2,4
1570179586294709,3,-3,-1,-1,1,-1,-2,1
1570179586301688,3,2,1,2,0,-1,-2,7
1570179586301688,-4,-2,0,-1,-1,1,1,-7
1570179586318068,-4,-3,-3,-2,-1,0,13,-12
1570179586318068,4,1,0,0,-1,1,3,11
1570179586319641,1,0,-1,-1,-1,0,-3,0
1570179586319641,-5,-1,-2,-1,-1,0,2,-9
1570179586340584,2,-1,-2,-1,-1,-2,-7,-2
1570179586340584,-2,-1,-1,0,0,0,2,3
1570179586341581,0,0,1,1,0,1,2,0
1570179586341581,-3,-1,-1,0,-1,-1,2,-3
1570179586354567,0,0,1,-1,0,0,-2,1
1570179586354567,-1,2,-1,-1,-1,-2,-1,-2
1570179586361646,1,-2,-2,-2,-3,0,-4,-6
1570179586361646,-3,-2,-1,-1,-1,-1,1,-3
1570179586377486,0,-2,-1,0,-2,1,-1,5
1570179586377486,-2,-1,0,0,-1,-1,-8,-5
1570179586379650,0,0,0,1,-1,-1,0,0
1570179586379650,-1,1,-1,0,-2,-1,1,-1
1570179586400426,0,0,-2,0,-1,-1,-3,4
1570179586400426,-2,-1,1,-1,0,-3,-1,-5
1570179586401423,-2,-2,-1,-2,0,1,1,1
1570179586401423,-1,-2,-2,2,-1,-1,0,-1
1570179586430387,-1,-1,-1,0,0,1,1,3
1570179586430387,-1,-2,-2,0,-1,-1,0,-4
1570179586431342,3,2,2,1,-1,-3,-12,11
1570179586431342,-2,2,1,0,-1,-1,-2,-11
1570179586437557,3,1,-2,-1,-1,0,-2,15
1570179586437557,-1,-1,0,-1,-1,0,-3,-3
1570179586439474,-3,-1,-1,-1,1,-1,1,-5
1570179586439474,2,-1,-2,-2,-1,-1,0,0
1570179586460264,-1,0,2,-1,-2,-2,-5,-2
1570179586460264,-6,-3,-1,-1,0,3,4,1
1570179586462457,-1,0,1,0,0,-1,0,-12
1570179586462457,0,-1,-2,-2,-1,-4,-3,2
1570179586474228,-1,0,0,0,0,-1,2,-3
1570179586474228,1,-2,-2,-2,0,1,0,2
1570179586483206,0,1,0,-1,0,-3,1,4
1570179586483206,0,0,-1,-2,0,1,1,5
1570179586497432,-2,0,-1,1,-2,-2,0,-4
1570179586497432,0,1,-2,0,-1,-1,-1,-3
1570179586499250,-3,-1,-3,-2,0,1,2,-1
1570179586499250,1,-1,0,1,-1,0,1,1
1570179586520110,-2,-2,0,1,1,-1,4,-2
1570179586520110,3,2,0,1,0,0,-5,4
1570179586522100,-1,0,-1,0,1,0,2,3
1570179586522100,6,1,1,0,2,-2,-11,23
1570179586543048,-1,0,1,-1,0,-2,-1,-1
1570179586543048,3,1,-1,1,0,0,2,12
1570179586544342,3,-1,-1,-1,-2,-2,-7,10
1570179586544342,-4,-2,-1,-1,-1,-1,1,-6
1570179586558024,0,0,-2,0,-1,1,-1,1
1570179586558024,0,-1,1,-2,-2,0,-1,-7
1570179586559117,1,-1,1,1,-1,-3,-1,0
1570179586559117,-5,-1,-1,-2,0,-1,-1,-9
1570179586580317,0,-1,-2,-2,-2,2,-1,-6
1570179586580317,2,-2,-1,-1,-1,-2,-10,6
1570179586582041,-4,-1,-2,-2,-1,-1,3,-5
1570179586582041,-2,-1,-1,0,-1,0,3,-6
1570179586593950,0,1,1,-1,1,-2,-1,-2
1570179586593950,-2,-1,-1,-1,-1,-2,1,-8
1570179586602937,0,0,-1,-2,-1,2,3,1
1570179586602937,0,1,0,0,-1,-1,-9,-6
1570179586616852,2,0,-1,0,0,0,1,11
1570179586616852,-3,1,1,0,0,0,4,-3
1570179586625631,-1,-2,-1,0,-2,0,2,-3
1570179586625631,-3,-2,-2,-2,-3,-1,2,-8
1570179586639784,0,-1,-3,-1,-1,-2,2,6
1570179586639784,-1,-1,0,0,-1,-2,-1,-1
1570179586641780,1,0,-1,1,-1,0,-1,-1
1570179586641780,2,-1,0,-1,-1,1,2,7
1570179586653790,-7,-2,0,0,0,0,-2,-5
1570179586653790,7,1,-2,-1,0,0,-5,17
1570179586662722,-4,0,0,1,0,-2,-1,-4
1570179586662722,-3,-2,0,-2,-1,-1,3,-2
1570179586678682,1,-2,-1,0,1,-1,-3,6
1570179586678682,-3,0,-1,-1,-1,-2,1,-13
1570179586679678,-2,-3,-2,-1,0,0,-1,-3
1570179586679678,0,1,0,0,0,-1,-1,0
1570179586707655,0,0,1,0,-1,-1,1,-7
1570179586707655,-4,-3,0,0,-1,-2,-5,-20
1570179586709559,3,-2,-2,-1,-2,0,1,3
1570179586709559,-2,1,1,0,-1,0,2,0
1570179586714084,-4,-2,-1,-3,-2,0,7,-7
1570179586714084,1,0,1,0,1,0,-6,2
1570179586722528,1,-1,1,-1,-1,0,-1,2
1570179586722528,-4,-2,-2,-2,-1,-2,-3,-12
1570179586737946,0,-1,-1,-1,-1,1,1,-2
1570179586737946,-2,0,1,-1,0,0,2,-9
1570179586739584,-2,-3,-1,-1,-2,0,8,-12
1570179586739584,3,-2,-1,1,1,1,-5,8
1570179586768079,-1,-1,2,0,-1,-1,-4,0
1570179586768079,-3,-2,-1,0,-3,-1,3,18
1570179586768877,-5,0,-2,-1,-1,-2,-3,11
1570179586768877,2,-1,-1,-3,-1,1,1,5
1570179586773870,4,0,0,0,1,-1,0,19
1570179586773870,0,0,0,-1,-2,1,-1,-6
1570179586782929,-2,-3,-2,-2,-1,-2,-3,-10
1570179586782929,-1,0,-1,-1,-2,0,4,0
1570179586797989,0,-2,0,-2,0,-2,-5,-9
1570179586797989,-1,0,-2,-1,-2,0,4,-1
1570179586799061,3,1,1,0,-2,-1,-3,0
1570179586799061,0,0,0,0,-1,-1,-1,-5
1570179586820699,0,-1,-2,-1,-1,-1,1,-5
1570179586820699,-5,-3,-3,-2,-1,-1,10,-11
1570179586821697,-1,-1,0,0,-2,0,-3,-2
1570179586821697,-4,0,-1,1,1,1,16,-10
1570179586843210,-1,-1,-1,-2,-1,-1,-5,-1
1570179586843210,-3,-1,0,-1,0,0,-1,-3
1570179586845168,-1,-1,-2,-2,2,0,0,6
1570179586845168,-3,-2,-2,0,0,-1,0,-2
1570179586856453,1,-1,0,-1,-3,0,-2,-2
1570179586856453,-1,1,-1,-2,1,-1,-2,1
1570179586865471,-1,-2,-1,-2,1,1,3,-3
1570179586865471,1,0,0,2,-1,-1,-5,0
1570179586880634,1,-1,-1,-1,-1,-1,-2,-3
1570179586880634,1,-2,-1,0,-1,0,-3,3
1570179586881733,0,-1,1,-2,-2,-1,-1,1
1570179586881733,-3,-1,0,1,-1,-3,-4,-4
1570179586903003,0,0,-1,0,0,-2,-1,4
1570179586903003,4,1,1,0,-1,1,3,3
1570179586904070,2,0,-2,0,-1,-2,-3,3
1570179586904070,-2,0,-1,-1,-2,-2,-2,-5
1570179586917911,-1,0,-1,-2,-1,0,-1,-2
1570179586917911,2,1,-1,-2,1,-2,-3,3
1570179586919153,0,-1,-4,-3,-1,1,-1,-2
1570179586919153,2,-1,-2,-2,2,-1,1,10
1570179586940515,-4,-3,-1,0,-1,-1,1,-2
1570179586940515,-3,-1,0,2,-2,-3,-6,-2
1570179586941514,3,0,-2,-4,1,2,1,2
1570179586941514,0,4,9,6,0,-3,2,-2
1570179586962406,6,2,1,0,2,2,-2,8
1570179586962406,-2,-1,-1,1,2,0,3,-3
1570179586964407,1,1,1,2,4,-1,3,-1
1570179586964407,-6,-5,-6,-7,-13,-6,-3,-7
1570179586985571,3,2,-2,5,5,-3,-4,-7
1570179586985571,-3,0,4,2,-6,-2,-3,-2
1570179586986345,-6,-2,4,-2,7,6,2,1
1570179586986345,-2,-2,-6,-4,5,6,22,4
1570179587000609,0,2,-6,6,2,-3,-13,-20
1570179587000609,6,-4,-4,-9,-16,-9,-15,-12
1570179587001311,0,0,1,-2,-14,-6,5,-7
1570179587001311,-4,-4,4,-8,-11,-5,-14,1
1570179587022253,-4,-7,-19,-14,-8,-5,-9,-1
1570179587022253,-2,4,7,12,12,9,8,13
1570179587024241,-7,2,9,1,2,2,-7,-16
1570179587024241,13,37,22,10,9,4,5,19
1570179587045883,1,0,-5,-9,-4,3,15,18
1570179587045883,-12,-26,-9,1,13,1,-14,-1
1570179587046185,20,1,-5,-18,-17,-6,7,41
1570179587046185,-6,-22,-12,10,13,4,-4,-19
1570179587060146,-21,2,26,-3,-7,-3,-8,-30
1570179587060146,-20,-2,-20,-10,-12,-9,0,-13
1570179587062141,15,17,-13,14,10,-1,-3,3
1570179587062141,24,22,12,14,0,3,-2,3
1570179587083083,-10,-6,4,2,5,-1,4,16
1570179587083083,19,-4,0,-31,-22,-3,4,-54
1570179587084081,-48,-26,-20,-19,9,7,-4,-97
1570179587084081,-12,16,12,11,11,3,-1,-63
1570179587096152,-1,8,7,18,-4,3,5,-39
1570179587096152,12,-17,2,30,4,-4,3,-38
1570179587105026,19,-3,4,-8,-3,-2,-4,-62
1570179587105026,21,13,-27,-10,2,-6,-1,-20
1570179587119989,-27,-62,-14,-4,5,3,5,-123
1570179587119989,-5,20,5,-20,9,6,3,-114
1570179587121982,4,-2,-13,19,3,-1,-2,-37
1570179587121982,4,7,14,7,-3,0,-1,31
1570179587157883,1,5,5,3,-3,-2,2,88
1570179587157883,-6,8,-6,-15,-12,-3,15,127
1570179587159878,10,2,3,15,4,5,0,108
1570179587159878,-5,-19,2,-18,-2,-4,-6,85
1570179587160877,7,7,-14,5,1,-5,-43,94
1570179587160877,-13,-10,6,0,-13,-8,9,80
1570179587164866,9,14,4,-1,16,14,16,94
1570179587164866,-28,-50,-26,-14,-13,-1,-8,39
1570179587179825,38,37,12,1,-14,-8,-10,38
1570179587179825,-21,-39,-10,11,19,10,10,46
1570179587181820,-1,20,5,-4,-6,-7,5,29
1570179587181820,19,-1,15,20,9,-2,-11,6
1570179587203019,0,6,-2,-1,14,8,0,3
1570179587203019,-1,24,-6,-12,-14,-3,-8,14
1570179587208749,-39,-24,30,46,46,16,7,8
1570179587208749,13,-5,-27,-23,-16,-9,-4,-10
1570179587216725,46,45,10,-10,-42,-21,5,-6
1570179587216725,-8,-5,0,2,3,-1,-4,8
1570179587231688,-8,-12,-19,-19,-10,-9,4,-9
1570179587231688,-36,-34,3,-17,8,6,-6,-3
1570179587240663,11,10,-5,17,11,6,11,-1
1570179587240663,8,1,-4,4,-2,3,-2,-4
1570179587241660,-3,11,13,7,25,12,-7,-7
1570179587241660,-6,10,10,1,24,14,15,8
1570179587262609,-23,-18,13,20,-39,-24,2,-1
1570179587262609,-19,-12,-2,-1,-20,-6,-3,-2
1570179587268587,97,47,-23,-41,-21,0,-12,5
1570179587268587,-73,-28,5,14,-4,-29,-3,-5
1570179587276634,58,33,-7,2,35,23,13,-4
1570179587276634,-75,-41,8,16,-5,-9,-5,-12
1570179587285610,50,5,-2,3,-9,-7,-11,-17
1570179587285610,17,3,-24,-34,1,4,5,0
1570179587301574,-37,-3,-8,-22,-1,2,3,-13
1570179587301574,14,19,9,-2,6,-1,0,15
1570179587303562,-49,-12,-5,-19,-33,-12,-5,-2
1570179587303562,-7,-20,0,9,-5,3,-1,-7
1570179587322538,-2,-3,13,14,14,1,-3,31
1570179587322538,58,29,-11,-4,13,7,-2,-5
1570179587324507,-22,-6,10,0,-16,-10,-2,-3
1570179587324507,-1,-2,6,11,-12,0,-1,-2
1570179587336474,-23,-12,-2,-1,21,18,16,6
1570179587336474,36,19,1,2,9,-9,-7,-27
1570179587345450,-9,-6,-6,-15,3,4,-3,3
1570179587345450,9,3,-4,5,-26,-7,0,-9
1570179587359412,-33,-34,-3,10,-13,-13,2,-5
1570179587359412,-7,1,-2,-5,-7,-6,-3,-12
1570179587366399,-16,-17,14,14,-10,-9,3,-4
1570179587366399,27,32,3,8,21,13,3,-19
1570179587382351,-1,0,7,9,16,5,-10,-6
1570179587382351,9,-5,-9,-2,5,2,-19,-15
1570179587384350,-8,-5,-7,-12,4,-1,-7,-13
1570179587384350,-9,5,7,6,9,3,5,-8
1570179587396314,1,-14,-6,-15,-2,-3,8,-4
1570179587396314,14,18,5,-1,-4,2,5,4
1570179587405291,-51,-30,-14,-10,-15,-4,-2,-12
1570179587405291,30,22,20,14,24,11,2,4
1570179587420444,35,12,-12,-21,-22,-10,2,-5
1570179587420444,8,9,8,15,33,13,-3,6
1570179587421247,5,4,-1,4,-30,-15,8,0
1570179587421247,-15,3,5,-6,-15,-5,-10,-2
1570179587442200,-19,-26,-12,-7,-2,-3,-1,-15
1570179587442200,3,0,-7,-19,-3,6,4,-16
1570179587444187,-26,-32,-5,-8,16,7,0,-12
1570179587444187,12,36,14,28,12,1,4,-5
1570179587456198,24,21,-3,-13,-2,3,-5,-6
1570179587456198,-12,-10,-2,5,12,4,2,18
1570179587465131,50,38,12,19,7,-4,-5,-2
1570179587465131,-9,-26,-18,-14,-17,-5,-3,1
1570179587480093,-22,-23,-7,-9,8,7,0,5
1570179587480093,-9,-12,7,3,1,7,14,4
1570179587482086,-12,2,-2,16,-4,-5,-2,12
1570179587482086,14,1,4,-3,-13,-10,-7,4
1570179587502033,-19,-6,8,8,-4,-2,0,-9
1570179587502033,34,28,-11,-9,-15,-7,2,-1
1570179587510157,-4,-8,-2,-4,19,19,8,12
1570179587510157,7,-8,-10,0,19,10,2,-8
1570179587515994,-6,-5,-10,-15,-34,-22,-21,3
1570179587515994,-11,-4,11,13,-9,-8,-2,6
1570179587524970,14,11,13,22,6,-6,-6,-10
1570179587524970,4,7,-7,-12,4,3,2,-2
1570179587539930,-21,-19,5,4,22,12,10,-7
1570179587539930,13,4,-6,2,-5,-2,-3,-11
1570179587540927,-22,-1,9,3,-6,-7,-7,-12
1570179587540927,2,-19,-15,-13,-8,1,19,3
1570179587562111,7,5,-6,-14,0,9,19,0
1570179587562111,10,4,-1,-7,-8,-10,-52,-4
1570179587562869,-19,-14,0,-12,-18,-9,1,-7
1570179587562869,-2,20,-2,-4,-14,-12,-14,1
1570179587584817,11,-4,-7,-3,-3,-7,-5,-4
1570179587584817,-7,-3,0,-12,12,8,19,-13
1570179587584817,9,-4,-6,6,63,42,12,19
1570179587584817,0,-4,-14,-11,-50,-33,-13,-7
1570179587599774,0,-23,6,4,-28,-21,-4,24
1570179587599774,-12,6,1,3,-6,-8,-5,-24
1570179587599774,20,13,13,20,19,3,15,47
1570179587599774,3,12,-14,-9,13,25,35,11
1570179587622715,-8,27,29,14,0,3,-21,-12
1570179587622715,-18,-57,-30,-27,-39,-20,-3,-6
1570179587622715,16,20,-3,-8,20,13,8,3
1570179587622715,-1,-2,-5,3,38,17,-3,-25
1570179587644656,-8,11,8,8,-31,-10,26,-6
1570179587644656,-10,1,-2,15,35,13,-27,-11
1570179587645648,1,-1,2,-10,-6,0,-7,-15
1570179587645648,-23,-36,15,19,-20,-12,-7,-8
1570179587659614,-3,5,-3,-8,4,2,-3,7
1570179587659614,20,15,12,11,-7,-6,25,48
1570179587660607,30,11,-7,17,-18,-11,6,4
1570179587660607,-10,19,5,-2,1,3,-11,-7
1570179587681642,-47,-45,0,11,48,26,9,-43
1570179587681642,2,-5,-11,-17,46,18,10,-11
1570179587682559,5,-6,-4,-10,-53,-26,-20,-8
1570179587682559,-37,-18,-10,-25,-10,3,0,-5
1570179587704585,65,28,6,16,-62,-51,-18,8
1570179587704585,-33,-5,-8,-1,13,16,11,-4
1570179587705491,-26,6,12,4,24,13,19,27
1570179587705491,60,29,47,62,40,12,-24,21
1570179587718569,-72,-53,-41,-32,41,21,1,-26
1570179587718569,29,37,37,52,-5,-10,11,19
1570179587726440,22,13,16,18,3,-8,-17,-18
1570179587726440,-14,-12,-18,-19,24,21,17,9
1570179587742393,4,6,-3,-8,1,-1,6,2
1570179587742393,13,15,3,-4,-18,-4,-28,25
1570179587742535,-33,-49,-1,-8,-42,-21,-2,-23
1570179587742535,29,38,8,9,2,-12,5,51
1570179587764369,-2,-11,-3,7,32,25,11,25
1570179587764369,-15,0,5,15,-18,-14,19,-21
1570179587765389,21,5,-7,-13,-4,-2,-15,18
1570179587765389,-11,-21,-27,-36,-22,-7,3,-38
1570179587779294,20,19,14,19,17,12,3,12
1570179587779294,7,15,0,2,7,2,4,0
1570179587780373,-41,-41,-11,-3,-17,-4,-6,-22
1570179587780373,1,-6,2,-8,-30,-18,-2,2
1570179587802234,20,19,-3,-17,8,5,-10,-13
1570179587802234,-18,-24,6,13,23,9,-1,2
1570179587803227,19,10,3,13,12,-2,0,10
1570179587803227,-15,-16,-24,-29,-26,-9,1,-4
1570179587824171,11,14,-3,-3,5,2,-9,-1
1570179587824171,-7,-1,0,-26,-18,-9,-1,-27
1570179587825265,22,3,-15,-7,2,16,12,9
1570179587825265,-12,5,20,27,-2,-5,-3,5
1570179587839137,0,-15,-3,-2,-1,-9,7,-2
1570179587839137,11,1,-10,-5,8,16,20,11
1570179587840130,-31,-11,-6,-2,-13,-14,-32,-18
1570179587840130,35,25,17,9,-10,-16,-17,-22
1570179587862068,-24,-7,-10,-11,-14,-6,5,-2
1570179587862068,-12,-13,-15,-14,5,5,-1,-3
1570179587877039,13,49,8,-4,-1,-2,11,10
1570179587877039,-35,-57,8,14,-6,-5,-4,-38
1570179587884340,28,10,-20,-20,-23,-9,-9,27
1570179587884340,-9,4,5,17,16,11,5,-17
1570179587885008,-15,-2,2,-11,-12,-4,2,-10
1570179587885008,5,3,-7,-3,-12,-5,-8,8
1570179587899063,8,10,8,5,11,7,5,1
1570179587899063,-17,-11,-3,-11,-11,-10,3,-10
1570179587899974,1,-4,-2,5,11,2,-10,-12
1570179587899974,16,2,-9,-16,-15,-1,4,43
1570179587921911,-5,0,4,-3,-10,-9,-29,-15
1570179587921911,-9,1,3,-2,-5,-6,11,-54
1570179587922907,6,-23,-27,-36,9,3,5,-6
1570179587922907,-7,-7,0,5,11,15,3,-31
1570179587952913,20,18,4,-3,10,-2,-26,23
1570179587952913,-13,-8,-2,-5,-10,-4,2,-12
1570179587953826,2,4,-3,-10,-3,-7,-18,1
1570179587953826,26,19,8,28,35,16,13,10
1570179587959809,-76,-22,-2,-6,-48,-5,47,-45
1570179587959809,2,-23,-23,-12,-2,-23,-35,-1
1570179587959809,7,6,3,-7,6,11,13,23
1570179587959809,-18,-19,9,16,1,-3,-4,4
1570179587981749,26,13,-1,1,19,7,11,11
1570179587981749,12,-10,11,16,-8,2,9,10
1570179587982747,5,10,1,23,24,18,4,4
1570179587982747,-22,-4,-22,-43,-59,-33,-7,-46
1570179588004692,28,4,1,-9,-11,5,-6,17
1570179588004692,5,25,6,1,-5,-8,-16,-21
1570179588005687,-14,-24,-11,-8,-10,-10,-17,-3
1570179588005687,65,31,1,-1,14,-3,-4,-12
1570179588018689,-79,-46,-13,1,-10,-2,2,-32
1570179588018689,51,19,6,-11,7,10,-4,125
1570179588026635,-33,-28,-3,-2,-4,-6,8,-5
1570179588026635,-9,17,3,2,10,4,-5,-2
1570179588041592,16,-13,-7,1,-3,-13,-10,-11
1570179588041592,18,8,-4,-6,24,23,11,-5
1570179588042586,38,28,13,-7,-51,-21,2,-31
1570179588042586,-51,-30,9,9,24,16,1,15
1570179588064655,19,-22,-8,5,29,10,0,26
1570179588064655,26,22,2,-4,-1,0,-7,-17
1570179588065533,0,-24,8,11,-5,-11,1,-15
1570179588065533,4,30,3,-14,-3,3,11,-3
1570179588078804,-5,6,8,21,20,13,9,-18
1570179588078804,-28,-24,0,-9,15,11,-1,69
1570179588094449,23,16,-21,-16,-30,-23,0,26
1570179588094449,-26,-8,22,23,13,-7,-7,59
1570179588101432,0,9,-8,-14,-17,6,1,16
1570179588101432,6,9,20,10,31,15,9,-5
1570179588102802,34,25,9,8,3,7,-4,-11
1570179588102802,21,-19,-25,-10,20,5,30,-68
1570179588124371,-57,-49,-12,-24,-26,-24,-55,-31
1570179588124371,27,7,-1,-6,-2,1,-1,-23
1570179588125366,15,0,-19,3,3,-5,22,-2
1570179588125366,-12,-6,6,-7,-10,0,-6,37
1570179588138376,6,13,24,32,37,13,6,6
1570179588138376,12,18,5,18,9,5,3,-10
1570179588147306,-47,-5,5,11,8,-3,17,-56
1570179588147306,3,-3,-13,-13,-3,0,-6,11
1570179588162266,44,54,7,1,5,7,5,0
1570179588162266,-56,-27,-2,-7,-97,-45,-14,20
1570179588162379,-25,-7,7,4,28,16,1,-11
1570179588162379,31,7,1,28,23,8,2,17
1570179588184210,-33,-5,-1,-27,14,-5,-7,13
1570179588184210,50,20,-1,22,16,10,5,-16
