timestamp,emg1,emg2,emg3,emg4,emg5,emg6,emg7,emg8
1570180071105204.0,2.4383387730506523,1.1402533878413292,2.1785313601439342,1.7943428807309127,0.81061072295309,0.28412268748241964,2.397428093886491,10.054925553699064
1570180071105204.0,2.137398480259014,1.0085685080353675,1.736834156003892,0.7850359316228948,0.7631546339755612,0.2942088506576489,2.3543891494078424,7.658603238323616
1570180071106203.0,2.1099855011021504,1.0117605341453115,1.7050535680663559,0.6865123211440368,0.7921868879239986,0.3296441789494987,2.410221540876591,7.494965164836315
1570180071106203.0,2.087285558129459,0.9897669158616725,1.5988365270074245,0.39684547201529835,0.7928034682068671,0.3698267435160828,2.403849928939673,6.907299640964662
1570180071109365.0,2.0610217771331234,0.9938199784503738,1.570134954478654,0.3086302429340094,0.8171366408245478,0.3974455817992628,2.42082434541176,6.748310767622146
1570180071109365.0,2.0569351433479874,0.9861488211292588,1.5134465212643744,0.22199508582437366,0.8237613490339545,0.432132929512446,2.39260553180375,6.413676367354601
1570180071110196.0,2.023301413042608,0.9863964847371733,1.484604358560911,0.14998028316378062,0.8392794136766392,0.45921926079449665,2.3779310412515025,6.2462135620124135
1570180071110196.0,2.01883158518973,0.9780583290995928,1.4445810211066767,0.22596616654665702,0.8417838869650237,0.4938428368499919,2.351873317420476,6.027080767704945
1570180071117169.0,1.9831394510750164,0.9707911968446112,1.4162651668187476,0.2042222661439527,0.8534847971755736,0.5207282206560573,2.345850481767987,5.897330732246921
1570180071117169.0,1.9737279027845331,0.9588062998253288,1.3859859560498324,0.31064133933343513,0.8591549667210586,0.5507278149168889,2.326999771489589,5.748923856422876
1570180071132182.0,1.933035742380288,0.9494346122998366,1.3604740478271253,0.306892912796518,0.8721293584457409,0.5736588279650269,2.321943145642261,5.6352633930937674
1570180071132182.0,1.921510172071739,0.9391440944943305,1.3348540999356504,0.38838959971298526,0.8775425421697695,0.6006531448792775,2.311587032483153,5.507431487758053
1570180071140115.0,1.8852420098369127,0.9324098832038241,1.3058744819516104,0.38484835356818015,0.8842100952418933,0.6223643045244172,2.311601650398366,5.395999441174475
1570180071140115.0,1.8744865259469707,0.9259329784197007,1.2788465148187955,0.4473061076055482,0.8833134391895725,0.6471881730966857,2.302285874316911,5.2993852716304035
1570180071147136.0,1.8397605176586187,0.9226560746766621,1.2486873861811287,0.44740140142071666,0.8848903558988475,0.6663267900087162,2.3046351184806886,5.21042962544049
1570180071147136.0,1.829578642657566,0.9186425319193439,1.2222468509239146,0.5008810204128303,0.8822209155281562,0.6867762614172013,2.3047636305659074,5.1292012501489355
1570180071155068.0,1.7997405002115552,0.916780832543211,1.1931533023809953,0.5046298970490903,0.8846543140777406,0.7033828212909744,2.3135404380224833,5.046813273258768
1570180071155068.0,1.7951940292076667,0.9141774443286932,1.170834920863066,0.5541954746679034,0.8868719997778307,0.7226179821649306,2.315757277551281,4.986197529109516
1570180071178456.0,1.776995664490107,0.9127749331104615,1.146662684722313,0.5617688439752098,0.8956759013682078,0.7366695596171425,2.3256360425091898,4.922201840710556
1570180071178456.0,1.7800178784765424,0.9117471192030334,1.1281216395795088,0.6060876149163336,0.9041435792755584,0.7511556724524892,2.3311874319646506,4.8625849253393065
1570180071181107.0,1.7646215813082955,0.9159299144235554,1.1067971851008473,0.6139081438011255,0.9154913091904743,0.7633040898187624,2.341266030961407,4.771570890440353
1570180071181107.0,1.7659491937090317,0.9199780753520425,1.0906394321899913,0.6506575078515421,0.9207407087398206,0.7781381543496348,2.3459370456676663,4.688811653324346
1570180071192533.0,1.7536716646702748,0.9253163486851588,1.0709452264305874,0.655119233360661,0.9255767800610121,0.7905594727583917,2.3570453500967825,4.593332186958207
1570180071192533.0,1.760282786632169,0.9307845479406887,1.0565796796532647,0.6854117069700949,0.9286186067356594,0.8013202104209298,2.3646586806586254,4.519994970741789
1570180071232861.0,1.7574809806458502,0.9414245841862643,1.0431965878838838,0.6889272979989359,0.9367875218804097,0.8045058405128375,2.374966680191752,4.437165666328258
1570180071232861.0,1.7694358072090468,0.9516000588256892,1.0367304195706624,0.7146139949523496,0.9437577265423961,0.8076744602590826,2.3771515968161423,4.376878953341884
1570180071232958.0,1.7597341182771493,0.960660756544787,1.0302449776851277,0.7174509560387666,0.9523850345288644,0.8118371225772807,2.378114005214998,4.313733004482514
1570180071232958.0,1.7522359474263614,0.9640224832834406,1.0260256161846608,0.740829262783801,0.9608215539464668,0.8198702527181899,2.3766139172378686,4.271559299253509
1570180071236885.0,1.7257838025801797,0.9656727594081571,1.022041458648128,0.745694121289272,0.9731553655074616,0.8274862135056869,2.3846905996767536,4.219852548241708
1570180071236885.0,1.7134856405844625,0.9641295363586965,1.022866713398248,0.7684725302446642,0.98331146904611,0.8377314180977772,2.393815575685592,4.180314295275209
1570180071237848.0,1.6901532387307876,0.9616733627598513,1.0225292142562445,0.772474615142627,0.9932547368843032,0.8477510988324644,2.409604258079186,4.136581393494791
1570180071237848.0,1.6786634990016536,0.9572841709949714,1.0217612785777859,0.7903161552856579,0.9992562281223459,0.8613422618453866,2.423145812864823,4.108565355509435
1570180071243173.0,1.655267011471312,0.9548451218797721,1.018737155324443,0.7936940088338108,1.00593866125367,0.8760091096731737,2.4373503712953077,4.083871123339229
1570180071243173.0,1.6452401533946308,0.9532934295439324,1.0171441490149886,0.8102043664826716,1.0111963509954969,0.8926005287484743,2.4479556394299227,4.0765502796604896
1570180071251026.0,1.627938078436037,0.953339262850163,1.0133697693080925,0.8116955734959077,1.0187705073085536,0.9057232309851064,2.4608626376647105,4.075276701713792
1570180071251026.0,1.624465867406087,0.9511660232625275,1.0090240179797931,0.8236833572512172,1.0254356207709237,0.9171099014878492,2.4699615189244266,4.0890737252424945
1570180071266046.0,1.613808139495916,0.9466719697601429,1.002275144744821,0.8248280157518568,1.0319128891814078,0.9263185408228368,2.4809088647476476,4.11286025674758
1570180071266046.0,1.6130571233433575,0.9384080493187998,0.9968382569951378,0.8350013466560461,1.03612134827265,0.9376418660025123,2.485699323452638,4.147552412327329
1570180071273986.0,1.5992554131213006,0.931140749109361,0.9899725625242742,0.8327902386058023,1.0401895836814399,0.9503331801744306,2.4852755773921458,4.171443845099073
1570180071273986.0,1.5929127964056242,0.9260392508536964,0.9852796973903714,0.8371568178552461,1.040217807555621,0.9654921606636612,2.475737761879499,4.169743232427836
1570180071280765.0,1.581420667571971,0.9246965324933046,0.9812561786696878,0.8311759742672866,1.0388059859006906,0.9790710575586798,2.4653447224642777,4.140384070113275
1570180071280765.0,1.5807255517657717,0.9241773286322726,0.979447615373415,0.8321049460724378,1.0361118946298986,0.9921761084167978,2.4512305618776913,4.11021573237435
1570180071304665.0,1.571741981974042,0.9275156298072016,0.9764948221352475,0.8268238577926201,1.0345677621101148,1.0012316613092045,2.424635576468398,4.075713556961486
1570180071304665.0,1.5688971268012473,0.9312101825967777,0.9728242856938865,0.8309149036564791,1.0314004102244971,1.0069564724104356,2.3776375076442826,4.042735104528197
1570180071305821.0,1.5601199119869804,0.9357834626259776,0.964816115543146,0.8291217554561299,1.028493163328973,1.009569533773642,2.3301818626608837,4.009843460993276
1570180071305821.0,1.5623911130754609,0.9399242214911495,0.9568832409914945,0.8315701162277012,1.0262035208116909,1.0125861847728368,2.2899762340424616,3.9882452180331405
1570180071317774.0,1.5594613923681495,0.9460810776940699,0.9464122573303991,0.826681744288737,1.0256194485878003,1.016276833659212,2.2561381074427795,3.9616210974680253
1570180071317774.0,1.5592838333518235,0.9517733786664132,0.9359559685241567,0.8268871407150352,1.0243598699342018,1.0222197673770805,2.2226158205391475,3.9366061612757677
1570180071326692.0,1.5503812812728615,0.9606158431288817,0.92379633220903,0.8212626461037824,1.02378506338845,1.0266413732880089,2.1921575308063828,3.9075416450911598
1570180071326692.0,1.5474779625232966,0.969726738682186,0.9115754284414642,0.8202396863151123,1.021624250492778,1.0273158424486801,2.1613853436888792,3.883209571336406
1570180071342567.0,1.540803716961422,0.9817689610799374,0.8965096815898724,0.8149561953146465,1.019522395675994,1.0242195615025484,2.136577911072508,3.861385505850008
1570180071342567.0,1.5394385891349827,0.992776935190773,0.883931230329808,0.8156411664233946,1.0192265108650551,1.0213016024532513,2.116266744838475,3.8474874090449176
1570180071343649.0,1.5324431821048623,1.0046795390831589,0.8728413356282476,0.811839256544621,1.022288124778532,1.0181585269566318,2.100331619249832,3.8361008877104745
1570180071343649.0,1.5334640487895603,1.0137681016636495,0.8631640712470492,0.8116799687811094,1.024394367711212,1.0144641577252616,2.085375822848068,3.8307053628443835
1570180071364826.0,1.5343887468922408,1.0222209025622848,0.853288693900063,0.8066750409209029,1.0262011062361454,1.0085817475869554,2.074443165640219,3.8226270443243893
1570180071364826.0,1.5416725782168335,1.029643470439878,0.8463809372133126,0.8064498725206587,1.0286657364055791,1.0014143923591663,2.0668120146355444,3.8127454501353206
1570180071365520.0,1.548414807902041,1.040343535091716,0.8428154280488425,0.8044672105171526,1.033627698400259,0.9933588718013303,2.064920824711452,3.8085671624057715
1570180071365520.0,1.5630561093053625,1.051333129725047,0.8428168799433561,0.8084073502718147,1.0397332676159363,0.9867755040298236,2.0648344973588286,3.8138148727008505
1570180071378470.0,1.5794312521035057,1.0627727675960703,0.8455315288495107,0.808032173893093,1.0458693909078758,0.9795760759342128,2.0692826021479296,3.823314598734481
1570180071378470.0,1.601067168327541,1.0676555928346543,0.8482569131901372,0.8095849226585117,1.0493926018658233,0.9685726065586101,2.0704818020877003,3.819226215142909
1570180071387445.0,1.6180074854077438,1.0683710625821872,0.8508948232993772,0.8059040535181052,1.0514941131232916,0.953928253830276,2.0691885790032827,3.7905963209766647
1570180071387445.0,1.6361182042027027,1.066970317538843,0.8513057137830577,0.8076142586749138,1.0514458779301383,0.9411277346231216,2.0696664546802133,3.755405155169262
1570180071401449.0,1.6523244360953235,1.0671760446773075,0.8508894153130188,0.8076261616549635,1.0511246761654838,0.9310992197006397,2.0762483262796647,3.725980166863549
1570180071401449.0,1.6718069239313045,1.066872992880839,0.8491685974809444,0.8112691754286425,1.0496265493573371,0.9231435808859413,2.083841619591506,3.7014361229682624
1570180071408388.0,1.690038112203614,1.068978778182269,0.8467983789300315,0.8115144696602048,1.0468094667239567,0.9166591566792724,2.0963092090493816,3.679153995656579
1570180071408388.0,1.7081599775775291,1.071240833923164,0.8431595931185011,0.8164121823093523,1.0431083366703227,0.911073613123868,2.109902482436185,3.650064764611745
1570180071424574.0,1.7178466466110316,1.073668399842083,0.8422281987933973,0.817725232188824,1.0400993091221584,0.9060340577507159,2.1260306547656476,3.615053511413192
1570180071424574.0,1.727252235639,1.0747166481251065,0.8417492307711871,0.8226256840444404,1.0381537838998007,0.9029108352690807,2.1445059841463956,3.5837401384791887
1570180071426342.0,1.7348087301445758,1.0784141284783924,0.8453315290210215,0.8240327329172317,1.0397177795090389,0.9000726529943779,2.1676808093552475,3.5668361825116173
1570180071426342.0,1.7455819926691991,1.0846423224307793,0.8509133777591734,0.8268625500701687,1.044821146585674,0.8982493173560625,2.1918429577802123,3.557117594158738
1570180071447292.0,1.7549894640886792,1.0959294674375717,0.8604681012342648,0.8260588261782444,1.0507645394383494,0.8977936322236302,2.219695505097753,3.5625661861413103
1570180071447292.0,1.767064967602843,1.1088283751587942,0.8695764237350319,0.8296519566709519,1.0533802325253565,0.8991303009753588,2.249575814458085,3.5772344457464067
1570180071448285.0,1.7750792415505758,1.1222593626604593,0.8829338626675489,0.8301943992280918,1.053538084268356,0.9015297789091907,2.2836938250911176,3.606657154850124
1570180071448285.0,1.7836039384435929,1.1327853496227862,0.8962570722212744,0.832886418969303,1.0528463894292464,0.9043888555572887,2.3170490296710997,3.633311900424321
1570180071462245.0,1.7878073365966758,1.1436420277319628,0.911437350150551,0.8319773052836946,1.052516297193076,0.905332539880537,2.351802497926772,3.6744622446165534
1570180071462245.0,1.7922989869929702,1.1538764822299417,0.922601870316239,0.8332766838057009,1.0492355204967354,0.9055820392367113,2.3863168803762496,3.7160862586147334
1570180071463243.0,1.7939697557578789,1.164232090161897,0.9333066924415717,0.8323082454523432,1.040556869240969,0.9076845666567619,2.4219997706617016,3.76720602028877
1570180071463243.0,1.7998081985817913,1.1732646363580277,0.9418366977712804,0.8352334815451091,1.0283308741227077,0.913650766850272,2.455726893821548,3.8156876447287638
1570180071484388.0,1.8074676539789556,1.1833786008628429,0.9528086699991912,0.8355166760273383,1.0164703620471844,0.921295978813681,2.4842835956669775,3.8800411716117087
1570180071484388.0,1.8189662979452166,1.19003723268347,0.9614427011335751,0.8365019923506823,1.0047106628146822,0.9292191969605845,2.4866227774976277,3.9281405035171146
1570180071486286.0,1.8220992026085265,1.193275817596132,0.9725018581533088,0.8336102203874108,0.9910867483679465,0.9360725976788621,2.461207031584014,3.9649204380423546
1570180071486286.0,1.8216322012340853,1.1949915161032092,0.9810834020221664,0.833740013025432,0.9774595743880434,0.9425983828320811,2.4325734339320695,3.9860074306224886
1570180071507128.0,1.8159952832453863,1.1970215259168917,0.9889982617152523,0.8329014326811428,0.964745578881075,0.9473089919999159,2.4139534538133285,4.014754628092472
1570180071507128.0,1.8124507102291152,1.196308308634587,0.9931573678218443,0.8356500090997842,0.951899131746128,0.9514200384719662,2.394425306343253,4.03718678201306
1570180071508125.0,1.8069198954870755,1.1919915235993421,0.9968380497029015,0.8372593325081459,0.9388530348862281,0.9573405304570235,2.37155016030297,4.06811603810741
1570180071508125.0,1.804861535532841,1.1834903397454928,0.9971923817386004,0.8421747908796364,0.9255661936765646,0.9659911400551469,2.3485163678149625,4.0894781785168774
1570180071522347.0,1.8012324185338937,1.1744636534240462,0.9981536085700033,0.844765694928986,0.9129675707694834,0.9755905722862821,2.331916486909679,4.112088849836032
1570180071522347.0,1.7995661631876338,1.1660559402188955,0.9988952272619406,0.8475625273554626,0.9020190926558963,0.986447731094984,2.3205131082867654,4.118376390228004
1570180071523087.0,1.7921335760284471,1.1596886939052231,1.0016066912761192,0.8467492824483658,0.8927019583383073,0.994770208937594,2.314970702716885,4.118258984542546
1570180071523087.0,1.7853283780054199,1.1546401546088723,1.0008636130820292,0.847232499769654,0.8849467225638987,0.9991076627094184,2.3130723358998395,4.112604786808131
1570180071544829.0,1.7778225917773887,1.1484031619473556,0.997332363232319,0.8442909623140958,0.877767751821593,1.001563265201346,2.314932335849683,4.119957700591927
1570180071544829.0,1.7773028637406574,1.1396768550132643,0.9911226013942972,0.8427232335086212,0.8700916245786092,1.0043978904361768,2.3191310520180566,4.130481061033194
1570180071546022.0,1.7793803898618743,1.1318743443876567,0.9859498273709602,0.8408498189955115,0.8630027866399693,1.0069264441199697,2.3274292423015708,4.159782968826623
1570180071546022.0,1.7886349344720545,1.126392079616096,0.9788138453192502,0.8406902707159888,0.857332040487855,1.0096126077115066,2.33638080498664,4.191069583994404
1570180071565972.0,1.7958655017136729,1.1215211093622761,0.9695295022467694,0.8372059946569482,0.8521683742807702,1.0118796853618166,2.343311067243797,4.226803213655209
1570180071565972.0,1.8019170095219736,1.1149541574664559,0.9566873861950902,0.8325820829733039,0.8473766615401221,1.0131484792974248,2.345717037543266,4.2496245909364365
1570180071566973.0,1.8046221319329676,1.1080964083748381,0.9449040664489111,0.8251946432820605,0.8440411824126002,1.0122237741522881,2.3493125064997136,4.2690227825821845
1570180071566973.0,1.8089451155579466,1.1015050722443815,0.9343986392361773,0.8185672738954091,0.8398814634938732,1.0097617558181675,2.34999969724495,4.271443976164417
1570180071581036.0,1.8099712436684792,1.0944735606867018,0.9267751059433699,0.811186489400914,0.8332508339076592,1.0065981945018394,2.344724329561982,4.265540262444028
1570180071581036.0,1.8135564654772331,1.0847092002505274,0.9212367232881723,0.806220331107585,0.8260775329691258,1.0059151988505588,2.3366977165674276,4.254833284892752
1570180071587917.0,1.8141115482800805,1.0736817251925168,0.9205127541393879,0.7992227533579622,0.8215113204116914,1.0066692510452309,2.32816100670477,4.254540356243364
1570180071587917.0,1.8163620359196573,1.0650026223741536,0.9211932803993148,0.7917155872107694,0.8190580193610577,1.0062636387229031,2.3169807073575015,4.25301703979269
1570180071604042.0,1.8144539947285125,1.060914673139905,0.9234519816144307,0.7834881937888402,0.816964349667903,1.0037234350978366,2.304125915295889,4.2531587376530124
1570180071604042.0,1.8148771390046867,1.0597812389572387,0.923076197752318,0.7776550706400167,0.8149848231947285,1.000648423515769,2.286681721899225,4.249881796639444
1570180071604866.0,1.813691022289711,1.0600400884139516,0.9230569418498381,0.7718233279431185,0.8133578418350781,0.9984981037544314,2.265687245238816,4.253922479438102
1570180071604866.0,1.8110724180319546,1.0591910260051909,0.9239580892718561,0.7683552798979878,0.8108054807602468,0.9963262067957921,2.2437672854416792,4.255092058293461
1570180071625810.0,1.798977272480005,1.0580743593514845,0.9301853374818999,0.7656727035994997,0.8087133640290622,0.9930452189507071,2.2248656755007197,4.257096016920298
1570180071625810.0,1.7831148610688037,1.059081386730063,0.9384226405873934,0.7650248842049417,0.8055659089152373,0.9899420408338795,2.2050854365039303,4.252673124813226
1570180071633799.0,1.7624305597762098,1.0636499883049593,0.950363815497692,0.7609824719343805,0.8010957148849981,0.9856643219094154,2.1842959765708114,4.236606407620095
1570180071633799.0,1.746455594127242,1.0699427095508103,0.9607982974227578,0.7575373404070102,0.7979868644988299,0.9808172986304337,2.1648989321068632,4.194115661318202
1570180071640973.0,1.731763473595036,1.078619836099509,0.972221591456472,0.7538735026663899,0.7972637542711242,0.9771159793346804,2.1491253999182227,4.146236409699
1570180071640973.0,1.7241073489344754,1.0867701252706592,0.9815954357916388,0.7525849500607902,0.7963209655712016,0.9756495439810937,2.1358364569236845,4.106750958803838
1570180071647757.0,1.7173351582622385,1.094477961628996,0.9931707954513794,0.7507460812034519,0.7948379268001836,0.9760256872723073,2.1276372482174124,4.081918305515714
1570180071647757.0,1.7122797317940257,1.1018700586685843,1.0023262857527397,0.7501147534284003,0.792507826747675,0.9794478582573144,2.1224244227854627,4.057824814147379
1570180071663909.0,1.70321654071093,1.1077459689010354,1.009879370973516,0.7469039682999009,0.7911109057809445,0.9851781498567546,2.1181819279260394,4.029566115247031
1570180071663909.0,1.6966440084105068,1.1106715572149335,1.0153857574658376,0.7441193784497893,0.7920370697465622,0.9913907006401655,2.114418306351046,4.000960779209767
1570180071664716.0,1.6889463358563388,1.113522375792912,1.0246114093516165,0.7388760887049902,0.7965478557842908,0.9960063594046733,2.1119599813625314,3.986531676707622
1570180071664716.0,1.6859756664059649,1.1163828487389373,1.0340736986020873,0.7341521986938762,0.8035365375093686,0.9998138513255992,2.110335663673807,3.9782250077451953
1570180071686646.0,1.6826817246542825,1.1188994825095304,1.0466213393726662,0.7270358391328262,0.8112961513381894,1.0045294745134465,2.113297008611099,3.9798879325462364
1570180071686646.0,1.6824696700305297,1.1194867936581316,1.0570577219929491,0.7206620917993606,0.817558558528477,1.0112147351101006,2.1206188669072317,3.9857949928384437
1570180071686646.0,1.6800467358833873,1.1188614551737026,1.0679485685720478,0.7131261305596526,0.8242713422617876,1.0192418020931908,2.1304146121638055,3.9999791567409493
1570180071686646.0,1.679385576591538,1.115473333248137,1.0783662344653824,0.709579792845115,0.8304898250795475,1.0267125379470736,2.1323227197415022,4.003089944298744
1570180071700694.0,1.6764586593191382,1.1111018301570568,1.0907356674083466,0.7062630805131044,0.8360964120167778,1.0307730909139663,2.1241199163503564,3.9920075331534304
1570180071700694.0,1.6741970075414505,1.1070098710359517,1.1002592067909645,0.7059352984610382,0.8406576637081542,1.0332640400993145,2.1152655555299718,3.9722793309697186
1570180071707626.0,1.6693025997919493,1.1027199771088454,1.1068285306151384,0.705858330925577,0.8460528922094579,1.0356460720536287,2.105887169959923,3.967498437146873
1570180071707626.0,1.6659387254908942,1.0987790743106352,1.1067700795480941,0.7108987021429248,0.8522277715540889,1.036078357396832,2.0882720604663234,3.968648123773861
1570180071723855.0,1.6599374097215227,1.097582157049379,1.1036652221591314,0.7163794876897402,0.8587683420139229,1.0337797505178103,2.068465650617085,3.9797285895364265
1570180071723855.0,1.6564746249223727,1.0973660143666741,1.0965393660541232,0.7264761529639134,0.8652151925508134,1.0320604249905188,2.05160270237619,3.9939373185412723
1570180071724555.0,1.6490442840065747,1.0977772992007573,1.0882808222089315,0.7339439126023719,0.8730350260068246,1.0312039618942153,2.036016912921315,4.016086227192219
1570180071724555.0,1.6385435692796941,1.0981952055421076,1.0800432829668742,0.7413552460807328,0.8802165156977142,1.0284034265343147,2.01866317166683,4.026323739636242
1570180071746485.0,1.6241856974167626,1.0982616296373706,1.0739543649407264,0.7457267903707704,0.8866473862689188,1.0228919787853326,2.003932913809812,4.031757251695898
1570180071746485.0,1.6131088951427177,1.0975431433924911,1.06639809845451,0.7549814460655131,0.8907227981771254,1.0179792263933947,1.9932246661675057,4.033104295359568
1570180071746485.0,1.6018995528432134,1.0986559696938953,1.0579155508704177,0.7643314900086396,0.892765517696761,1.0150679354644816,1.9872508206788533,4.048740665814957
1570180071746485.0,1.5951917771179347,1.1007651574303103,1.0472276722630063,0.7785118036779624,0.8943926458640383,1.0121257655993314,1.9810471964049132,4.061347712250469
1570180071760639.0,1.590936996731627,1.1036119363853456,1.0366845699303777,0.7906373375853051,0.8967799373153618,1.007243712486731,1.9707968972345116,4.073449468222518
1570180071760639.0,1.5918421939463219,1.1076031066689165,1.0259374466155184,0.8031692804985009,0.8983262482893641,1.002864703869894,1.9608021132618867,4.084078227521337
1570180071768477.0,1.5938056836250472,1.1143071120306183,1.017301816380051,0.8108273267275596,0.9006798013917675,1.0015229195625712,1.95781110092337,4.109437282147746
1570180071768477.0,1.5998288717950047,1.122896618800291,1.0113039083523907,0.8199221583532554,0.9018628925347112,1.002002654857081,1.959101147993845,4.13292225022932
1570180071783727.0,1.6072211785247623,1.133963218581823,1.0090815354369536,0.8255557055606605,0.9020291004048033,1.0012711350616887,1.9623471064480182,4.163769360685529
1570180071783727.0,1.6179604804704428,1.1456773945292376,1.008082509856947,0.8336231203469502,0.9015965381342519,1.0008920029522763,1.9671517774808187,4.198108793843188
1570180071784832.0,1.6274824096075935,1.1577750294496325,1.0097928170487576,0.8388967486909633,0.9012687226480709,1.0034883776771835,1.9754834606292753,4.251851344146726
1570180071784832.0,1.6372459374775532,1.167628423457709,1.0114710822417845,0.8440151233731124,0.9014042756235614,1.008858659985507,1.9821619666107246,4.306400604875692
1570180071806653.0,1.6436987311746474,1.1742939946924997,1.0139203174924527,0.8431186797667694,0.9024091719455244,1.014672227103108,1.9832933029046134,4.366144608902182
1570180071806653.0,1.6480744182954032,1.1783741372921892,1.0155552622838826,0.8413638518365734,0.9038643617894341,1.0192990254600378,1.9798939699096567,4.417335756731105
1570180071807323.0,1.6494474485055404,1.1794044418113117,1.0192805934740448,0.8378697791285011,0.9079980966129062,1.0228174811250372,1.975306475552715,4.475535148103545
1570180071807323.0,1.6525881629059347,1.1752037902186434,1.0250982061153446,0.8390340986900157,0.9113085234201657,1.0263284129154573,1.9721332983398576,4.530926630322476
1570180071820317.0,1.6543136760530215,1.168319126000616,1.0343619997163052,0.8399722321443951,0.9114010216972557,1.02767347070125,1.974847795258882,4.584227977354017
1570180071820317.0,1.6552657038181642,1.1612130415793833,1.0420466079817303,0.8414175733876825,0.910792208798875,1.027365388779552,1.9804527465194464,4.6172318842580164
1570180071828267.0,1.6515403245626061,1.1549903224159477,1.0484712609564935,0.8382375381297759,0.9136175101114974,1.027133466666512,1.9842838291333016,4.646770301053385
1570180071828267.0,1.6464971527314882,1.1482824902259983,1.053019866367369,0.8356274159172293,0.9182411501629393,1.026060372829378,1.9750706896194359,4.662821696203774
1570180071844329.0,1.6374840946912144,1.1393539290651948,1.057383982849603,0.831867227078388,0.9232327064060037,1.0241305404242214,1.9510377199548472,4.672764318570147
1570180071844329.0,1.625804242502828,1.12803804732823,1.0589660376205876,0.8309574264299948,0.9272611320725719,1.0224632587312374,1.9265325323237528,4.677459534709251
1570180071844329.0,1.611036594237621,1.1154161665386526,1.0595364970168815,0.8270257480603286,0.9313615807535863,1.0218779062757541,1.911307212906441,4.689067577549873
1570180071844329.0,1.5991716718874132,1.1012884407652668,1.0565946870589953,0.8209813057635557,0.9360196631715962,1.023305555376889,1.9018781051037936,4.683549492227819
1570180071866463.0,1.5877814936113746,1.0867076717590252,1.0520272534334396,0.8103244505183751,0.9426532583774805,1.0245088464319023,1.8949743299042585,4.659910035786682
1570180071866463.0,1.5806985773621764,1.0734864933408708,1.0474483130808472,0.8016387703809291,0.9503422182972098,1.0237866091948906,1.8860602098401986,4.633386728983896
1570180071867228.0,1.574938848243324,1.0626704434195462,1.0469647855990845,0.7942903155272336,0.9595464614547929,1.0211499947986207,1.8761937850091843,4.61756878446315
1570180071867228.0,1.5690637236011817,1.054077067062283,1.0485942412235552,0.7920186255332996,0.9685061078321346,1.0167275780794076,1.867603674970601,4.598175270720815
1570180071880284.0,1.5588945040635465,1.047825859961388,1.0505988928718746,0.789979150643068,0.9781459230174906,1.010447053020543,1.8600839125672939,4.574571985044221
1570180071880284.0,1.5493201477356768,1.0436764641400953,1.048860205886789,0.7907803202236814,0.9874327320458821,1.0023816657571532,1.8512397624975798,4.534592984775865
1570180071896164.0,1.5412250541811472,1.0417583741540808,1.045186585671544,0.7908160598962781,0.9953044249485679,0.9934308634389609,1.8432508074502938,4.4917302477908265
1570180071896164.0,1.5372688563794021,1.0397436442977919,1.0402854620496096,0.7938745741170811,1.0018649828220794,0.984549908216076,1.8358450584365134,4.453668413317128
1570180071904064.0,1.5343766427068206,1.0360224389385766,1.0363703961877806,0.7970356181499723,1.0097154631463463,0.9756164387505778,1.8283908492462801,4.425049838537377
1570180071904064.0,1.536477127976602,1.0324075604073242,1.0330376927595708,0.8036185635708031,1.017705669092285,0.9656309759716716,1.8186856685233062,4.40210709843985
1570180071904064.0,1.5433242342233702,1.0310038569811397,1.0312916961623857,0.8076163993474783,1.0257386891161069,0.9535608067991913,1.809464718918673,4.3905932220938375
1570180071904064.0,1.5521167743396254,1.0283623843335783,1.0268819787188632,0.8125180129284285,1.0343441499723163,0.9403858151901202,1.8015582460209913,4.375092721053973
1570180071926054.0,1.5558985397895657,1.02207184571907,1.0215467682394488,0.8157122314323506,1.0446976895161297,0.9270017124708038,1.795780711523065,4.347299019385922
1570180071926054.0,1.5547162510640378,1.0150339367601888,1.0169708717483685,0.8227509599101573,1.054652436509993,0.9133777427366364,1.7931082425174094,4.306956418960925
1570180071927363.0,1.5483716406160315,1.0114286449531065,1.0152230914623288,0.8278308979609427,1.062102104569344,0.8994637302721965,1.7931874415052114,4.270991705173812
1570180071927363.0,1.5441872425676828,1.010611625292557,1.0147639781093225,0.8321943281593775,1.0664784978426287,0.8862948214510697,1.7936627304576156,4.242120114424092
1570180071941052.0,1.544302268142724,1.010909030187284,1.0158386578801646,0.8316180322009679,1.0706021956681187,0.8758348200795159,1.7974999563433718,4.229075114316315
1570180071941052.0,1.5475108463974279,1.0119462575123452,1.0161112168594861,0.8302974927019688,1.0746191931119886,0.8690933386591462,1.8022933416990354,4.226554353063928
1570180071948018.0,1.5504165581569413,1.0139682565390522,1.017081706390053,0.8248362898602737,1.0787680762192373,0.8659140766221322,1.8053418975362994,4.237975278882723
1570180071948018.0,1.5541481276525044,1.0135660004761575,1.0173131518380794,0.8203265569222908,1.080520116098672,0.8652582682777394,1.806953453283658,4.250607150030644
1570180071963908.0,1.5575308581803027,1.0115029241755051,1.0182833203657984,0.8150291872801904,1.080187220022068,0.8660058430072247,1.8125353939107007,4.271468483644547
1570180071963908.0,1.5625555345364757,1.009201383135588,1.0185264848837425,0.8133713263613465,1.0804045451058308,0.86823710523478,1.8215722262407676,4.300213415612653
1570180071964902.0,1.570314938882709,1.0049841239518615,1.019536688085702,0.8123310157239898,1.0820162368571657,0.8718102042863947,1.8338153998811484,4.347558898442433
1570180071964902.0,1.582892121403278,0.996677623189514,1.0198325907136871,0.8150883697121172,1.083487345806263,0.8776930471374635,1.8490009278475965,4.4029145674785735
1570180071985845.0,1.5976643203118117,0.9860037022272609,1.0209298252771641,0.8157849651899367,1.0852294525543837,0.8834127336717439,1.8664118312796887,4.4688864667033465
1570180071985845.0,1.6143126072506429,0.975631291059818,1.0213824553005628,0.8189013718528425,1.0856987454578362,0.8854302964998658,1.885256385253294,4.530816823329914
1570180071986844.0,1.6332771289186752,0.9689026191766827,1.0237147927736183,0.8213183884682357,1.0836662146304588,0.8850352774458904,1.9093639677184262,4.592756778797994
1570180071986844.0,1.652418473820766,0.9660559142163352,1.0261503051627088,0.8270916104215484,1.0802885365821997,0.8842988165575429,1.93693497219021,4.639222644558807
1570180072000805.0,1.6680682497287334,0.9673368178533264,1.0293545342181485,0.8330629158201666,1.0786699400165907,0.8829634707487947,1.9676561815651483,4.67809786408749
1570180072000805.0,1.683798390476663,0.9698331288863994,1.032787359923226,0.8437827551250409,1.0780584273602438,0.8801880541293087,2.000807193614032,4.712444432898192
1570180072007787.0,1.701187578577718,0.9724532674448758,1.0377902613307817,0.8533259378518457,1.0787458391656881,0.8759959244988696,2.0357155761550163,4.760778786929727
1570180072007787.0,1.7185278981496792,0.9765585775086048,1.0417060787749803,0.8639512127087459,1.0800800337109957,0.8715077514433432,2.0675797016754123,4.815006251673048
1570180072024019.0,1.7284563384942808,0.9812948381119672,1.044178671421366,0.8698701660230834,1.0793727411669707,0.8665942314363516,2.089346638913457,4.846378818560336
1570180072024019.0,1.725612389087641,0.9823847953261043,1.0432535671465486,0.8753464830460913,1.0748432711125193,0.8624378974118211,2.0973299192917287,4.823291584591508
1570180072024741.0,1.714582256307327,0.9833012937389949,1.0435897818813757,0.8787984745300625,1.0680115704937199,0.8597629422030441,2.1024020374905583,4.789251650988033
1570180072024741.0,1.7039937414853656,0.9859108346144095,1.04433980138338,0.885848966714263,1.0594505689429978,0.8585450274759979,2.109289896736191,4.765734600521277
1570180072045684.0,1.6868747207978105,0.9896777505656806,1.0469238723806904,0.8919783776077171,1.0463509114886507,0.8575202831185174,2.1169585173667826,4.745670728983483
1570180072045684.0,1.6616009609755256,0.9930033519745106,1.0495966397738614,0.9010519856640005,1.027000188900324,0.8559446510193998,2.1235962347369868,4.71900902533574
1570180072046838.0,1.6324210720019785,0.9979050377610286,1.0518758336707577,0.9079127404255125,1.0066192435981298,0.853797856525879,2.130433191201102,4.695146144252717
1570180072046838.0,1.6052847279950972,1.0043078639041023,1.0525931329759117,0.9169835678954809,0.9895770378087796,0.8523294352275613,2.1373009156079563,4.66730722248672
1570180072060645.0,1.5795582315427774,1.0129157450732973,1.0540707883893072,0.9248968911165522,0.9756390082788862,0.8521069674161643,2.14366895694572,4.639297006467775
1570180072060645.0,1.558254837356544,1.022586780575022,1.0537496520974428,0.9341813066890434,0.9635561772682102,0.85115887682064,2.1491451169573517,4.615965567085101
1570180072067627.0,1.539899251888867,1.0330052020385743,1.0512126896655385,0.939232132384798,0.9533366591124796,0.848821676740612,2.158557690209475,4.607797858152713
1570180072067627.0,1.5263358319177653,1.0413559954840752,1.0455285260884788,0.9435312699989864,0.9427370622535406,0.8484201978189494,2.1702793470076065,4.611605063047745
1570180072083595.0,1.5152444150053066,1.0482140289454998,1.04010585413678,0.9447035908745933,0.9310842096639996,0.8502679414011661,2.1800148886718462,4.630680038489641
1570180072083595.0,1.50607405920784,1.0549287056252121,1.0354726811066928,0.9459656914237377,0.9201793887890916,0.8534396392194846,2.184089168657298,4.64540185420134
1570180072084581.0,1.4962248098503301,1.0629993999070135,1.0326088836821896,0.9422447239259532,0.9090203679519534,0.8576041694554764,2.1869515148618284,4.641268580762554
1570180072084581.0,1.488694605073203,1.070523033293356,1.0292877454848228,0.9377424209428477,0.8966624720063585,0.8617607798227472,2.1910424375309336,4.623429242849942
1570180072106526.0,1.4855321310243839,1.079474951753971,1.0278324384040978,0.9324677425075549,0.8863561539669843,0.863825101723173,2.1962447100768685,4.615780079804827
1570180072106526.0,1.4890129891616628,1.0883865067604186,1.026703654641104,0.9317660119076231,0.8796375073039916,0.8636151806836323,2.2019589164446893,4.617802898364792
1570180072106526.0,1.4975098486828748,1.0951650056564401,1.0262778863074098,0.9305462133642503,0.8753952442477395,0.8633202674407559,2.209519977941326,4.634486436241372
1570180072106526.0,1.5087350622130933,1.0976992756031168,1.0253325047557382,0.9293033493106044,0.8714030341377387,0.8647938847967458,2.2174616889820027,4.6635857889484615
1570180072120488.0,1.520959935334033,1.0983711479638618,1.0263384116656347,0.9266420504757485,0.8680327533031637,0.8665912330341979,2.2250924988257896,4.707615615932263
1570180072120488.0,1.535712000190664,1.0974781925206765,1.0296031962904808,0.9271848351493043,0.8659139429835392,0.8692449221161921,2.2301403781887053,4.754429161437819
1570180072127468.0,1.5506946113427627,1.0979728005601752,1.0348780496300913,0.9275479353281456,0.8641234913829827,0.873394150697341,2.2338399467605927,4.801304804747462
1570180072127468.0,1.560463689585357,1.10050243089782,1.0358465761952638,0.9303143289738949,0.8615085764313413,0.87917358838271,2.2335544902917603,4.819991347792539
1570180072143430.0,1.5623171787845624,1.1045111654996747,1.0329635247438766,0.9301304465507543,0.8584544385399903,0.8862607857654385,2.231639943381603,4.797417639648947
1570180072143430.0,1.5624802592662066,1.1083617924063125,1.0293410493101318,0.9264227087410651,0.8557020584306658,0.89499416576292,2.2330514775047776,4.756651889552395
1570180072144642.0,1.5635813294139929,1.11399182658395,1.0299141958788063,0.9166889277030389,0.8532423403476306,0.9059783136621197,2.2364313464348893,4.718285600921766
1570180072144642.0,1.5642893757767187,1.121193048022512,1.0326095301257958,0.9071109004812903,0.8488720878805739,0.9190152182798297,2.236469842544742,4.670326901499467
1570180072166364.0,1.5630282937103026,1.1294249744465563,1.0366709572760247,0.8977095668359727,0.843193747539313,0.9327880110591605,2.234921383408096,4.6139789370725435
1570180072166364.0,1.560373291349162,1.1358943930436,1.0388314205837965,0.8916103849294525,0.8369426813252115,0.9475313725088997,2.232863822153946,4.5589121108270305
1570180072167361.0,1.5537274254226094,1.1398010412743766,1.0410301862213853,0.8859278399305316,0.8304463330338195,0.9619001730751493,2.233905386777258,4.504082497524142
1570180072167361.0,1.543426024449007,1.1409497390592842,1.0438131758054008,0.883166384744582,0.8245887142508895,0.9765389231882369,2.2405579372698137,4.443115496056971
1570180072180326.0,1.532670139418227,1.1420753333184717,1.0493996316688092,0.8804943321212496,0.8214191640549426,0.991633082441676,2.2536270922968353,4.390466837731282
1570180072180326.0,1.5232309976167926,1.1420948627338319,1.0559867636238518,0.8803556352983565,0.8191382154925256,1.0040676962863533,2.2701510936852496,4.348768088743758
1570180072188432.0,1.512500137149125,1.139772270530294,1.0638061408506652,0.8778744579950711,0.8164494405636762,1.0107958608257197,2.290087570576565,4.31173411539372
1570180072188432.0,1.5018657941413647,1.1338588048168836,1.0684635410553767,0.8757392454111813,0.8153016410239919,1.0144754183542792,2.313129947008322,4.276591308168823
1570180072211240.0,1.494831517678764,1.1262273250179007,1.0712583628067394,0.8742911048611869,0.816560612662935,1.018826172734672,2.338052250885658,4.252880230145574
1570180072211240.0,1.4920649331062488,1.1172331119495884,1.073875853858043,0.8766852720444875,0.8188201519218997,1.02527250928048,2.3628395221213148,4.241457169419877
1570180072212241.0,1.4912068400954774,1.1085233553104739,1.0783409532063943,0.8789369069573164,0.8234354032369097,1.032010343568016,2.3896899631357758,4.245149740936955
1570180072212241.0,1.4925347111691334,1.1013030836689226,1.0821560346371184,0.8850092448083271,0.8293189232623492,1.037472316799203,2.418022730297606,4.2609195546826
1570180072226290.0,1.4958221357194514,1.0957976879933318,1.0868824168940705,0.8911661414946078,0.8338409932765687,1.041872677449374,2.44781669019013,4.291867927010362
1570180072226290.0,1.5012250567401673,1.0904010082849,1.0920494113281976,0.8984581612455872,0.8364599743663172,1.0462004987291265,2.4772925448560414,4.328580787414535
1570180072227204.0,1.5076497034315057,1.0857612475450482,1.0986541993886032,0.903293521670792,0.8397278079031119,1.0482287516527213,2.5028717473884687,4.362926796228671
1570180072227204.0,1.5121711384778296,1.0812766704904724,1.1024259017597184,0.9101814527289466,0.8429276622930549,1.0488182434300564,2.5127389746919304,4.375959664355506
1570180072249182.0,1.5137739423929817,1.0776573982838724,1.105252164378834,0.9173874253291125,0.8467309392066484,1.0495087161878078,2.5070543467644746,4.376942923230212
1570180072249182.0,1.5164301937138303,1.0754222191344054,1.1075379269754064,0.9251149198827884,0.8514179507187563,1.0493192398037159,2.4990034300213555,4.378492269818256
1570180072249182.0,1.5211490867251602,1.0770005474579136,1.1063762957282781,0.9272530580872029,0.8562770413187295,1.0482309908912506,2.4947184462666883,4.389607820530248
1570180072249182.0,1.523930128169525,1.0812483167198048,1.0995890960711503,0.9289208134945243,0.861191766913815,1.0462218359191982,2.4912432663820963,4.39983842605724
1570180072271290.0,1.5218876402169628,1.0877485232593154,1.0933777741083663,0.9289304181885105,0.8673215487975542,1.0412792303755454,2.4865787871959175,4.405062187133585
1570180072271290.0,1.5169675132499876,1.095659242570663,1.0881422624701804,0.9300059790333266,0.8729292430991827,1.0340670743626472,2.4781366782660617,4.3982485337716355
1570180072272359.0,1.5141867334183854,1.1044462508744952,1.083660569282965,0.9292921759527992,0.8777839867983883,1.026455996898757,2.4690496036596885,4.394893150258806
1570180072272359.0,1.514417266475252,1.1115208659212514,1.0779059890375242,0.929638518621642,0.8816560713888588,1.0193915046712843,2.461489062453331,4.3982897920221
1570180072286047.0,1.515794115099122,1.1170619512719633,1.0699086748064077,0.9283536337413961,0.8852331356232989,1.012677439089202,2.4574797391033494,4.4102812772309905
1570180072286047.0,1.5171720452252209,1.1216571773597506,1.0591282296728792,0.9292900108786406,0.8893026247861733,1.0075710014253703,2.4574480967577617,4.423204974278052
1570180072287045.0,1.5197953849350727,1.1268149688048532,1.0493862533960834,0.9301149425781627,0.8958975865736947,1.00571464673874,2.461584632120658,4.446188155712352
1570180072287045.0,1.5243828039061345,1.130807224027027,1.0405232871561634,0.9313122877300166,0.9035708939472775,1.007768813639337,2.4668350317389858,4.476877716348789
1570180072309133.0,1.5312342988220138,1.1346516625037646,1.032336888219847,0.9298797296422152,0.9095211474687986,1.0120244568085337,2.469452770170872,4.512133062818057
1570180072309133.0,1.5409732991331548,1.1395668176377032,1.0249492211253792,0.930496948986943,0.9111892135369751,1.0155028551491807,2.4673439724881705,4.536680711286462
1570180072309133.0,1.5538352710050138,1.1457280476240148,1.0180192849124914,0.9298998225416413,0.9102053539045296,1.0155560152027077,2.4619182700226454,4.556284402846022
1570180072309133.0,1.5644321849626173,1.1504385217305875,1.0099757172507258,0.9287568574785496,0.9093865120627741,1.0131082561847635,2.4463246108298615,4.554944647214126
1570180072331116.0,1.5714890595460722,1.1525859966107088,1.004733906960982,0.9240574575194389,0.9104755104418337,1.011254001566821,2.41987604958269,4.526812127374491
1570180072331116.0,1.5786411294113782,1.1510987619662045,1.0019759005553663,0.9196057975618189,0.9125031101724727,1.0127353685742242,2.3936629796122713,4.492634664281834
1570180072331978.0,1.5861243818500175,1.148793767495581,1.001448473537782,0.9128046121957104,0.9144307630558741,1.0167332969817193,2.374002993351203,4.476650168436231
1570180072331978.0,1.5887230453635008,1.1466908845531762,1.000919444390611,0.9066895103423929,0.9131790511463435,1.0213272160120592,2.3560592321150358,4.459254972114154
1570180072345995.0,1.5830061315157837,1.142040622950891,0.9974716646922326,0.9018257579697794,0.9102597607016906,1.0264259510538156,2.3390228404756477,4.4327447002549265
1570180072345995.0,1.572783676159557,1.1319793299835712,0.9899036869658318,0.9019584233024525,0.9080636910608222,1.0308306352613719,2.322855479155744,4.406320035453651
1570180072346889.0,1.564013931484561,1.1193419534012299,0.9834121971666067,0.9037007255092919,0.9063557741079687,1.030785539944956,2.3053957993316634,4.395364688889315
1570180072346889.0,1.5554426434051924,1.1075330623094368,0.9786979668301907,0.9069686246934378,0.9037018314825139,1.027267783094295,2.2891853592924636,4.395197202174728
1570180072368995.0,1.5462210372690157,1.0983651840664048,0.9775969345198715,0.905563100514278,0.8995668209648173,1.0222031257809958,2.280019072021556,4.409921367893422
1570180072368995.0,1.5381571113291745,1.0881539942548015,0.9785733623422713,0.9024261476312969,0.8930555404212417,1.0167885837064001,2.277018518894866,4.43078201621335
1570180072369825.0,1.5323598963127956,1.0746506223688201,0.980570853222855,0.8982857572408928,0.8860460444337082,1.0127788465086875,2.276884927257817,4.461836715534447
1570180072369825.0,1.5276090993412348,1.060755439894878,0.9806190148795844,0.8961337857544277,0.8800844811549964,1.011009413039217,2.273666361922893,4.492811415101044
1570180072390882.0,1.5241582918970884,1.049417188552588,0.980385865287852,0.8926157453055066,0.8760619495645124,1.011066691880361,2.2700163275145253,4.523197978568381
1570180072390882.0,1.5237027878228309,1.0390310444214474,0.9807069677759709,0.8925881305252611,0.8724241661918072,1.011985082905544,2.2703615363068153,4.549428264669589
1570180072391759.0,1.5264407393699142,1.0288761037645269,0.9835924123006201,0.8936047115058734,0.8700468809714079,1.0137422177726245,2.275060780867554,4.580516243558695
1570180072391759.0,1.5299924785915775,1.0176245653416685,0.987538309236515,0.8973607573943048,0.8704559921842003,1.0171381887609234,2.2836914609964727,4.613775055060035
1570180072406765.0,1.5337885356580565,1.0056744078651498,0.9936726322108965,0.9019801351107196,0.8744787701761064,1.0187437656487104,2.2985328504118985,4.6593796954938655
1570180072406765.0,1.538443577080558,0.9926141242802815,0.9993618973791876,0.9095326113823909,0.8812156088899827,1.0164273287531822,2.319556862007485,4.710176915868772
1570180072406765.0,1.5442755664987204,0.9779058135607731,1.0041094951987661,0.9150536662333475,0.8906067190141964,1.0125404802506675,2.3453927704317326,4.768462686938763
1570180072406765.0,1.5489143221342243,0.9633584940050529,1.0059237586836096,0.9207217143702006,0.9005410007364651,1.009074438287797,2.372568436205528,4.826293955051408
1570180072428850.0,1.552795233015927,0.9510660782238123,1.0066063158931688,0.9228735288675799,0.9086009456797954,1.0067736593460324,2.3991182688614052,4.8865493468456975
1570180072428850.0,1.5525739036231805,0.9394466085407726,1.0070323725440047,0.9240182322853971,0.9144500068691856,1.0064700837364486,2.414990900085181,4.910889198363555
1570180072429661.0,1.5438636472074876,0.9280171254791217,1.0101200965000448,0.9229306816670361,0.9203453810267813,1.0067163191627608,2.419359686773518,4.880983177858333
1570180072429661.0,1.528513576577537,0.9174826327563395,1.0131204498753896,0.9243144980655212,0.9233636385453278,1.005711768320927,2.4250337155139112,4.831145364771445
1570180072451662.0,1.5105614655741706,0.9092381117374506,1.0165496040453983,0.9257185957346907,0.9231126643528531,1.002671184731646,2.437817781595456,4.787735838901846
1570180072451662.0,1.492683144553453,0.9036649755256078,1.0190957272211276,0.9285874375863056,0.9214519994855684,0.9989481602294517,2.453827847590547,4.732815096444856
1570180072451662.0,1.4769039124727934,0.9009237557782721,1.0221556473813307,0.9293533603171614,0.9185079257012391,0.9953831565368386,2.4729665175867668,4.671975085539973
1570180072451662.0,1.4619587822371074,0.8992898735662517,1.024336861698113,0.9310165595373383,0.9140576036522353,0.9930776762302973,2.4954741095185824,4.617299884888233
1570180072466692.0,1.4460153852200077,0.898237643845601,1.026988468150844,0.9308410721887859,0.9083149338174279,0.9926733158696992,2.5216584042374475,4.574204998513442
1570180072466692.0,1.4278837076072055,0.8964578256202428,1.0285754712286097,0.9317202161371047,0.9001358472110542,0.9940353478896955,2.5472289107051216,4.529139389291556
1570180072467559.0,1.4098931407786397,0.896578071840423,1.0283413696623382,0.9310320448636696,0.8902185081602867,0.9957884376959514,2.572560514300773,4.48741818350195
1570180072467559.0,1.3947045582151147,0.8962118950375351,1.0235868119517482,0.9327168148633294,0.8786197928563193,0.9961421561035618,2.6025871094745554,4.4532892802713135
1570180072488913.0,1.3826757093325353,0.8936649315830815,1.0170338998459385,0.934415496635207,0.8682169389545288,0.9942636597840102,2.640569448861029,4.431819512038655
1570180072488913.0,1.3734035021777284,0.8906717342808783,1.0085704200676697,0.9376248061948479,0.861236980485014,0.9905525450061482,2.6833163489116503,4.417647474924406
1570180072489502.0,1.3694806015536345,0.8875657276950282,1.0016515546751774,0.9387742270131485,0.858343792855989,0.9860283940885007,2.7289002903387645,4.414022049860185
1570180072489502.0,1.3699411976502194,0.8832486251847325,0.9976901615683389,0.9409649815494355,0.8586793454796194,0.9817392622282957,2.775625262207126,4.418345017899604
1570180072511494.0,1.374527500181766,0.8816902396519106,0.9983101005143692,0.941428626063517,0.8621592273000602,0.9775445435483445,2.8226493304067475,4.435897327188882
1570180072511494.0,1.3820901223437354,0.8821659067917689,1.0005799688188253,0.9432175295511086,0.8669457361819117,0.9747078086995578,2.8668781301083635,4.46114474638178
1570180072511494.0,1.3924815020232932,0.8834229428433981,1.0027208490972592,0.94370424643578,0.8725896758292163,0.9747806368591991,2.909824389246072,4.49870628083046
1570180072511494.0,1.4034363455150503,0.8850579369443335,1.002085202330021,0.9472194794265546,0.8786792087246103,0.97639069133042,2.952909409595927,4.5394143640209945
1570180072525607.0,1.4151377293479688,0.8888251629251852,1.0025301876770667,0.9525081242278434,0.8854230994564902,0.9776212810592816,2.997895338060239,4.588151653681928
1570180072525607.0,1.4252877429141957,0.8935831237589593,1.0042751244659063,0.9628534495334315,0.8910737766558391,0.9796989681317608,3.041985237140059,4.639548298967893
1570180072533603.0,1.4333647129436833,0.9000946162414379,1.0083889339311443,0.9744744802960947,0.8945682864445064,0.9812495898163789,3.069099850431722,4.683947884129574
1570180072533603.0,1.4378141299476725,0.9063498635477454,1.0130768102184913,0.9889085723277987,0.8962628067199161,0.9818983313274335,3.0745289028955627,4.699794955401827
1570180072548478.0,1.4453450283672704,0.9140312359709251,1.017410305563804,1.0012777196110352,0.8976316509555986,0.9835475358821967,3.078917572780648,4.707754148573272
1570180072548478.0,1.4554128427470312,0.9238174735822038,1.017411543867531,1.015393796975418,0.8981907646181341,0.986082748603626,3.082778519314481,4.7199026676488245
1570180072550361.0,1.4651816117224135,0.9359615396069376,1.014252240771612,1.0287435297368344,0.8986149432658552,0.9894826482700734,3.078137762074067,4.7429632829425445
1570180072550361.0,1.4707782810245251,0.9483396641129123,1.0081802755013405,1.043036787426927,0.899585718533284,0.9946501757021932,3.072246233394087,4.769393030734269
1570180072571375.0,1.475728833020825,0.9621061964193242,1.0036934231642618,1.0537024875289551,0.9019836067413538,1.0002453998262582,3.071070443357417,4.802763057828684
1570180072571375.0,1.4833604411982706,0.9758375246263341,1.0008773477214432,1.0648006898761695,0.9041403346437731,1.0064774180598333,3.071191141406656,4.837423659291166
1570180072572281.0,1.4951435222211185,0.9895225081871406,1.0007735519580732,1.075146754333225,0.906745440294708,1.0119094547817888,3.0725651937671263,4.879639406153709
1570180072572281.0,1.505272477992692,1.0016336588738526,1.0016738135974443,1.0870857302867132,0.9090421131796468,1.0152440387728998,3.076186678107873,4.919594996848869
1570180072585299.0,1.5153100572893061,1.0144968438169286,1.0037913955296098,1.096689034310215,0.9108216006354162,1.0185076992384046,3.0805604102549666,4.965857947667756
1570180072585299.0,1.5267722414767075,1.0264338315402075,1.0048297615360355,1.106071140404171,0.9129050612264855,1.0204261977280285,3.085090101902143,5.014469532983505
1570180072594293.0,1.543385010973788,1.0376836533451108,1.0063118627945775,1.1128226279470317,0.9161476660479274,1.0195940815522584,3.0926847451697284,5.06604274432825
1570180072594293.0,1.5580544251201376,1.0463347193868318,1.0058400881110985,1.1192757047260795,0.9185668342113458,1.0194496702452982,3.093721523146701,5.1041632254016704
1570180072609232.0,1.5658632586923191,1.0533946841900768,1.0054558161116371,1.120273464628899,0.9190210305334159,1.0203978367895323,3.083023570733466,5.126708905178001
1570180072609232.0,1.568274384565881,1.0593408419371422,1.0056663842522087,1.1197559402703499,0.9176824277367204,1.0226261774822156,3.068217989846226,5.128566568238858
1570180072609232.0,1.574249186184256,1.066253116010602,1.0085026399795485,1.1180893460216066,0.914914665656827,1.026784382077449,3.0552424343655487,5.116652236364759
1570180072609232.0,1.5848375792411225,1.074096995926207,1.010982279776028,1.1171990702580494,0.9099684276386788,1.0327884813253765,3.047239481704162,5.102212429032234
1570180072631123.0,1.6005712655443933,1.0854318558463103,1.0130637379046918,1.1151010951388418,0.9058266997038544,1.0402495616673348,3.0416285328033466,5.099932480809872
1570180072631123.0,1.6149344229237599,1.098718633673258,1.014788024755461,1.115845020235634,0.9032142306441856,1.0480473232535366,3.0359203895641356,5.094803439979202
1570180072632118.0,1.6256788915222715,1.1119192586312274,1.0194083970676113,1.116642976089415,0.9011925158388636,1.0541410257841555,3.0324993742730864,5.08451576493349
1570180072632118.0,1.6324420111603755,1.1206753016578117,1.0249041516547308,1.1197714167172683,0.8996791929357114,1.0580244197516873,3.0300869065826035,5.072546190767335
1570180072645082.0,1.6413910793035213,1.1265233779248776,1.032649916551217,1.1234846068164726,0.8998094290701235,1.0587461307095858,3.032653001116761,5.062961747055294
1570180072645082.0,1.6530204333643614,1.1286819858887287,1.0397093517126927,1.1274079038413756,0.9006919996864069,1.056083615884611,3.0422657918563,5.049708455286272
1570180072654249.0,1.668326004013642,1.1281943886339112,1.0469880168431644,1.126979899604091,0.901441963776239,1.0531521254206795,3.0573373082739854,5.047867755395763
1570180072654249.0,1.6834454121296074,1.1267324588589567,1.0527403990953992,1.124043642330173,0.9002761181768455,1.0504708686932445,3.070436496927856,5.058813041164298
1570180072669066.0,1.701283054283186,1.1266747788965419,1.0566956382831172,1.1180838962350617,0.899732670922972,1.0461483718817397,3.077755361286667,5.083753046192756
1570180072669066.0,1.7181611171134692,1.1267266430621508,1.0572826166900944,1.1119556823334449,0.9018825955754757,1.0425817754316855,3.086947221142083,5.10653774819589
1570180072669066.0,1.7325023721569726,1.1288608801350783,1.0593546264257936,1.10491934756838,0.9070967586720788,1.0402868800038445,3.1029369543554344,5.115640933325637
1570180072669066.0,1.7438647369198792,1.1319821468386793,1.0614144424968577,1.1002564533995374,0.9138016593865257,1.039479671334908,3.120515752843753,5.111089576979761
1570180072691186.0,1.7496315436764196,1.1336823090852992,1.0629907761192958,1.093720046641376,0.9185183113640878,1.0418105283757388,3.12757341216717,5.089013971744338
1570180072691186.0,1.745316119350124,1.1328151277591372,1.0620812271150868,1.0858824644737421,0.917443663498585,1.0467967684273027,3.116867597413978,5.038106859173358
1570180072691965.0,1.7407190885981016,1.1346488751599033,1.0617695181784401,1.0793126309119114,0.9140972766523325,1.0521419296168981,3.101222444484228,4.987202917400341
1570180072691965.0,1.73900958488201,1.1373940519561245,1.0623423380803887,1.0766268369491911,0.9105732910904171,1.0570458447143969,3.086020477842376,4.942772835631694
1570180072705923.0,1.7406690722771785,1.139237033588923,1.0657973584360672,1.0737292042404778,0.9070491768642013,1.059339051756222,3.0688341973769573,4.89748242516072
1570180072705923.0,1.7407406574070103,1.1400632682757703,1.069236582708666,1.070275609231388,0.9038410881292565,1.0568948794991593,3.0569760268563515,4.855193961243625
1570180072713944.0,1.7383910556435198,1.1415919807482429,1.0744353999891572,1.0630003500904692,0.8997748036379639,1.0524070536728019,3.053987369067959,4.826153657387668
1570180072713944.0,1.7335814448344915,1.1418194991459967,1.0793040334927633,1.0530238918765988,0.8933317378220857,1.0497361336690767,3.0524943313229826,4.807606643878648
1570180072728912.0,1.7278745293413669,1.1425348733343632,1.0837023627835318,1.0403650076160096,0.8868894596579637,1.0491911798163087,3.043764941930756,4.801512165898869
1570180072728912.0,1.72136539408847,1.1445331150395508,1.086602843103761,1.029671148967055,0.8821040191399987,1.0495474966936138,3.028816529259321,4.806340709124162
1570180072736160.0,1.7194455534508226,1.148264999356061,1.0907554105115231,1.0219367951778813,0.8809477397754211,1.0488029268722259,3.018527266890146,4.827788509311865
1570180072736160.0,1.7219052812792248,1.1529421915337916,1.0953554925963866,1.0180474583938857,0.883028384802868,1.0474424786549055,3.015773747046475,4.8578741510762615
1570180072750807.0,1.729791208279006,1.1602000247942903,1.1016424109301781,1.015325656304693,0.8879869454615255,1.0463845079720313,3.0199984190547986,4.895142095598121
1570180072750807.0,1.741105581410298,1.1686082060333298,1.1071813459306676,1.0152970961979526,0.8934748266187915,1.0467208944706692,3.031329132874014,4.930207532746662
1570180072751800.0,1.7560404954824547,1.1787797298799823,1.1147612648629204,1.0161226975123023,0.8973010098758575,1.0490022298606634,3.0500367035770233,4.958833177817662
1570180072751800.0,1.7717198051751888,1.1883912157996979,1.122382573268011,1.018199413611178,0.8996363213691274,1.0520189486819482,3.0735884304056245,4.975808290312103
1570180072765962.0,1.7865792807225227,1.1977711166036125,1.1320033364900537,1.0182006422754228,0.9033549519870171,1.0537374179084138,3.096930718587173,4.990868663996963
1570180072765962.0,1.7969210233617952,1.205943199868624,1.1434339102669384,1.019383856752824,0.9086023705542428,1.0537134988875636,3.1060931457055165,5.001132084967832
1570180072773907.0,1.8059937725749087,1.212712927353373,1.1563205246236443,1.0217297595895187,0.9166639544306177,1.0531697183234012,3.0947436407777666,5.015930396749435
1570180072773907.0,1.8142108876829866,1.2158027312472852,1.166184692070348,1.0265444343197672,0.9270463146365812,1.0541867044360833,3.079960076846711,5.032146738842445
1570180072788734.0,1.8225602483174694,1.217190115539997,1.1731679967906385,1.030811346629901,0.9385519367554361,1.0572467271223993,3.0740742829306655,5.050122300709199
1570180072788734.0,1.8267369198873395,1.217128371186358,1.1746273823862061,1.0346050926470727,0.9501040839776833,1.0612879781698046,3.071573681678741,5.068884911634496
1570180072789695.0,1.8278335873954248,1.2178798919390246,1.1739982303673038,1.037751301353727,0.9628910587061598,1.0663425173799197,3.0693694142130554,5.089966070882925
1570180072789695.0,1.8257130949057616,1.2207280423789049,1.1716038615654683,1.0434481747656028,0.974341683459125,1.0731424861506729,3.071182593117953,5.106897704173658
1570180072811688.0,1.8217837218170307,1.2237904175327619,1.168691858028396,1.0475347518022173,0.9827625753602126,1.0783230471164982,3.074832129426059,5.12411689894938
1570180072811688.0,1.816120077940089,1.2221865916585184,1.1638986535622482,1.0504403818056895,0.9881338694373865,1.0808891769880102,3.073758815525863,5.138495320633825
1570180072811688.0,1.813729478700152,1.2194911502586616,1.1586256136140505,1.0529185916031512,0.9928219561367773,1.0839768993064631,3.070514543405074,5.163396040226137
1570180072811688.0,1.8132791643406585,1.2160039259803643,1.1515954012172513,1.0579773435447484,0.9978904572119199,1.0882201903943662,3.068594982168898,5.199083909504852
1570180072825936.0,1.8097839613327449,1.2110210404666142,1.1443205265158802,1.0615026456651275,1.0028374763107375,1.0924629703621163,3.067862486383612,5.246404769034911
1570180072825936.0,1.8002632716598934,1.206464518276506,1.1367237596587618,1.0636064371737552,1.0054054165092576,1.0968230805721042,3.0690779791477705,5.295316013062975
1570180072833891.0,1.79038618188538,1.2041673223037495,1.1320376719415493,1.063031047429567,1.0064192284470113,1.100201642411644,3.072934207658273,5.339406972804764
1570180072833891.0,1.7834430216735686,1.2020122555764012,1.1302910779987654,1.0615052356387964,1.008033412788414,1.1030097027410972,3.077633513642785,5.374503614671699
1570180072848537.0,1.7785171860268836,1.2009556042920206,1.1309224610962865,1.0577212189505083,1.0116068077824025,1.1059959099922114,3.0760583343635464,5.405537204812872
1570180072848537.0,1.769724169029633,1.2003217808168072,1.1298415324077435,1.0545021394512704,1.0151853016717767,1.1082861164725095,3.0611169103758176,5.407680560392913
1570180072849547.0,1.7576563973185126,1.2026216830981888,1.1290112539639563,1.053173404903849,1.0197186925379316,1.1109065406916394,3.0426545036995227,5.381360570954665
1570180072849547.0,1.7415946117000223,1.204465388842239,1.128047366659149,1.0553610110784548,1.0251036327823042,1.1135561198801336,3.029302671286897,5.35144768340869
1570180072871546.0,1.7249863013217157,1.2029338171014325,1.1282383915738285,1.0572470157409721,1.0303925031486343,1.1133960610144926,3.020143103481269,5.336468589260688
1570180072871546.0,1.7115329469882923,1.200484663532782,1.1283515848208028,1.0583846805999988,1.03460406193268,1.111992486518917,3.0117849454756156,5.330443279664164
1570180072871546.0,1.7015813029282862,1.202707743237352,1.130837137809873,1.0558442228379505,1.0385073909283447,1.1109999428971011,3.003955576722505,5.328282277485489
1570180072871546.0,1.6932309166964656,1.2092253951134315,1.1348521478451574,1.0526788319440348,1.0419125101236224,1.1092750797406299,3.002275324336209,5.3279226757909415
1570180072894730.0,1.6893443745711287,1.2200730694326125,1.1404807534851704,1.0502072588185773,1.0462363987875336,1.1049136097852328,3.004780081841135,5.340309997581034
1570180072894730.0,1.687348968984345,1.2335459201295298,1.145639645080397,1.048300756749105,1.0502128724104747,1.0983451586439394,3.0058293808526635,5.363524141814912
1570180072895415.0,1.6866510261937127,1.2487637667057345,1.1530721943068307,1.0450341256250397,1.0527756792241758,1.0915507278751804,3.0101846718973047,5.401598140277195
1570180072895415.0,1.6883470537342373,1.2626508256029758,1.1628832248529546,1.04358341927638,1.0546448850579089,1.0864781219842052,3.021788861171964,5.45356586586625
1570180072908381.0,1.6950855494257395,1.2743230465824118,1.1755240857709104,1.0412941471080326,1.058403312357397,1.084716493249182,3.036055445957604,5.521812940250887
1570180072908381.0,1.7040380944981481,1.2807817148267095,1.1862160673869842,1.0386985108488596,1.0646321935796468,1.0848502416130852,3.047135772717951,5.598077746101973
1570180072909381.0,1.7133348887032402,1.2838485603192946,1.1942908414556368,1.0345260037947441,1.0722811420717084,1.0829344473937568,3.0498896899963532,5.676911666267066
1570180072909381.0,1.7204210363762742,1.2862079600602176,1.2002241723596296,1.0293789532523405,1.0777900870732748,1.0794785232141575,3.0433239543184394,5.752379822063405
1570180072931488.0,1.7300079480551926,1.2898561701279532,1.20676713039644,1.025264800833139,1.0811691483712218,1.0762865619331998,3.0337848218382693,5.828689808317676
1570180072931488.0,1.7439102779563265,1.2933407963098251,1.2091134941342196,1.024585588897573,1.0839945848989554,1.07229325115402,3.025714966574961,5.892610324046664
1570180072932316.0,1.7597446164218344,1.2960352369183405,1.2057874918772478,1.0227931634027196,1.0885419570370334,1.0665442595798431,3.019587655281089,5.941497516690439
1570180072932316.0,1.764369942646693,1.2947450232706164,1.1979786123745977,1.0196721767362198,1.0946052249019096,1.0591958557110188,3.0024266118107774,5.957506004690403
1570180072962234.0,1.7531714711855224,1.2919929741961151,1.1920067733514856,1.016363179247919,1.1023349228143515,1.051204062266481,2.9606391353457995,5.926036037596996
1570180072962234.0,1.7360148016549606,1.2909317733712027,1.1885707813079365,1.0156254532794275,1.1118026542819774,1.0434684035639346,2.9061926303205037,5.876035265672457
1570180072963231.0,1.7236676186215163,1.293024827885798,1.1872177907099448,1.0148806940966704,1.1219541725565627,1.0347924093138485,2.856924629017818,5.8387491292955875
1570180072963231.0,1.7128085261980674,1.2955893001326646,1.1857164588895068,1.0133821733747028,1.1280860120943714,1.0233108467346386,2.814158354604965,5.805022565287392
1570180072969230.0,1.702820227560937,1.2976027820189349,1.184253788639228,1.0094128119317545,1.1288957794344956,1.0091194506958199,2.7736969440106316,5.765548890613068
1570180072969230.0,1.695569505995857,1.298690857709056,1.181149348785562,1.0063853323025809,1.1271223069404328,0.9932571178722052,2.734373035082092,5.727509254477919
1570180072970223.0,1.6914943385302381,1.299121358024303,1.1799541702615404,1.0046658942537847,1.1270057843986045,0.9767207581355024,2.69802615297192,5.700662950152971
1570180072970223.0,1.6876863110172744,1.2954581823640523,1.180876545471443,1.0030230779333131,1.1286109396994393,0.9625098171664594,2.667455991802081,5.68647605644457
1570180072991363.0,1.6874806793731805,1.2890167738711626,1.1837622258046814,0.9988040429186974,1.1304243798905318,0.9513194490334969,2.6405465753076967,5.6850052126629835
1570180072991363.0,1.691155258491177,1.2826349662968572,1.1875190752039462,0.9953608054019166,1.1302233035450364,0.9421668516983437,2.616235291792928,5.6923025481840925
1570180072992164.0,1.69819017721249,1.2793694113191632,1.1929716678162334,0.9921391999510668,1.1282133699435655,0.935918935002338,2.5974014331665565,5.694814980684208
1570180072992164.0,1.7033292626474756,1.2784537918547851,1.1971653430453746,0.9881592014020406,1.1252452697990887,0.9313634915954394,2.5818841970733617,5.683003777038987
1570180073022267.0,1.7068592758283918,1.2790522167523621,1.2029683323061993,0.9816915387926923,1.1210069391590831,0.9265874219351625,2.5677077712873104,5.666059253446374
1570180073022267.0,1.7129679735633196,1.2793906536572635,1.2117122201297135,0.9751435643192798,1.1126913363626854,0.9228694279242031,2.556778383809732,5.653445201900267
1570180073023218.0,1.725721902539844,1.2792100507513795,1.2235951154090383,0.9702829073332787,1.102493509693524,0.9210906243828159,2.5500050770335623,5.6424864053845285
1570180073023218.0,1.7414514850672445,1.2771637193146839,1.234215555408205,0.9675124785512094,1.09390917882165,0.9222348705083658,2.548149545433149,5.643446558237067
1570180073029087.0,1.7518112826502659,1.2743672701071331,1.2433824130812527,0.9628540564552192,1.08725021672682,0.925859044360347,2.5450737183305026,5.636460808914719
1570180073029087.0,1.747939825145949,1.271155407480659,1.2502631752594688,0.9579020806160381,1.0821457182288263,0.9310444710691856,2.5311208999027035,5.59026628739464
1570180073029087.0,1.7359173482699615,1.2677246537243438,1.255199441601245,0.9536698455314215,1.0795295691201638,0.93845667380439,2.507603175139854,5.525702198722147
1570180073029087.0,1.7215877951118561,1.2618016151793234,1.2577433866272842,0.9529912759546678,1.07874678021942,0.9456017017111438,2.4793752733053886,5.462409219366925
1570180073051994.0,1.7092873433311864,1.2558519017903305,1.2619521230016428,0.9542244859847538,1.0806462370880834,0.9489548945494735,2.4503213993490136,5.384295350566097
1570180073051994.0,1.6991322125358277,1.2507791548169933,1.2678565542652769,0.9574422876155844,1.082812572828715,0.9504615091173668,2.426253697922006,5.293498424918733
1570180073051994.0,1.686407147683844,1.2470097804412221,1.2717036806242363,0.9611755376489254,1.0831978799034916,0.9519265503512716,2.409924780407675,5.196733371081774
1570180073051994.0,1.6651908458933282,1.244677611968584,1.266696614810229,0.9634713242129628,1.0824183556595803,0.9534620605225554,2.396091145280505,5.106455275673436
1570180073082123.0,1.6401197856030088,1.2437043909456627,1.2551111255367866,0.9620407469771359,1.0817607913906742,0.9561399176290774,2.3799403594617665,5.02257779169135
1570180073082123.0,1.6151055220355883,1.2413828107757874,1.240102715329451,0.9612967559388,1.0807653312119816,0.9617109617158115,2.365537955859133,4.9441796202888515
1570180073082915.0,1.5925143202448333,1.237870995224758,1.2221123988149565,0.9596406200989512,1.0798081804504907,0.968333666123313,2.3557199591026383,4.868819169311069
1570180073082915.0,1.5721594391892173,1.2329070676591758,1.201648927203552,0.9576873000180497,1.0785521852799527,0.9735181060612711,2.3493178856655774,4.8007501279535285
1570180073089085.0,1.5534820415973698,1.2283410035223132,1.1821173098391586,0.9573872117941368,1.077367769771724,0.9788352237324398,2.346287991067061,4.733160602625133
1570180073089085.0,1.533741299536865,1.224112076389869,1.1645896001558156,0.9612170793806928,1.076061741930025,0.9860300783489683,2.3454490246530884,4.666325625063152
1570180073089893.0,1.5150571559154595,1.2197101557594079,1.1503048489452494,0.9663375112798798,1.0759908228412933,0.9937225321047419,2.3458511884694357,4.597964476463285
1570180073089893.0,1.4982092877694637,1.2150137988548677,1.138445215510658,0.970745538025304,1.0770768394987429,1.0022532903362318,2.347333819934871,4.528401510626284
1570180073110869.0,1.4819103974938073,1.2122871504542603,1.12938582361844,0.9708318701817646,1.0778933317867343,1.0112631655754933,2.346908803700382,4.458692266856799
1570180073110869.0,1.4656943915021636,1.209254260384445,1.1213890190950848,0.968203327008761,1.0752981415694562,1.0202644926149624,2.342911505543936,4.400753154468381
1570180073111845.0,1.4534570963560844,1.2061454930938116,1.1151152279361078,0.9608759422631213,1.0691421467808986,1.0313137061676634,2.3405188115208446,4.356007037147845
1570180073111845.0,1.4446484133261583,1.2040337139379897,1.1106538821227347,0.9496525041264184,1.0619526267746648,1.0447322267207322,2.341217218360923,4.324865898818265
1570180073134772.0,1.4397464532907007,1.201658591082588,1.1062052711870232,0.9387794983549389,1.0556366881735935,1.0582506399180092,2.3418612924256075,4.293268554187003
1570180073134772.0,1.4339240940353557,1.195786491797852,1.0964305800245475,0.9313635939532653,1.0504304677225473,1.0723047287831338,2.3374886137485023,4.258071760628677
1570180073134772.0,1.4240078522000206,1.1869606326347115,1.081937385722499,0.9240530003530437,1.0458935110399383,1.0863810514779828,2.325853812556482,4.220875146817204
1570180073134772.0,1.4102514902064887,1.1761804172289523,1.068287813703205,0.9169924553050135,1.0399901938182596,1.0987391199868468,2.3142703572718584,4.183221103663535
1570180073148903.0,1.3994698603624112,1.1658910082402112,1.0573546036043286,0.9093093676167254,1.0346273410330311,1.1087590111378476,2.309390691118309,4.149072539240394
1570180073148903.0,1.3936021734477364,1.1550875134136132,1.0465328841081074,0.9031635402666545,1.0296597205729505,1.116973249757305,2.3116055522865726,4.12638664232258
1570180073149732.0,1.3937337961415612,1.1446329992385325,1.0385019281173589,0.899274254266828,1.0234930168603849,1.1243446901467677,2.3186973519929013,4.110289211132614
1570180073149732.0,1.393404096272188,1.1346008253564053,1.032045420233613,0.8980870670579961,1.01654725543703,1.1306025994811573,2.3295219677201207,4.0947958694010325
1570180073171730.0,1.3915850343950682,1.1245265474395567,1.0249883132027293,0.8953307921667416,1.0101935746381059,1.1328417399833324,2.3449390812166926,4.077527144846966
1570180073171730.0,1.39140440115295,1.1142814584113847,1.018130743156776,0.8907761769843986,1.0051881359220445,1.1312369506947253,2.363175346526328,4.060352870607574
1570180073171730.0,1.3940474603964061,1.1056174555508829,1.0149605506118926,0.8857555117973783,1.0031229406390865,1.1290446996132164,2.369317558655096,4.032500242913359
1570180073171730.0,1.3943826853869576,1.0990237546741077,1.0140897849271389,0.8831259452887273,1.0014961257122243,1.1290251530296083,2.350593434491976,3.9890174091833974
1570180073194919.0,1.3976235666933565,1.0968464635047301,1.0141348812414066,0.8814663117540709,0.9983141184321904,1.132302470228577,2.3230516106168526,3.9458953931862086
1570180073194919.0,1.4048801816127618,1.0985155118968992,1.0134357419624156,0.8818246101744601,0.9952152792461847,1.136198303835747,2.30144125266028,3.914016913081536
1570180073195611.0,1.4156440106446637,1.103784366702443,1.012843706238752,0.8819023936715674,0.9937710155129157,1.1371454153970175,2.28410012422221,3.887363901494602
1570180073195611.0,1.4252611140788283,1.109236687100347,1.0104654100618178,0.8833708365281666,0.9919449154057507,1.1368722675362826,2.2687195469380543,3.8670326012865996
1570180073208764.0,1.4368471596927603,1.1143592017160127,1.0066060239443966,0.8868386319700037,0.9883745632283795,1.1360217341036665,2.2502544792384653,3.8573684789397102
1570180073208764.0,1.450225884720062,1.1194768291060573,1.0026239029373174,0.8940351163334219,0.9828065124352823,1.1338211258847464,2.224989042512491,3.8578135118498444
1570180073209578.0,1.4678574560178443,1.1237758392112807,0.9998655340242832,0.9019882524430441,0.9783100914754959,1.1313429635557293,2.1971826336671954,3.8701054521925076
1570180073209578.0,1.4866620213391415,1.1252354753309477,0.9953395588233642,0.9099910338958521,0.976674217934644,1.129423862587604,2.173513945213662,3.8936517631912744
1570180073231797.0,1.5064832251532225,1.1254523355215635,0.9894286759562426,0.9148485360563853,0.976731980482617,1.1268120235810766,2.1535532080087987,3.9240859674112225
1570180073231797.0,1.5242895366253428,1.12500351848387,0.9826975936331371,0.9166521642587363,0.9750845628551551,1.122847808769306,2.132278540204727,3.9488544316796528
1570180073231797.0,1.5451758206968884,1.1252828765459701,0.979028719772095,0.9158887623830657,0.9722049832953427,1.1186101207560972,2.112016480446734,3.970050091509781
1570180073231797.0,1.5677421917907992,1.1244970912559418,0.977529154319315,0.9165912803534985,0.9688364007265207,1.115043904670332,2.096428731760852,3.997041002736406
1570180073254451.0,1.5932728724282015,1.1243459193872485,0.9759994964045583,0.915905541562641,0.965540110944745,1.1119599707086372,2.0833202317133406,4.037028816557053
1570180073254451.0,1.616673817262712,1.126040113872162,0.9733012057663163,0.9147038628955819,0.9636042490847423,1.1094768930081984,2.0717442096848617,4.083404663245086
1570180073255527.0,1.6386127189961555,1.130715718974094,0.9737600870509197,0.9136458838419126,0.9609347525144373,1.1085137936760274,2.0637481316022486,4.127458680162133
1570180073255527.0,1.6589843348549327,1.1373355366927251,0.9773222289050189,0.9135270462252848,0.9543900552437306,1.1098370872141796,2.059885733077717,4.163385554627145
1570180073268347.0,1.6811919351923401,1.1473751941029229,0.9824201181360558,0.9111700982606544,0.9468941480686778,1.11210384838387,2.0578848816103683,4.206256358181929
1570180073268347.0,1.7002480454841966,1.158869063690308,0.9864007175420709,0.9085922241427511,0.9397927175510017,1.114365098833839,2.054600436190063,4.25282763249074
1570180073269238.0,1.7177818097594058,1.1708047899137128,0.9916978775310521,0.9074510308634463,0.9334812776107895,1.1145357496180586,2.047410128972566,4.282950555448382
1570180073269238.0,1.7324014336125548,1.183044957962886,0.9967220764938117,0.909231330241369,0.9290128582550279,1.1113150459035661,2.0369815581594315,4.289174003129285
1570180073299382.0,1.748211558582985,1.1969119705310174,1.001873580828822,0.9103523074123662,0.9283654005984899,1.1079855043778457,2.0295347005375786,4.295637530543167
1570180073299382.0,1.7646326632155467,1.2101487950108665,1.006121296466836,0.9115654043436645,0.9310570986264575,1.1060426887598807,2.025109054579988,4.310032303782076
1570180073300290.0,1.7843245472278586,1.223166950998341,1.0108300697448187,0.9126282722679486,0.9358149645231091,1.1023463549954569,2.019997966147376,4.334215141614602
1570180073300290.0,1.8044888468287845,1.2355985224413586,1.0149675296780547,0.9145689394159847,0.9417425515074467,1.0976093526586923,2.016710756451825,4.365799493194773
1570180073314329.0,1.827329376139809,1.2492983099598072,1.021006947680748,0.9152642834776441,0.9504356611704584,1.0956765778775763,2.0188551778137067,4.403901362261101
1570180073314329.0,1.8502425395667939,1.2627372783697974,1.0282870106236015,0.9171413328556672,0.9617265631892097,1.0969868760225976,2.02345546031432,4.440902664278222
1570180073315125.0,1.8754225981535815,1.2762815909501581,1.0379846294822022,0.9186008232536392,0.9753860734305134,1.0992591710222106,2.027064819269306,4.480258614140557
1570180073315125.0,1.900102224724471,1.290096736703922,1.0495893882703324,0.9209916280103533,0.9903450769017554,1.1017347645145275,2.031383887258887,4.51973060362694
1570180073329191.0,1.925243788454205,1.304513928079647,1.0644779939449334,0.9225583150059,1.0053493420530109,1.1044060983243957,2.040476205427417,4.557239276979937
1570180073329191.0,1.947060593875772,1.3184925045532363,1.0783115603500268,0.9216165292163057,1.0184866852637575,1.1074374934234505,2.0542012579695106,4.587905363062888
1570180073329191.0,1.9687582118439255,1.3309957991459445,1.0889646544534735,0.9158814336701836,1.0310341248532595,1.1117363166226832,2.0694594602678658,4.616181043912399
1570180073329191.0,1.9882429965666246,1.338408610588779,1.0946628217583316,0.909281591960277,1.0426291060659694,1.1170752405258066,2.08561860679462,4.641734372906673
1570180073351023.0,2.0036903453010178,1.3438411508964427,1.0996099766512955,0.9033319540005086,1.0503244306903994,1.1215055474256699,2.1040250073300313,4.670304275172359
1570180073351023.0,2.0130569107117116,1.3493582984993082,1.1037484657056493,0.8997484566378232,1.0531932974821643,1.1264371430155513,2.1255551921025146,4.701286384342228
1570180073352168.0,2.0247701308314716,1.3557994852697983,1.1061237358059477,0.8969400540929101,1.054989343441321,1.133406234014502,2.1520013290546243,4.742015728538928
1570180073352168.0,2.039648026573871,1.3612110790816456,1.1055602450621924,0.8949203876486577,1.0565546694547088,1.1400787439193438,2.1823827986894226,4.789974253039541
1570180073375009.0,2.057534857499328,1.3671896550148168,1.106519216196083,0.8916165736915829,1.0578799670788683,1.1427255092852586,2.2156699873273094,4.8445676992472935
1570180073375009.0,2.0729976160757513,1.3754044138285433,1.1084572415049696,0.8884697537263075,1.0585260460635157,1.1410948879931646,2.2524240100724353,4.9054261748398424
1570180073375009.0,2.0866563531718563,1.3851078676076234,1.108669888017441,0.8851537867366045,1.0586580289225758,1.1372519160741996,2.292875531582287,4.977244447047439
1570180073375009.0,2.088745241191054,1.3886967348615702,1.1021297816929032,0.881526821337799,1.0568866247505955,1.1311132083713198,2.323610125548892,5.026221333837088
1570180073389116.0,2.0742373976714825,1.3834325388231254,1.091910019808555,0.8749768087786538,1.0536666546745725,1.1218019572120745,2.328365781255962,5.010923677863767
1570180073389116.0,2.052406788546174,1.374121812821114,1.081238783998243,0.8692170027991726,1.0511499835574107,1.1114824554775473,2.315566443033757,4.950107719183667
1570180073389920.0,2.034752280660172,1.3679790758593307,1.073652011474571,0.8647019885329894,1.0504412259957674,1.1018222437223326,2.3042594082019567,4.889131507221364
1570180073389920.0,2.0182025269670114,1.365034008275938,1.0682836389718002,0.8633055155408357,1.0492380945099196,1.091764446386075,2.2973890481473327,4.837483374486044
1570180073411234.0,2.0030357848448173,1.3637603493271426,1.0659357789030346,0.863052232893359,1.0464216423269683,1.08239544468648,2.2927060526873753,4.792047489698733
1570180073411234.0,1.9876435623738953,1.3614262346268884,1.0651433308328857,0.8621230101556695,1.042537163706186,1.076505056899624,2.293077004953002,4.750855176549829
1570180073411867.0,1.9743934690684073,1.3583905855955603,1.066909274563924,0.8590718155475805,1.0386268321013687,1.072596675551694,2.300287641469051,4.72010409305645
1570180073411867.0,1.9614367808673536,1.3551060209684296,1.0695191429490059,0.857270685241394,1.0335193633338935,1.0667789016257108,2.309946251795118,4.696782039246084
1570180073434799.0,1.951421564333869,1.351630779197504,1.071968654338354,0.8551168016428208,1.0293288849716986,1.058439600553153,2.3174307960020633,4.674462956727383
1570180073434799.0,1.9438326583046004,1.3456493513730756,1.0720304469329425,0.8541995789073913,1.0266309382992742,1.0508139278038975,2.3206938641071684,4.65457232990105
1570180073434799.0,1.9372634460863956,1.3388083299063607,1.0738477404113351,0.8549165228226715,1.0240659390388422,1.046614636458352,2.3229128055023684,4.633453209237769
1570180073434799.0,1.9277456629897212,1.3324569069465897,1.0783638354391831,0.8577207118740456,1.0204782004627777,1.0455616629793778,2.326396488047659,4.605837404145716
1570180073448926.0,1.9174024448852856,1.3275347887688145,1.0855921156539203,0.8579854553604471,1.0156006827451938,1.0465115873130715,2.3292195141158247,4.578009628159388
1570180073448926.0,1.904778719610963,1.3220724676876594,1.0908461939907574,0.8549475116596715,1.0098994697098589,1.049416272502184,2.333160141109643,4.554362806214143
1570180073449763.0,1.8919498347572519,1.3163038776841685,1.0937232477988945,0.8492191670039927,1.004501688249904,1.0530424397985925,2.342792566764585,4.534089488131884
1570180073449763.0,1.8802109979522295,1.311109505733784,1.0954567999340163,0.8439750291526725,0.9983728170385363,1.055510218638904,2.3555766853518563,4.518788297449572
1570180073471755.0,1.8700812548726633,1.3089857732581165,1.1013057604794945,0.8379640448416145,0.994018095770954,1.0560486675458935,2.3682398574899475,4.513563897286402
1570180073471755.0,1.8590594637873645,1.3103930917128432,1.1104895742146452,0.834684715892169,0.9933644271331229,1.0558882887284027,2.383410551106207,4.5139157716169525
1570180073471755.0,1.8473257175832885,1.3145721272212907,1.122418456527454,0.8339713292944878,0.9962665640071475,1.0558924333247353,2.403326229173659,4.507384413679497
1570180073471755.0,1.8319648046843153,1.3175478200766766,1.1336986929733457,0.8353425267275075,1.0004037334680873,1.0560066682304692,2.42414695079328,4.489023724042948
1570180073494949.0,1.8149295835711055,1.3190481197129524,1.1453373861357694,0.834456185190236,1.0046163896974727,1.0551713838217063,2.445086073021704,4.458005912892026
1570180073494949.0,1.7954307700194754,1.3199599374342552,1.1563856702355495,0.8326944902434621,1.009666339063271,1.0536128306602222,2.4691211110195628,4.41507539935141
1570180073495637.0,1.7784740577039642,1.3214449212267438,1.169641036164112,0.8308447266192239,1.017661155248745,1.0521327778054494,2.4967537863156344,4.373733091208959
1570180073495637.0,1.765738597550672,1.3214107958594878,1.1851006689206864,0.8309343480085423,1.0278934890934153,1.048766452190584,2.5275074983060186,4.345735045404497
1570180073507608.0,1.7583767287609153,1.3190268198490025,1.2030934088763396,0.8311344974335415,1.0388257341882623,1.0437958441992607,2.5618704358075086,4.3319583505042045
1570180073507608.0,1.752548525168033,1.31437669699826,1.220083787767031,0.8317192605824649,1.048629452200234,1.0391974910500807,2.5960764902010287,4.324492447377114
1570180073516579.0,1.7433684875721305,1.308220731950629,1.237052628401989,0.8304985526207865,1.0586425624485272,1.0348440772801781,2.617392568158171,4.300722064655114
1570180073516579.0,1.7272289764552609,1.3007721530913618,1.2528300931130307,0.8292032225283278,1.0691390632385787,1.0317538343304813,2.61813816755212,4.246803278171865
1570180073531543.0,1.713647487930147,1.2957320977512934,1.2687647845538164,0.8265624120123937,1.0799849231209213,1.0296652783176075,2.608490480103508,4.178529309428903
1570180073531543.0,1.7055010721370458,1.2934098623979355,1.282508992389457,0.8252586708015708,1.0896562179707305,1.0276494614421317,2.596729089599466,4.1136630385077515
1570180073531543.0,1.7033081139814008,1.2935502382302595,1.2951202487609428,0.8243202173370133,1.0985991499873597,1.0256897366522606,2.5875890072731567,4.056892956172509
1570180073531543.0,1.7058576842229187,1.2938335071710696,1.3066782095466323,0.8241058607435229,1.1085285982467497,1.0238887149178177,2.586841750311463,4.0114716821167855
1570180073554703.0,1.7135591192936497,1.2919250399824624,1.3191201934991597,0.8235592024192466,1.1188361746049806,1.0231660306678918,2.5948268129558474,3.9793503131076675
1570180073554703.0,1.7219991741478529,1.2866346403449944,1.330815162375584,0.8259161660697949,1.1257074711634003,1.0233727480585615,2.6061796855294164,3.96138332154561
1570180073555484.0,1.7301750414308552,1.2813211794339114,1.3415998715129898,0.8286413579475955,1.127940268387253,1.0234600511012693,2.612337081307951,3.9535520287765
1570180073555484.0,1.736746181521195,1.2769424322684444,1.3476112618303984,0.830976100475599,1.12522944051585,1.0234774454307232,2.6112281390232663,3.9483666449742887
1570180073568443.0,1.7465694042364373,1.2745434033204455,1.3491170321345751,0.8288376106240817,1.1212901620971192,1.0223275096635929,2.610663618359258,3.9473236080811867
1570180073568443.0,1.7573336102073418,1.2727019597117346,1.3456257324341179,0.8244468684784794,1.1204440906736752,1.0192393192514162,2.6146834243764,3.952482466035353
1570180073576485.0,1.7675560669603596,1.2698725991418298,1.3377612265056185,0.8205915654666593,1.1232237194470436,1.0142983231253024,2.624428789445393,3.9562932259656174
1570180073576485.0,1.7756002257392665,1.264859414464283,1.3274402971894477,0.8194446824719764,1.1256478140782333,1.007699405532203,2.6338368703971433,3.952382472251511
1570180073591585.0,1.7846537963087135,1.2574203117088392,1.3198372192254586,0.8168548844699584,1.1260703799158849,1.0006190103512678,2.635260644747274,3.9455918285899227
1570180073591585.0,1.7890460885230366,1.246725546432006,1.3127880002065468,0.8128374482571635,1.1252652694036376,0.9961341811051728,2.6337411856501416,3.931997083140932
1570180073592379.0,1.7886118205469415,1.234826049752022,1.3042616891243304,0.8057706846984252,1.1244058775700785,0.9957565572706224,2.6326704353631722,3.907760826966495
1570180073592379.0,1.7851632972187799,1.2221373712917716,1.293918086741434,0.8000722860437287,1.1227514816002875,0.9981342147264445,2.629891465131953,3.879323573547854
1570180073614573.0,1.7829715002685347,1.2103225787449745,1.2834187048513015,0.7964463676973642,1.119644383440497,1.0011416180959005,2.626106984587084,3.855085203507018
1570180073614573.0,1.7794222429450914,1.2002598062227816,1.2719035915096744,0.7954795583970151,1.1146588153704564,1.0040998771731955,2.608260090518603,3.8298266648453434
1570180073615316.0,1.7749807551536643,1.1907727122174636,1.2600451319101846,0.7935554144517037,1.109681911942586,1.0081052361112606,2.566563182172143,3.7998473326130506
1570180073615316.0,1.7710485065222605,1.1810488266346113,1.247197332070504,0.7932358772670076,1.1051640023125882,1.0140676395455217,2.516332208735034,3.7734380555595717
1570180073628332.0,1.7721043605147473,1.174265768002139,1.234955904133217,0.7946285150046513,1.102088455737345,1.0217493083608686,2.470277820660886,3.757031708549631
1570180073628332.0,1.7737200405608717,1.1672764088448353,1.222445004576085,0.7996101663306725,1.0993575477334165,1.0310474995658747,2.4295661976752743,3.7430842844046563
1570180073636261.0,1.775228169249685,1.1565827816877212,1.210361985132506,0.8046842075595165,1.0967319658835741,1.0406643684090338,2.393841595978979,3.7313254230689203
1570180073636261.0,1.7758890680601958,1.1445021758533438,1.1988705780494662,0.8109276007847936,1.094927258433038,1.0487933852543392,2.3618416054426628,3.7252983391443473
1570180073651352.0,1.7796256182144459,1.135190195760875,1.1874228865243341,0.8162955854118547,1.0937797067839574,1.0547250540627153,2.3334662866805527,3.727005336443494
1570180073651352.0,1.7854332801847963,1.1281475983022602,1.1756590574902297,0.8216102603276836,1.0931746297063238,1.0587680017409238,2.308447126008726,3.73042892099613
1570180073652216.0,1.7918514506920267,1.1233190011659488,1.165984759368753,0.8244439576821133,1.0937440190453047,1.061061773875541,2.283669384374604,3.734736205942701
1570180073652216.0,1.7946165465346982,1.1185956057869695,1.1573397356277508,0.8271580807033299,1.0933872579327835,1.0628283982516185,2.2563713942008317,3.7394234732828195
1570180073674330.0,1.7993572586888062,1.1127334188325815,1.1482128589202114,0.8279901937739196,1.0908698549379727,1.064936609706732,2.2309820949751877,3.7507312044182335
1570180073674330.0,1.8072601821198133,1.1051332702487935,1.1372468832837588,0.8291810356242968,1.0858075488906531,1.0683987024364239,2.213284167188693,3.7699168327821857
1570180073675156.0,1.8193077444089916,1.098799569270245,1.1250830257439577,0.8291473863587981,1.0791394971094042,1.0737864119297282,2.203928814710888,3.7982507526474083
1570180073675156.0,1.8299146156654997,1.0931701776906884,1.1111674703248313,0.8313954232256419,1.0711450999663397,1.0789194510687783,2.2016721578699343,3.826826858134842
1570180073688157.0,1.8405114266668625,1.0871222850896154,1.0951050173583563,0.835481282665545,1.0637907787636731,1.0821146738355742,2.207428485164595,3.85576174696146
1570180073688157.0,1.8513246060186304,1.0819375543638714,1.0777509750968346,0.8433392062100389,1.0586509620535067,1.0846973218683265,2.221482796828512,3.881576966801083
1570180073696260.0,1.8636365745882533,1.079480265427136,1.0632626246658685,0.851012730005535,1.0571757323535367,1.0874490771229761,2.2401344830093124,3.905712878143245
1570180073696260.0,1.875578670975285,1.077725944009964,1.0493815182214639,0.8591236189510941,1.0585694795114042,1.089340370642629,2.2573439655363994,3.9308841696881403
1570180073711149.0,1.8883693006580482,1.0779851283009387,1.0328029944829757,0.8666307479069986,1.0608757990232476,1.0895446455718427,2.2720326694984005,3.9608578023993704
1570180073711149.0,1.8982131256996904,1.0811516959577563,1.0134757918862178,0.8773790000064418,1.0610692455899653,1.089245229541821,2.2864590923162744,3.9899141562783758
1570180073712058.0,1.9068234766724053,1.0868560508928216,0.9930609169023116,0.8881813361091876,1.0601848603142445,1.0893060553528653,2.3027386127671527,4.0229073158898085
1570180073712058.0,1.9128478812279688,1.0935550756716934,0.9732651141867434,0.9006347506626314,1.0598104379979927,1.0906040729860653,2.322396341577876,4.057905742309936
1570180073734006.0,1.9196361412775935,1.1027263438192159,0.9574421202470792,0.9134485951598191,1.059243611685637,1.0917989058299318,2.3450566233288046,4.085640268270043
1570180073734006.0,1.927063272189735,1.1126772721826959,0.9456075836290162,0.9280322382859888,1.056464202581472,1.0890844273548081,2.3687424550567675,4.090702731531958
1570180073735036.0,1.931743441276148,1.1226784970333707,0.9379712197348536,0.9411387569333924,1.052304391841027,1.0798938522396073,2.379345370727706,4.07174877325928
1570180073735036.0,1.9264508010903143,1.1297237606207262,0.9324292396403748,0.9541722281363597,1.0491201588879366,1.064631383349352,2.36527534925773,4.028775333890303
1570180073748097.0,1.9176377826033582,1.1330587995442312,0.9275858378941125,0.9650211281559016,1.0480160511409748,1.0472473457976559,2.3437695306884816,3.982122588017385
1570180073748097.0,1.9095110891191296,1.1344520111771308,0.921979586269875,0.9783157592166795,1.047009146043938,1.0314684992690213,2.330897479710753,3.9377240480995797
1570180073756483.0,1.9060255606137284,1.136066412264783,0.916651993582399,0.9923060357519505,1.0462740554570698,1.0189945797115545,2.3231692463277693,3.8912841111945626
1570180073756483.0,1.9032488687311535,1.1363927570832184,0.9120678329065752,1.0066378556093853,1.0470984356516366,1.0095735590604384,2.3155445999273274,3.850405074778564
1570180073771039.0,1.8989686641545553,1.1340685810991857,0.9106831850394179,1.0152425736822988,1.0512567244225843,1.000095671171129,2.308297431394141,3.8246020520784674
1570180073771039.0,1.8923016976162443,1.1279324107873745,0.9097904959699092,1.018748146792815,1.0581391785430594,0.9898015292595148,2.3022454664437353,3.810252654269929
1570180073771898.0,1.8827415691957574,1.1209731461631975,0.9077877805036951,1.0183032288524831,1.0670333434952626,0.9816746509627678,2.297300692879119,3.7950791749938815
1570180073771898.0,1.8635214492601067,1.1148986747858816,0.9056224954301991,1.0186609822383805,1.0755672283613027,0.9764998612425366,2.2923004236073616,3.76404923350295
1570180073794841.0,1.8416001415997545,1.1129780400610931,0.9059954358634034,1.0181122269629383,1.0814359355096446,0.9731505585071641,2.2864292331631058,3.7302171407946587
1570180073794841.0,1.8252321315074163,1.1146933291868246,0.9077172513828552,1.018199468122865,1.0845221468036053,0.9715443113600448,2.2806884273542822,3.7028140978591386
1570180073795622.0,1.817809176968882,1.1186025585897372,0.9128115912464848,1.0161193061831062,1.088223197000799,0.9695193587684017,2.275885448032987,3.6861867037281293
1570180073795622.0,1.814793080700649,1.1230091637534716,0.9204074911939353,1.0147328365097714,1.0930541474839774,0.965373039212503,2.268786100685291,3.679047967688291
1570180073817089.0,1.8162833469432564,1.1281019322164838,0.9298780576313984,1.0148815255639643,1.0986601220519123,0.9612633716526195,2.2569541956961157,3.6796865953590343
1570180073817089.0,1.8195075900122806,1.1308670538332646,0.9380787060924968,1.0177478928522679,1.1041159699511687,0.9589699937788546,2.243702606336611,3.6800502074456802
1570180073817775.0,1.8218122856713301,1.1313316714167372,0.9458747180142812,1.019131425076885,1.1082608070892705,0.956250981025041,2.2328718561461764,3.6748415287697633
1570180073817775.0,1.816082692190997,1.1298366078372024,0.9532561325787645,1.0201628676928665,1.109092582924713,0.9514255488720825,2.2250486542047994,3.657423330554446
1570180073830783.0,1.807161352679323,1.128827782069768,0.9608533294174615,1.0180535609132595,1.1065044201232994,0.9467090773394855,2.219164345610391,3.6393714833124657
1570180073830783.0,1.8015590399811392,1.1290806835389369,0.9657857973436877,1.013313032049151,1.102727345028539,0.9448929535757216,2.2153045918827017,3.6284553774921067
1570180073831736.0,1.8006257804233776,1.1306543254391008,0.970326589548896,1.005419701097572,1.1001557832123698,0.9445059194408221,2.21648336002364,3.629870413209556
1570180073831736.0,1.7981042801579588,1.1330977084152936,0.9751062205107006,0.998187012011959,1.0968983112668969,0.9426967751790715,2.2241556312613135,3.6364414329844967
1570180073854674.0,1.7958716632322327,1.1376928547920933,0.9807265300193324,0.9904439258546365,1.091212133910456,0.9397482628930075,2.237890786014981,3.6484352964591253
1570180073854674.0,1.7931288781299866,1.143186430551715,0.9851854396261782,0.9836614043335631,1.0816658036308753,0.9377309947229664,2.25601993171465,3.66459973246227
1570180073854674.0,1.791138915052988,1.1500767372341505,0.9900546720259633,0.976174175004248,1.0690806100490706,0.9372887739700618,2.2720428967401936,3.688535285011819
1570180073854674.0,1.7862533588829754,1.157265670180808,0.9945435540358316,0.9698041704119772,1.0552496592818303,0.9362705106380522,2.2718270998724903,3.705323999652772
1570180073876616.0,1.7810852653561708,1.16496039325847,1.002188594604514,0.9640224344507791,1.042458986402805,0.9329342701171817,2.250839930625065,3.709758591869897
1570180073876616.0,1.778157203103666,1.170840388166984,1.0124348603061608,0.960985744496294,1.0310141427689143,0.928638711726819,2.2226754744079225,3.7101890977535157
1570180073877616.0,1.7796082600194496,1.1737937687872528,1.0245590088943108,0.9588259551591225,1.022149636959586,0.9253170692897801,2.198291475814234,3.7160336885894805
1570180073877616.0,1.7829020096325938,1.1714105188283244,1.0353546952927692,0.9598614905079546,1.015861742196994,0.9237641467703148,2.1768365748489544,3.7185191482758246
1570180073891605.0,1.7885954819692953,1.1663661536521124,1.0459666232718419,0.9613964379591547,1.0123186644686908,0.922802618554453,2.156174783263147,3.7251278563194066
1570180073891605.0,1.791443500786138,1.1626824014308261,1.0564428415531772,0.9628612131308203,1.0119885694386526,0.9226381183364623,2.1351114184532802,3.732845773322463
1570180073891605.0,1.7917001371104855,1.1620281025194732,1.0684569846369474,0.9611273266866062,1.015190458331857,0.9240945628805389,2.111693709043814,3.7417015429304397
1570180073891605.0,1.789376447097451,1.1616340924380337,1.0792970865318847,0.9580523493402687,1.0203231366673546,0.9270732562024492,2.0859298238047117,3.7518429791926273
1570180073914566.0,1.7895447259010797,1.161940901585314,1.0897049521366764,0.9545966934246987,1.0252933580191053,0.9312801885689393,2.057878126167353,3.770477176519123
1570180073914566.0,1.7913115567288016,1.1634617368669975,1.0986244994581262,0.953460385707917,1.0295760626815096,0.9346016063963539,2.029627317126439,3.7879913268108467
1570180073915514.0,1.7960622314617896,1.1670543381245506,1.1073951198293963,0.9513697990431774,1.0364008917986194,0.9354600600261472,2.0050495686604406,3.8029184397494045
1570180073915514.0,1.797610690169039,1.1707135276557783,1.114762539639213,0.9493466782129976,1.0456443349549542,0.9362628530987761,1.9838611984003267,3.8102931161323794
1570180073936464.0,1.795509236864273,1.1760469199809607,1.1217964829318876,0.9459299959854834,1.055763802054738,0.9384792353273839,1.9661436998041186,3.8146119838421044
1570180073936464.0,1.7933388781744855,1.1835285456710551,1.1261831896407426,0.9430030034768838,1.0658535762126362,0.9397234969260007,1.9527931276503592,3.8104214655142026
1570180073938034.0,1.7962719952897594,1.1923481413974157,1.1285252351316801,0.9398451228427378,1.0764922417292595,0.9362758263489673,1.944813753911866,3.793987728596363
1570180073938034.0,1.8000885621029197,1.1999158112547026,1.1269389364149422,0.9373759261551822,1.0874534760134305,0.9281034241319297,1.9428919464639545,3.7668297765131955
1570180073951417.0,1.8029340118387023,1.20759518257057,1.122579842848061,0.932279592231842,1.0999597551196327,0.9194875754005468,1.9468255046587961,3.74827474879698
1570180073951417.0,1.8046070291624994,1.2136211948738114,1.1167209023810734,0.9271094926371609,1.1127587704513204,0.9129619973021,1.9561732150898554,3.739773301418969
1570180073952414.0,1.8120305098932796,1.216480951497009,1.110705026863923,0.9213480091708999,1.1225895203613325,0.9071775783280047,1.9696473221355837,3.744237230621345
1570180073952414.0,1.8234841186520192,1.2167465799729136,1.1024659113807111,0.9176798376905607,1.1289770421695302,0.9023520671345099,1.9860225605533735,3.7541637402146097
1570180073974490.0,1.8378204755569412,1.2176961035835472,1.0931798299504203,0.9149427126361621,1.1355367906361045,0.8992272980464555,2.006049578297098,3.7712706148979027
1570180073974490.0,1.8494157587421198,1.2191748322754037,1.0809712936473537,0.9144909518801898,1.1423202586683774,0.8967529524880921,2.0265953063728337,3.7887106762307887
1570180073975353.0,1.858119422018885,1.223068872561982,1.067825644036367,0.9144152527469115,1.1475127637268019,0.8951692334616469,2.0400967130216063,3.8103585997635063
1570180073975353.0,1.8613604466441058,1.2294797651347449,1.0558383424042954,0.9162966389814621,1.1490054987909788,0.8964257817853074,2.0456326107571408,3.833386282719521
1570180073997293.0,1.8575390698555938,1.2377250020605168,1.046979731376119,0.9180344126431484,1.149505195343848,0.8999553502017608,2.040349243552624,3.844596217868235
1570180073997293.0,1.8447136680486877,1.2459101560338346,1.038692712302464,0.9202645185784819,1.1508519059094755,0.9047740328113634,2.0180009989778895,3.82970595187514
1570180073997293.0,1.831305833226164,1.254451950970138,1.032278110159979,0.9209008822076645,1.1517926230067683,0.9106782180179951,1.9884996499987604,3.8156467173419166
1570180073997293.0,1.8191549071841695,1.2610144117281816,1.0270156096537966,0.9232180897148063,1.150579420341763,0.9165972861034445,1.9628744880586033,3.8073340526827275
1570180074011259.0,1.8098368476980362,1.264780941041911,1.0215355493094618,0.9257187524398638,1.1487021271385194,0.9216512231411811,1.9432645665729882,3.8020026442378594
1570180074011259.0,1.8015411860018224,1.2643992915945619,1.013923131138357,0.9291327407802417,1.1463239944330994,0.9260909242373122,1.930860735225007,3.7982935938027973
1570180074012328.0,1.7980343858575238,1.2623574110639746,1.0082231324774271,0.9322135615350173,1.1429086269972584,0.9298052498765507,1.9238466760248951,3.8079675007625955
1570180074012328.0,1.7976893122541384,1.2599146739795557,1.005694879910715,0.9375632605467542,1.139271832297094,0.931919661699769,1.9186630779304414,3.825358631393227
1570180074034195.0,1.800020259401417,1.257993404400818,1.0072754312384327,0.9431509912568224,1.137467332570313,0.9319278854212277,1.9112970812451051,3.851131034361414
1570180074034195.0,1.8011581726218535,1.2550624251943365,1.0099039923950575,0.9516011181814625,1.1365409976831276,0.9324504526382804,1.8985160374811383,3.8776089096823045
1570180074035195.0,1.8026756295812718,1.2498001728017174,1.0128936708205976,0.9598451076246615,1.1343755414924028,0.9359411331076585,1.8834997280943682,3.9047624491340494
1570180074035195.0,1.8030826663687265,1.241791175696774,1.0156321591218769,0.9680484664493505,1.1307213622473775,0.941671120874754,1.8701740090540981,3.9263339188850233
1570180074057135.0,1.8052058588063828,1.2357475672688867,1.0194839164266414,0.974739744755454,1.1289730129446967,0.9475041905337912,1.8604970562143568,3.9550817503485978
1570180074057135.0,1.8058694306522807,1.2309071383298062,1.0199261195027411,0.9805323578536176,1.129496522618466,0.9538765400696633,1.8561130338545717,3.987125734610882
1570180074058226.0,1.8047114669852842,1.2263796792705333,1.0180391560996556,0.983292105686819,1.132003024655776,0.9613878205255688,1.8585928737211967,4.023733112703865
1570180074058226.0,1.801384314045912,1.2238241088502924,1.0152339479041328,0.9889179783522629,1.1359431198524708,0.9687327097287591,1.8673345805768913,4.06260633560271
1570180074071163.0,1.7987169731734296,1.2259225208721936,1.013569165281643,0.9965502586359202,1.1417689149324852,0.9739887498976539,1.8752375655922258,4.110368823863622
1570180074071163.0,1.7952274835543884,1.2312287176567283,1.0126192027731244,1.0057194487545602,1.1499092355243552,0.9767392872641228,1.876959311876198,4.158131378475938
1570180074072093.0,1.7938353690386368,1.239311630236362,1.0132614959209698,1.0126605898601795,1.1604958638516076,0.9771945071398979,1.8775674053113272,4.207491039782144
1570180074072093.0,1.7930416945102128,1.2474414047417859,1.0145516012360298,1.0189590074986166,1.1719676869029263,0.9756396537634353,1.8817165429311282,4.252231381435788
1570180074094034.0,1.797779959064031,1.2547396224465772,1.018483133878617,1.0228886607093306,1.182412363648034,0.9721590669487326,1.891443586994902,4.303718359037491
1570180074094034.0,1.8050885811990134,1.2604077720884557,1.0235842466249512,1.025401131145399,1.188141151355869,0.9672012443217038,1.9030376054511793,4.35590000464963
1570180074096028.0,1.8131601659625916,1.2659040003553772,1.0318901900751507,1.0246615901740348,1.1905590793385321,0.9630337833698214,1.9126263757672444,4.41231535073664
1570180074096028.0,1.819322347407194,1.2715442141612243,1.0411283124584736,1.0239107991287848,1.1943140656450864,0.9622456359774042,1.923243515276636,4.4671418127283244
1570180074116972.0,1.826526946263852,1.277984592536212,1.051670418878476,1.0211847457801406,1.2017970072566742,0.9638917532214254,1.9364691709801949,4.512354031523502
1570180074116972.0,1.8343744740218433,1.282643355015761,1.061970494130982,1.019204093031006,1.2113249306884106,0.9660108758833436,1.9521580862111891,4.538645665308774
1570180074117970.0,1.8465301907372822,1.2846819269244292,1.0722291655153482,1.0188582666878534,1.221091671977385,0.9688478628833445,1.9720168863345253,4.5683216159302615
1570180074117970.0,1.8573840528722263,1.2830075221494213,1.0806477891797652,1.0211085968052038,1.229037949623542,0.9732091729482895,1.9946865543200873,4.600760154031372
1570180074129938.0,1.8666854672958235,1.281085600896609,1.0889937794268398,1.021806340854757,1.2357877100449168,0.9776926387172824,2.0177200647281537,4.632157031331557
1570180074129938.0,1.8747862430607054,1.2797913653027413,1.0960581841591097,1.022119641570685,1.2418428034083437,0.9817090333131415,2.0381666201517428,4.656693469702641
1570180074138913.0,1.8831665252240093,1.2772723275108175,1.1034169564429384,1.01933613330815,1.2456232395960187,0.9861383779649183,2.0558848466914394,4.680437091996638
1570180074138913.0,1.8865621658030047,1.2711799021034917,1.1100051292191557,1.0143236695958442,1.2458244107547565,0.9895554842595012,2.068487017624791,4.682917046689581
1570180074153874.0,1.8903074827086022,1.264425588081477,1.1185310309882641,1.0078519216723738,1.2459277448678832,0.9895032031070452,2.0733245247557544,4.667213370237823
1570180074153874.0,1.898180155924612,1.2592792859763242,1.128592325643306,1.0040548765456707,1.2477111002568773,0.9879543705080176,2.0760611172691803,4.656096905432485
1570180074155868.0,1.9115029213708485,1.2567175658151135,1.1392978711040669,1.0003965357844737,1.2506208750709193,0.9866029230417293,2.0833897669257033,4.665945445300963
1570180074155868.0,1.9249740149659724,1.2549169032722998,1.1481323882085155,0.9990881604943157,1.2520410593132194,0.9854399865728785,2.0965750031196086,4.686206014635224
1570180074176617.0,1.940313828899848,1.2533278483416685,1.1573715699389737,0.9998042533312043,1.2531184580742682,0.9854277911901027,2.1153009990198615,4.7163105449889935
1570180074176617.0,1.9550927072128992,1.247529725086441,1.16316464946558,1.0031328476438728,1.2552520488166476,0.9870842386628695,2.1362121707937853,4.737590982811207
1570180074178542.0,1.9706906832418385,1.2369209545355238,1.1669575001249437,1.0062821130515531,1.257944719201781,0.9879612727550309,2.157061901405865,4.744333574721666
1570180074178542.0,1.9857049610948359,1.2234456566452947,1.1707486108916738,1.0107624742144714,1.2612173006319596,0.9869490856047667,2.178513827289767,4.739268445774259
1570180074190630.0,2.00262110290528,1.2109421371859546,1.1754751292396928,1.0137160993597907,1.265484007899639,0.986651157994378,2.201737409174357,4.735737011226549
1570180074190630.0,2.018101022806077,1.2014162476499373,1.1784136143458805,1.0170365881711412,1.2688547249031301,0.989521945732342,2.2275851100494624,4.732019126881466
1570180074199485.0,2.0348987030739485,1.1960303367999148,1.1787769013504124,1.0171418429419052,1.2712929046669148,0.9936240577879978,2.2575845394387444,4.732138839301112
1570180074199485.0,2.0503675402331547,1.1934313292926622,1.173990077963346,1.0131660109466378,1.2727427904533792,0.9974946280488954,2.2842174408899334,4.720666789596822
1570180074214832.0,2.0667196510520265,1.1950363544283265,1.1683556399963793,1.005866651013564,1.2733587341378583,1.0023969727715893,2.3023729639019845,4.69771983658957
1570180074214832.0,2.0840675070893404,1.1995072769725545,1.1646051046139279,1.0003149998959397,1.2719060090283656,1.0092276060277101,2.3201294977470783,4.679453979174849
1570180074216150.0,2.103954265216234,1.2055401613762822,1.1652274483018388,0.9964233700465249,1.2689286314430517,1.018536255853069,2.341083363741401,4.6783418240942325
1570180074216150.0,2.120115079927607,1.2111290948328317,1.1665276799948499,0.9972486055647001,1.2657394848345938,1.0295439178300245,2.360284428825275,4.681416775105667
1570180074236882.0,2.1341993251637006,1.218542651660474,1.1684275908304222,1.00085787176566,1.2631521988571714,1.0388509671738149,2.3795770132109597,4.6905974096937495
1570180074236882.0,2.1460015685021703,1.228469772325427,1.171112312513647,1.008297739849825,1.260833735891247,1.0444818006711438,2.4002689069837975,4.705202543443738
1570180074237877.0,2.1570539025605484,1.2412095982773397,1.1761891887716553,1.0169812626392358,1.2600482186207869,1.0474465996720723,2.416873652597119,4.72669199753852
1570180074237877.0,2.164591001084725,1.2547111585318587,1.1819429106873838,1.0271947233608691,1.260238100293066,1.0501064939068547,2.4283670275247595,4.734784678275336
1570180074250964.0,2.1737516673383714,1.267685856576947,1.1891201150285604,1.0361726190064369,1.2600699374229785,1.0532087035351803,2.4416252811603947,4.7259618767248694
1570180074250964.0,2.185105046836147,1.277026756033899,1.194946341134768,1.0447876773958902,1.2585192188853322,1.0579247230958821,2.4599743877649627,4.705520846191362
1570180074259941.0,2.1984355525712584,1.2843472924092512,1.19901493873712,1.0508464942342572,1.2549805260925724,1.0656768618978034,2.483176195851425,4.679000423157126
1570180074259941.0,2.206746201755741,1.2914064346401433,1.1997930778692405,1.0562986212051169,1.2486288810075545,1.075658809939973,2.5099385276937434,4.646028585028779
1570180074274351.0,2.2141344989954335,1.3009602568993992,1.1980981789627145,1.0586734580792092,1.2425654318046828,1.0855876366517447,2.5374172076002837,4.623281797348408
1570180074274351.0,2.2255168500088347,1.312677336468811,1.1938312573142529,1.0602335437912693,1.2386325452040654,1.0948832908700707,2.5611354459308355,4.610076296377611
1570180074275867.0,2.243262552580167,1.3258781393660786,1.1900723807843112,1.058294246448572,1.236537472776888,1.1033726102856132,2.5820456649570955,4.602225217580062
1570180074275867.0,2.2604862171585896,1.338905565946603,1.1851612438122514,1.0555189572298767,1.2341136383351181,1.108925395579618,2.6061893467426787,4.5930324017339625
1570180074297062.0,2.2769328541987686,1.3527310267062214,1.1807461906172996,1.0544490487827929,1.2307253465394985,1.1084951120010262,2.6376513425672323,4.58773257061235
1570180074297062.0,2.2898367184156116,1.366511409399947,1.1770958541139052,1.056761086792783,1.2282191977847257,1.1048949423885681,2.672653928329258,4.584536583501699
1570180074299058.0,2.299562153529635,1.3816987085680292,1.173243191062956,1.0593738005605722,1.2275457829073477,1.1037168152893881,2.708620230446138,4.589249337780281
1570180074299058.0,2.3031791392930008,1.3958786142318356,1.1660582158204087,1.064464292999515,1.2266241127308504,1.104567134773003,2.744626941925591,4.595713852069611
1570180074310211.0,2.3012894453410424,1.4050633992712924,1.159197009583698,1.0678461292415289,1.2254242892495801,1.10428454476837,2.7677574854495384,4.594963876707874
1570180074310211.0,2.2944447585411982,1.4082547984918954,1.1548919829284465,1.0680412984263896,1.224183344688782,1.102466236222557,2.7724810870871517,4.578791022862055
1570180074319228.0,2.291908196430262,1.4110572454263415,1.1533818204907065,1.06439574523283,1.2243159966632144,1.0994883407704228,2.7754675147188856,4.567385187670717
1570180074319228.0,2.292489513989878,1.413189689076954,1.1508911765947574,1.0607485010002387,1.2254170323055442,1.0978064015738294,2.783692284656951,4.567305414239946
1570180074334836.0,2.2975501432625616,1.415558470806733,1.146651728638252,1.054697349023238,1.2263016992670925,1.0997991672272698,2.792700080553875,4.583560002982056
1570180074334836.0,2.3059256909774004,1.420219159425651,1.1381887380598594,1.0467031729341019,1.2264678074084978,1.1046699296345064,2.802335249908018,4.610782726789052
1570180074335841.0,2.317922021459262,1.4290790906959823,1.1265104374710162,1.0375111948453375,1.2275160197284796,1.1102858702471514,2.8158098077454663,4.640495945507223
1570180074335841.0,2.3303791593215206,1.4396558340546026,1.1111658331949184,1.0310172469002796,1.2284979935428308,1.1170562438341616,2.8338691117854604,4.654244969326252
1570180074357172.0,2.3452304460283244,1.4498583690777203,1.0938037174408213,1.0245362858949951,1.2265427154451078,1.1256748390797946,2.8552210640393105,4.658672460692442
1570180074357172.0,2.360661674776947,1.4586404524292644,1.075069343957243,1.0189110671827313,1.222123586258146,1.135855155120883,2.88096633262552,4.665008610990473
1570180074358980.0,2.3763269506749447,1.4681779424205406,1.0581774632641392,1.0129571386685474,1.2180546486780701,1.1461356275656218,2.912671681164937,4.680919950717708
1570180074358980.0,2.3847565750916715,1.4767601999042388,1.0438809126792088,1.0096381257085016,1.2139515955115092,1.153729019309058,2.9435719409901964,4.683866012528261
1570180074370175.0,2.385780114843538,1.4848248650395577,1.034473104402355,1.0085772373464967,1.21225445596438,1.1574543779531545,2.9690437008395,4.658785057192759
1570180074370175.0,2.3817210949109313,1.4916985898017392,1.0278263688884113,1.0100878346297457,1.2144525023314532,1.1589016121628701,2.992722447189852,4.618661612138621
1570180074379110.0,2.3797486793037588,1.4977499188733496,1.0242361922205263,1.0106581233432432,1.2200645425986203,1.1589340773630965,3.0176251017970905,4.591372111104294
1570180074379110.0,2.378369946222915,1.5034414182692621,1.0236399902794797,1.0127752371467273,1.2275260972548094,1.1575114083899676,3.0458334665789373,4.576363819138919
1570180074394355.0,2.37750922647514,1.5103858718492145,1.027417252610003,1.015365138211258,1.2352508312416546,1.1535809116144886,3.0756651828727293,4.572700078423808
1570180074394355.0,2.374619211127073,1.518258798038863,1.0334875938829722,1.0197925215120434,1.2413463867181602,1.1465529937469208,3.099020843730316,4.573361561060366
1570180074396348.0,2.367162589584581,1.5298151415872887,1.0413964613941435,1.0239294850676395,1.24647141758963,1.1376434360550998,3.102889700958827,4.565061454290076
1570180074396348.0,2.354392874165478,1.5438011880266327,1.0483622851415186,1.0283357072471149,1.2516916106728189,1.1287362062889574,3.084114826272983,4.534507024799627
1570180074416554.0,2.3472258992008794,1.5585628840526453,1.0568170853995178,1.030872397604625,1.2572258183366867,1.1193731139098646,3.0612512633265774,4.502244566082651
1570180074416554.0,2.3432057007278018,1.5721558245054317,1.067185241842196,1.0339018334307422,1.261007216000726,1.1078050081348498,3.0439063886033244,4.473384917963538
1570180074418433.0,2.3373947334218625,1.586692681813673,1.0804243590337361,1.036826174402197,1.2620707913750715,1.096336648515352,3.0277195293206622,4.450713769058551
1570180074418433.0,2.3262587910298667,1.6023015494030197,1.0932170760973898,1.0415764869908617,1.2606544927158307,1.0875326831728334,3.0131098704186847,4.435158423815857
1570180074430445.0,2.3128095440319254,1.6176201914739639,1.1049690377473238,1.0447683447174312,1.2585127492462949,1.0799316813442212,3.0047736777296112,4.4292502744679325
1570180074430445.0,2.2946806783907046,1.6292051776329937,1.1134267102878195,1.0469797961129443,1.2548709181181552,1.0726205339561015,3.003376850118154,4.4258563009629714
1570180074439236.0,2.2749635097182184,1.6382836156635994,1.1214320665203155,1.0480473005968722,1.250098851429066,1.0654954822175091,3.0065377999287386,4.428172362185895
1570180074439236.0,2.2564582071465145,1.6459899459553473,1.1293713256395683,1.0525137251362826,1.2455810296205643,1.0575526289129027,3.0139903606491165,4.436583324545949
1570180074454647.0,2.2412365342421214,1.6529558555847994,1.137900922694767,1.0577484538137825,1.2424148203698453,1.0479938758856104,3.023278122658932,4.448004235266291
1570180074454647.0,2.227700811084103,1.6563150563937132,1.1457560461097713,1.0635264091652044,1.241331721749815,1.0381290440768423,3.0299919467805907,4.4515662737993695
1570180074456258.0,2.2191257825069113,1.6577346401650737,1.1535168730923924,1.0688690380101853,1.2436699887234122,1.029929089152496,3.037357459315605,4.4542331326964035
1570180074456258.0,2.2137441500449784,1.6601915732537305,1.1581705077101343,1.0759186081346244,1.248191820021586,1.0251772291350705,3.050722016231152,4.449766301468174
1570180074477283.0,2.213692172083561,1.6637751797261326,1.161182231351636,1.0815164951387393,1.2531408709127771,1.023331801630197,3.0682042608632925,4.439281564809387
1570180074477283.0,2.2173390741013215,1.6657623368165375,1.1622944907395905,1.087281769487402,1.2571191289771664,1.0223837241815776,3.087083604902265,4.4284584578979365
1570180074478273.0,2.222667797331718,1.668123462743002,1.1652414096757275,1.092784785444115,1.2586723221280745,1.0226079643811088,3.109583145715545,4.429108613981435
1570180074478273.0,2.2232387020826976,1.671153024346673,1.1692862384082663,1.0999179681021933,1.2546230920641284,1.025885759350166,3.1362473121793064,4.4365795916442
1570180074490273.0,2.220383824090095,1.6731765779336227,1.173793556897813,1.105284043374205,1.2470844385696584,1.0316684784161407,3.166458367352984,4.448989361290247
1570180074490273.0,2.2097039205623137,1.6694739736210453,1.1761598789597172,1.1094439007546153,1.239735515044591,1.0386944898930641,3.1869622825762915,4.458300637671652
1570180074500483.0,2.1928505331363315,1.6635845917436147,1.1792296461823615,1.1120221648926776,1.233575611987419,1.0437488081703432,3.1830171399748077,4.461449846898812
1570180074500483.0,2.1779130005436036,1.6597797355331927,1.184308623713062,1.1166054509377568,1.2278657323434503,1.0448313457633593,3.1656006931756906,4.453375818111146
1570180074514172.0,2.1715958212083897,1.6578663366452473,1.1919342309738652,1.1215296176688778,1.2231829791607522,1.0454698176081687,3.14854773580254,4.44759496672613
1570180074514172.0,2.1678266598556943,1.6554516586843377,1.1990661278531642,1.1275455624791695,1.220434693969126,1.0472071627838901,3.1308928145354136,4.438008761393349
1570180074516166.0,2.1639700992887607,1.6521908501910656,1.2049330542884573,1.1306544801966045,1.2206799362837804,1.0488662823722883,3.107617400374907,4.42502789181266
1570180074516166.0,2.1570461034576422,1.6472914124743967,1.2079755095095466,1.13184003179282,1.2217168462032044,1.0506361129488004,3.0748757956160615,4.4094569420789105
1570180074537290.0,2.151097345480032,1.642333037459804,1.2121729459318515,1.1304922079160813,1.2219203768899003,1.0533879044278367,3.036448452486204,4.393246118572419
1570180074537290.0,2.148458449993825,1.6346965080406894,1.2160310913269334,1.1298595304567627,1.220717857916689,1.05673643342184,2.997738138806269,4.37979687072682
1570180074538275.0,2.150544037477386,1.6241521941980233,1.2200400867150851,1.1298857096681652,1.21822051004858,1.057669465749292,2.9583519777151905,4.380280652221927
1570180074538275.0,2.150338597313399,1.6134982242643823,1.223864133229187,1.13199525024508,1.2156121916841722,1.0558489178265713,2.9209037597817322,4.385976152284923
1570180074550077.0,2.150073266889629,1.606643429976807,1.227510054329451,1.1327490581745656,1.2150080274412154,1.0524091868870908,2.890094882304188,4.396762613754736
1570180074550077.0,2.1527135734578144,1.6024023869837247,1.2269368953206095,1.1321851886183796,1.2161751755946204,1.0485093149824654,2.8639015256117633,4.408255088541323
1570180074559283.0,2.160354938003155,1.5993101309655435,1.2234720007961748,1.1286661641583242,1.219285822934694,1.0458439772193209,2.838269243111544,4.419242756198571
1570180074559283.0,2.168193033745746,1.59598217856389,1.2189266795269926,1.124612814887444,1.2215313682783409,1.043057805372409,2.814053837762059,4.428161432659579
1570180074574010.0,2.1754151902280876,1.5928966704939638,1.2153715486179395,1.1199945661305977,1.2220478174795824,1.038387057219841,2.792277781253357,4.443827443271461
1570180074574010.0,2.1806536176809725,1.5882824728562563,1.2102721140277517,1.1182261098720905,1.2232350567393255,1.0331179940062696,2.766148908914336,4.451658545311154
1570180074576007.0,2.185851861273687,1.5826978950464352,1.2052407834517118,1.1183807037879705,1.2261883822369606,1.0281153968194359,2.730205918940929,4.447998421350835
1570180074576007.0,2.1896899607584803,1.5760473956851593,1.1987766163137104,1.1195471540195752,1.2298232527298445,1.0243076980144388,2.692691576493266,4.441018259966042
1570180074596952.0,2.1973715988231244,1.5695757386384626,1.191724881016229,1.1180995254648503,1.2339154906298053,1.0212533562004726,2.659669796194724,4.441282474980625
1570180074596952.0,2.206619747486474,1.5641171796110929,1.184614023629365,1.11780392978875,1.236964807436451,1.0160690198999451,2.6262753515543644,4.436524297909629
1570180074597946.0,2.2172034485810506,1.5613649807858492,1.1800000455964077,1.1177613046393036,1.2392013918604816,1.00928831909041,2.5919961887817626,4.4320391629071905
1570180074597946.0,2.22491960968357,1.5590920077698123,1.1756954193022395,1.1168110338026325,1.2410827166446017,1.003857344710107,2.5616844773460894,4.432740085223645
1570180074610911.0,2.2309032025423496,1.5565256144919295,1.1722877550801651,1.1125449093916189,1.2440705250484994,0.9994192741823779,2.5354828171154593,4.442137015933108
1570180074610911.0,2.237036944133877,1.5543766533746606,1.1695693051893892,1.1072639595780345,1.247646511992458,0.9961215058549027,2.511318117946443,4.454954591505469
1570180074618947.0,2.246401482223087,1.5547216389432303,1.168177104261871,1.1000276377334341,1.250713189056698,0.9956590690986098,2.4919680939207907,4.47603815126029
1570180074618947.0,2.2552628117189184,1.555467838194504,1.166933360499721,1.093975124524471,1.2528396453009802,0.9964298633183538,2.4798047945766255,4.496367176151004
1570180074633903.0,2.2624019191054616,1.5562809990868591,1.1663048158764941,1.0894333708480781,1.2551431477996131,0.9935560246901329,2.466181540690566,4.512635804453639
1570180074633903.0,2.266967620646214,1.5589571670860154,1.1635207648438202,1.0888541562826313,1.2584300990073092,0.9870901208499119,2.444522355147461,4.526275514316847
1570180074636128.0,2.274970040867399,1.5655728556113586,1.1609113531373294,1.0892297740782066,1.262876830990111,0.9821111226980724,2.4221620901730527,4.5534775968801116
1570180074636128.0,2.2832975474602915,1.573523809330156,1.1581365860866044,1.0899828022896987,1.2667655128657553,0.9799397149486401,2.4033255009761403,4.588969668354395
1570180074656790.0,2.2900315173470895,1.5824125266506022,1.1565420584015338,1.0894133608494698,1.2707121260525251,0.9781955510486925,2.3870378106011327,4.627234324012387
1570180074656790.0,2.292939224912556,1.5910461445051316,1.1561663831117739,1.0903637653468872,1.2758919745749921,0.9750764313783206,2.3753123377331367,4.662911316694833
