timestamp,emg1,emg2,emg3,emg4,emg5,emg6,emg7,emg8
1570181898232722.0,4.279248487332163,1.7713750203630205,3.2584911635019074,1.128212696747669,1.5450638348293326,0.25499225141839366,0.4208266668144671,8.380447362959885
1570181898232722.0,5.3336078546775445,2.582023239434952,2.758804537464113,1.3526786173357748,1.5624530547628703,0.22676548675756156,0.585302343273864,9.219630528162995
1570181898233720.0,5.400184379601419,2.558165794043645,2.7568772080483392,1.3671205781353684,1.5567961956216205,0.260659402001443,0.6216723459807104,9.344244991545827
1570181898233720.0,5.759723182681446,2.8210989850708565,2.5960193554673903,1.4485012527608851,1.5642792269997323,0.42282815868161233,0.9534914526598695,9.67125878180469
1570181898234923.0,5.789155326170176,2.8020904277747376,2.600967783529732,1.4566877952014223,1.5650586084800844,0.45131084275804445,0.973267987595946,9.751282146383858
1570181898234923.0,5.999054050082219,2.9572288286128674,2.510606752414811,1.504716133695802,1.572980317472786,0.5536258755497463,1.1660680221617024,9.950339133455936
1570181898235675.0,6.01547365879684,2.941550968513351,2.519642592851808,1.508088346269555,1.5740810882867686,0.5754242665191374,1.1767520216420264,10.008146153810562
1570181898235675.0,6.160327649664871,3.0483101031822777,2.4597652524660805,1.540803503670214,1.5788349689632273,0.6480616917921145,1.3120795684654045,10.151030803359593
1570181898252844.0,6.169612585517332,3.0340705431261807,2.46968299348749,1.5438397774408246,1.5787346475277027,0.6661773245417477,1.3189530577114728,10.18940042009624
1570181898252844.0,6.281669417588865,3.1171980991510533,2.4249733702646274,1.5692749738028675,1.581183722070691,0.7240559048886676,1.4201133368681569,10.289730607367941
1570181898256664.0,6.287509164134065,3.1074011226930938,2.4356699942708255,1.5698619831065168,1.5812232223002705,0.7403159152570915,1.4207139185220798,10.306418857200681
1570181898256664.0,6.377360481860583,3.177008218450678,2.4033267999040118,1.5878656436708987,1.587213560307512,0.7884592082738129,1.4973193010690966,10.37968287489684
1570181898264745.0,6.385698811963035,3.1689171950004758,2.417405629543912,1.586827847642968,1.5917270838537871,0.8012951622254828,1.4981583100166878,10.391137425173106
1570181898264745.0,6.469196434633687,3.2276035195621007,2.3944399135710492,1.6029312937179494,1.5982064716762328,0.8388299016434837,1.5664270243787006,10.447902412307547
1570181898270682.0,6.484950479893156,3.220288290230899,2.4103647756304136,1.602728805336095,1.6028422242500613,0.8484832230796648,1.568639519067374,10.453741080419052
1570181898270682.0,6.56395271025693,3.2704054639834435,2.390908793979715,1.616057919598553,1.6099687574445312,0.8797660483294891,1.622774152052667,10.504640121969825
1570181898286585.0,6.578549992957083,3.2644126751479856,2.401231815163576,1.6162655330329996,1.6136940037731435,0.8872159315823314,1.6175518443007062,10.516074081116816
1570181898286585.0,6.647181484866676,3.308819402957752,2.382454958109831,1.628560334747425,1.6171282894254442,0.9129145467029139,1.656194453545192,10.570530792579188
1570181898302538.0,6.66778948992232,3.3030470856045793,2.394640737860152,1.625928545562231,1.6179556810577937,0.916751380003966,1.6445160747106091,10.584494090207912
1570181898302538.0,6.742010174210377,3.343946738594695,2.380727095463592,1.6313380073373553,1.6226583121033635,0.9389015477656865,1.6750816862029503,10.624538057004052
1570181898304532.0,6.768597969230076,3.340616963754172,2.393770091638481,1.626054258613876,1.628548057277698,0.9454509313450485,1.662968489210003,10.630386425198875
1570181898304532.0,6.837184345384593,3.3755630173587146,2.3827389167953017,1.6339461142462022,1.6363648114649934,0.9675861612944417,1.690646950335615,10.672016758814586
1570181898349739.0,6.859379231460608,3.3663485233663137,2.393163437113325,1.6357595537051195,1.6413414344600923,0.9733704613898526,1.6833899486291761,10.67555795624555
1570181898349739.0,6.921148285634606,3.3939793669487854,2.380171688482554,1.6484592243975267,1.646537322731611,0.9920676155301476,1.7118771647557443,10.691411136295484
1570181898350412.0,6.944445214908264,3.3859778534353353,2.3893149609435036,1.6511296584471118,1.6496708412064371,0.9943470227549335,1.704412988951343,10.677286088980113
1570181898350412.0,7.0028373356113525,3.4134441011952794,2.3783928030248505,1.6613114873854455,1.6533125298643967,1.0056016116635913,1.7262921703146583,10.698347997864625
1570181898350412.0,7.02159115400494,3.4080477588266316,2.389597003200104,1.663739215736848,1.6546132392601025,1.0006986308968429,1.7179699953318108,10.700235841159973
1570181898350412.0,7.071061053193305,3.4362687812235118,2.38556298646256,1.6739162168613877,1.6576511732421544,1.0058748412485388,1.7410823696342215,10.722924543020635
1570181898353649.0,7.0814406014532185,3.4338370283684343,2.4019329621682006,1.6770514644539605,1.6615676527105587,1.0005707918503721,1.7369702612934788,10.716077832608674
1570181898353649.0,7.111542164804526,3.460478071343643,2.401284674258777,1.6882254896906537,1.6681799318556638,1.0079463840384086,1.759056981019334,10.717146650776431
1570181898362379.0,7.095915053436242,3.4577792723237177,2.418421482130575,1.692457301816699,1.6745589444929407,1.0065389582126658,1.749992368320606,10.669804097738607
1570181898362379.0,7.096017396995235,3.4835846259873673,2.4183413133259846,1.7032566009724812,1.6821970489642635,1.0165030152755898,1.7621406987191168,10.622599558731553
1570181898368361.0,7.061893199527937,3.4816192889717685,2.434726075691329,1.706534328991525,1.6875589919528569,1.018356098801226,1.751422977235119,10.561219264423634
1570181898368361.0,7.060818414898676,3.505933508597819,2.4370052290950777,1.7137176364605562,1.692535483191538,1.0297138458136408,1.7671683247475034,10.540675949854922
1570181898377337.0,7.04523663769856,3.50570065613977,2.4560622507899077,1.7114175538415848,1.6976313508373828,1.0303051405689272,1.7616802737137052,10.520345623959665
1570181898377337.0,7.065223061659934,3.5286936825567987,2.461523856088893,1.7123787275779474,1.7048719769121143,1.0382945665967116,1.777527385533499,10.533619299654498
1570181898391399.0,7.064326567490097,3.5257122393829383,2.4828639828477885,1.7059740412136242,1.7106902305487235,1.0368249830081115,1.7696634997715857,10.542620900186193
1570181898391399.0,7.087889123345023,3.5442932923146326,2.490012748040103,1.704538746298965,1.7172876863756212,1.042883676415549,1.7797929012228384,10.57724208799326
1570181898400280.0,7.0834545940345786,3.537826947523662,2.5102276852151424,1.696116399043356,1.724202664942,1.0397842837024922,1.7690419208186514,10.597780015614878
1570181898400280.0,7.095222970148361,3.5541759495786294,2.516175794413505,1.690864860448948,1.7330387933384723,1.0454649781821284,1.778774710771307,10.630412964037376
1570181898422377.0,7.0784233727255295,3.5503949928839704,2.5333600805518253,1.6808558951441892,1.7414940830267738,1.0471478169375243,1.769838098084628,10.634962652503251
1570181898422377.0,7.084058709370493,3.5670936165115394,2.53638261276697,1.6791454877478285,1.7505658579930445,1.0599973428114944,1.777754426849357,10.646070575992075
1570181898424249.0,7.07571551213286,3.5623760643391575,2.5512365863816706,1.675876792192399,1.7575256533155008,1.0679409620556681,1.767586062465168,10.646009058699986
1570181898424249.0,7.090531970045391,3.5766757148424886,2.5542256509781605,1.6778569669153518,1.76398533269295,1.0851145683984824,1.7776951144292124,10.668781745933149
1570181898436262.0,7.082100303640702,3.569696485821616,2.5681951476383618,1.6729275325732371,1.768934064411218,1.0966084825418636,1.7723907698703592,10.684155182565092
1570181898436262.0,7.083899632419405,3.5808315555106973,2.5673135057021295,1.6711536232211774,1.7740813907331527,1.115793923128082,1.7855804833235174,10.716386273849505
1570181898443167.0,7.052871238230045,3.573198858579798,2.5748299071513894,1.665811234049592,1.7781768742204587,1.1275645194246977,1.7833563079303436,10.731903016659025
1570181898443167.0,7.0347910907172855,3.5851149190232907,2.5713788578970016,1.6669826180288363,1.783101265970823,1.1451092541449102,1.7954367289731943,10.762432633769459
1570181898460401.0,7.001615770014343,3.582507840894147,2.580927826146733,1.6651610578420117,1.7883741466637086,1.1555222310194466,1.789402333709342,10.786530080401562
1570181898460401.0,6.990914490244707,3.600397820446933,2.5828615945493514,1.6674016255340565,1.7948338609811252,1.171749594261846,1.799660746368015,10.825484440663384
1570181898461729.0,6.96483255122305,3.601362819540163,2.5977100164687283,1.6655170491099633,1.799603081596418,1.1812725334033969,1.7973114262652927,10.846401510293594
1570181898461729.0,6.95951013708282,3.6185555222175942,2.6024588118187966,1.669042035679912,1.8042077635917295,1.192949779893146,1.8112487151258088,10.87654996082312
1570181898482205.0,6.944136558260661,3.6172849661625897,2.615918571659353,1.669390427946387,1.808195179718246,1.1937171474829151,1.8096945928344752,10.896602245313517
1570181898482205.0,6.9526752144350565,3.62790200285804,2.6188231783739915,1.6731310923228229,1.8114302575384365,1.1973644731217923,1.8192977276610296,10.922998662885092
1570181898486083.0,6.949247855101736,3.6206625543376685,2.631543622058757,1.6724643894453333,1.8114816055729916,1.1941893807657502,1.8127797545478135,10.920602590595957
1570181898486083.0,6.9645518434566736,3.6304772501684,2.635932309498558,1.675922609371678,1.8102926130221773,1.1961652463012153,1.821185597693444,10.917832410558896
1570181898497092.0,6.971306739648675,3.623984420315792,2.650344795002279,1.6769890986266154,1.8078697701096007,1.1931331422937663,1.8175264727139637,10.906668111956437
1570181898497092.0,7.000931292416118,3.6317019073051866,2.655615575307793,1.6827106401305247,1.8070610811172156,1.1951224074938325,1.8276950179492026,10.911936271515232
1570181898503006.0,7.018038697834723,3.6270980909329555,2.6689768816414223,1.684660903219004,1.8076760665302216,1.1920850937736864,1.8268666698975957,10.907465914029599
1570181898503006.0,7.047913417379188,3.6383544193223796,2.671473256537527,1.6909344346097608,1.8098400419121314,1.1941244650139593,1.8403390156976815,10.909332101725175
1570181898519962.0,7.057557153902521,3.636018815945275,2.6799698451970135,1.6945321506159512,1.810511453317466,1.1925516375760963,1.8413554775384167,10.897826114728103
1570181898519962.0,7.075182057765971,3.649084136141886,2.676405330484316,1.701811043566851,1.8101126655516246,1.1964016063998089,1.8578295171741757,10.900307566179352
1570181898521700.0,7.067877273844482,3.648605610799986,2.679233506504448,1.7049447638370239,1.8093500056448308,1.1941001365570985,1.8661908970954997,10.896250612441928
1570181898521700.0,7.060751930716515,3.6624238863485337,2.6747778485408626,1.708833439057169,1.8102277608587485,1.195655123113209,1.8899028664959896,10.900656322580813
1570181898541984.0,7.035192608610583,3.6627614286622294,2.6810537118839073,1.7076175007844296,1.8099643354283126,1.1935626540679851,1.9031939034589302,10.894957889908431
1570181898541984.0,7.027282203687304,3.674342747280709,2.6823420346328977,1.710127253993334,1.8080938925358245,1.1948676155898048,1.9280529873536505,10.898950710989856
1570181898543893.0,7.009778016044588,3.6703920718975844,2.6939039685376067,1.7106475844120077,1.8039495193424726,1.1915473123242035,1.9394996246782543,10.88203409385261
1570181898543893.0,7.000225211379025,3.6777253023980245,2.6992065394832068,1.7166177111044174,1.8013621435197795,1.193888653894644,1.9575365133426088,10.845788895945157
1570181898557016.0,6.9749841616070345,3.671807720037372,2.7109678604735743,1.7222819218978336,1.802481074881209,1.1924497598039216,1.95980028157614,10.788383609781453
1570181898557016.0,6.964393281750604,3.6786471038546464,2.7135763210841435,1.7322018031691877,1.8086807438697399,1.1953092994361407,1.9732986804456434,10.75235380391546
1570181898563896.0,6.9369488566451665,3.6746699887105754,2.724513138958731,1.7374818925646742,1.817297600086933,1.1958728373436625,1.9748954858957912,10.707004153615742
1570181898563896.0,6.916447313599846,3.6841347986994246,2.730539809892497,1.7445096049583586,1.8270270270435782,1.2032929416859166,1.9832594720532108,10.660145607529477
1570181898579845.0,6.889451789818082,3.6826414773163045,2.745832360875403,1.7483931738841343,1.8361146577689271,1.2085581751715404,1.9804667454327494,10.613474769422803
1570181898579845.0,6.884131387536471,3.6939725037104068,2.7537058030952486,1.7537658276227865,1.847188372116319,1.2164634818894726,1.9892953155529594,10.594307907799807
1570181898581792.0,6.875390809776678,3.6951158332285927,2.7666586812209197,1.7564655214215654,1.860122122354762,1.2181241167974515,1.988663584745859,10.578931744928685
1570181898581792.0,6.883407899429151,3.7099569857683568,2.77094331741716,1.7644868514833,1.8742643683622724,1.2237431777477599,1.996741030395307,10.575560263267471
1570181898602737.0,6.880053468050285,3.7151324925229297,2.7825465209909743,1.7701255119431456,1.8884822209935674,1.2261395254301484,1.9925715346144188,10.55967183266355
1570181898602737.0,6.8857589830394135,3.732702819833438,2.7887345019143903,1.777245443803413,1.904574614357981,1.230078724578818,1.9957093516237512,10.544321236070255
1570181898604293.0,6.88238337937029,3.7402118079942968,2.8019308953903934,1.7807319369609007,1.9204509009084938,1.2282398551105755,1.9906453820832768,10.526977576858176
1570181898604293.0,6.89336919651014,3.75722873661692,2.8091232341947965,1.78697711941585,1.9344957056326268,1.229812528095162,1.9992006101428683,10.53302559358521
1570181898616702.0,6.888110114441106,3.7605377179844908,2.8226865185942707,1.7916604177640634,1.9464047253813745,1.2285452097735259,2.0026221181733885,10.539555957647368
1570181898616702.0,6.884267759142785,3.773486563569689,2.8302434250259356,1.7999491239727805,1.9584274867604237,1.2324812687483495,2.018582040765636,10.552699163283581
1570181898623997.0,6.872146622064753,3.7752954578273785,2.845856803736984,1.8059628667534644,1.9692037085410652,1.235468000612642,2.0268063072983806,10.561769903493929
1570181898623997.0,6.879247024488788,3.786483843956129,2.854627305342783,1.8142237369743497,1.979884231160873,1.2424747299438232,2.0421009747107224,10.590294266177782
1570181898639881.0,6.8805560394883996,3.787828225198576,2.8693322804428036,1.818783490870135,1.988974257328521,1.2447324847504446,2.0471831741758955,10.619872856096
1570181898639881.0,6.892503462102509,3.8001059192389626,2.8794869313040525,1.8249406973026268,1.9973160283684674,1.2485044863799941,2.061206115975638,10.658729936077838
1570181898641633.0,6.894292860573692,3.803212433788914,2.8952639109214298,1.8262651700573378,2.004724192961398,1.2463957466763271,2.0676739799458415,10.690036013999158
1570181898641633.0,6.897683942208056,3.817808518116777,2.9029841711894444,1.8282431923418017,2.010165593226462,1.244238739578009,2.0838353554388447,10.716049313598095
1570181898662575.0,6.873602552785208,3.8231686076072493,2.915015484054473,1.82812258971671,2.013312238012148,1.2376206859008896,2.0923396012039874,10.707193398875154
1570181898662575.0,6.854536417965042,3.837433714601355,2.9200389240445324,1.8313523669401566,2.016976287918953,1.2351747225795313,2.1063833218884787,10.690701738734617
1570181898663937.0,6.838119763915371,3.8415648923797336,2.9297190059294427,1.8337183870550582,2.0206097365921156,1.2319521339619863,2.1087392025622886,10.678563876320263
1570181898663937.0,6.83902584659131,3.8551909957908843,2.9325594790702314,1.8394085588249456,2.0250573142354416,1.2338698440368963,2.116616407817529,10.679902977520726
1570181898675843.0,6.82895239716671,3.8599405374791735,2.939445318075473,1.8419397306862972,2.0303638555386057,1.2342114885183437,2.114868542582477,10.665832994368243
1570181898675843.0,6.826499292729768,3.8752764034641594,2.9380828793431495,1.846006250240892,2.0365461855521403,1.2383261410126851,2.1165641818832137,10.654528466305214
1570181898684580.0,6.8163441419791555,3.8818016664183808,2.939331134591699,1.8495237983373467,2.0413064652882857,1.2391565129017328,2.1079773508913773,10.641846966130485
1570181898684580.0,6.815474064573854,3.896481247304856,2.933955910105912,1.8573852310991634,2.0452444389218796,1.2427248976569019,2.1049243999426643,10.639854728216841
1570181898699571.0,6.805164916545994,3.9015257314424163,2.9351673353387113,1.8644653765060175,2.0479601263448957,1.241449784186563,2.091046257626361,10.630978712731178
1570181898699571.0,6.802928996576659,3.915448496500432,2.93348288574182,1.8754307631158424,2.0498968252511696,1.240128145361465,2.078058032834442,10.61737777821763
1570181898701566.0,6.789905996465624,3.921104124373414,2.9394092421635962,1.8840477801057567,2.0495797535506797,1.2362741289715904,2.0518817326152057,10.578591964626293
1570181898701566.0,6.7867760928781005,3.9371707552534208,2.943014761600498,1.893411566055139,2.048640065980674,1.2378525222642252,2.029250361559303,10.539394713799819
1570181898722596.0,6.780295521866456,3.9461606257055895,2.9542846837629977,1.900056270909535,2.0481359685395657,1.2388746171049494,2.0023535951528144,10.508776564238818
1570181898722596.0,6.783349762102072,3.9630273577321464,2.960345292020172,1.9100517624138185,2.0466036775076706,1.2446722423008558,1.985019190194934,10.497231249565761
1570181898724411.0,6.777208942222916,3.967162377571519,2.9691982935123393,1.9194381690087323,2.0428928244198983,1.249797761475976,1.9653959923737516,10.48361892549949
1570181898724411.0,6.776753884640003,3.9744779701178947,2.969839434808275,1.9306616193771284,2.041047862914802,1.257696843714963,1.9553945104310948,10.47440042183908
1570181898736378.0,6.752855201900633,3.9728352249929144,2.9748715337399614,1.9385005621938507,2.0420650585120876,1.2624862477269625,1.9390795142049695,10.437844093177503
1570181898736378.0,6.718013093673374,3.9830637216045903,2.9784094969038675,1.9460610226712833,2.045976248218271,1.2720828665895882,1.923195615654487,10.374377541742273
1570181898745360.0,6.67481206395289,3.987762750573357,2.9898271923283604,1.948958634006021,2.0497284342005937,1.2800636188794927,1.8935399547979723,10.301303232730353
1570181898745360.0,6.655022235195568,3.9998398879192343,2.9980083897984264,1.9532498593640104,2.0517834052450388,1.29010979617212,1.866434919588874,10.261731410698893
1570181898760314.0,6.638884320864127,4.001372477393022,3.0120834400334817,1.956437507653434,2.050882673045793,1.2980985660596127,1.8361567855837113,10.241731972964098
1570181898760314.0,6.633663818236542,4.007736443170843,3.0223380775614506,1.962075497137218,2.048600760938905,1.310660855582414,1.8171182965674708,10.242077555625567
1570181898761314.0,6.622818899625067,4.004271089810234,3.0380991625498015,1.9628708093975749,2.045638989310841,1.3214372285464004,1.7960580372200716,10.2502076595402
1570181898761314.0,6.623766935108188,4.009412125836789,3.0479622782916698,1.957904705984334,2.041679363326826,1.3324822206849964,1.7831037427265497,10.277295277048013
1570181898782424.0,6.620951676264734,4.007364496574208,3.0596271835179194,1.9437274132221034,2.035772447107781,1.3367592112089635,1.7660222845184925,10.306136969711458
1570181898782424.0,6.63216554198396,4.012484673728135,3.0639513076567995,1.9298090219955388,2.0311945993011564,1.3389145184720195,1.7544728231294013,10.342787520776236
1570181898784341.0,6.6438939241533665,4.010439818659339,3.069226771646909,1.917090811029581,2.0301909596120975,1.3349443819060849,1.7383246708831483,10.379607072471218
1570181898784341.0,6.669396637291564,4.015929952049355,3.0665810410306733,1.9112557323854344,2.0335117081033105,1.331507123772405,1.7329504403757106,10.428546400170717
1570181898796271.0,6.689476701578922,4.0150670132913,3.0665354223634744,1.9080699379203265,2.0383234151003737,1.3241205381198846,1.7248920862110018,10.475646972463206
1570181898796271.0,6.71806495095823,4.024861496790535,3.0603061993106007,1.9080620061827573,2.0419251225912576,1.3199009074231944,1.7244887772112905,10.53046001610484
1570181898805204.0,6.740424994574126,4.02969951285016,3.0577851396863784,1.9053602880003222,2.043091579667678,1.3165960324992643,1.7213574519100556,10.58150400637534
1570181898805204.0,6.76926775272326,4.0430161509302796,3.0528822137381666,1.9056170945276572,2.0443186417976706,1.3163104305092141,1.7273106748371998,10.639265042183077
1570181898820265.0,6.784087608552951,4.049122257605404,3.053824560148995,1.907433771727019,2.0456468098984115,1.3127244011672587,1.7295752762134706,10.6889091119529
1570181898820265.0,6.790426725326,4.061195308793475,3.051137943363789,1.91236037651237,2.047474192274232,1.3095790299235888,1.739005025862135,10.726948727170845
1570181898821754.0,6.779526586656598,4.06699482870699,3.0525356175519733,1.9153831488174142,2.0494106099254297,1.3018743929172,1.7443391694686856,10.743741684366686
1570181898821754.0,6.783749306834037,4.081798738211554,3.0486606470037194,1.9211912577081711,2.0521318689810046,1.2968658217580746,1.7575953308856034,10.77011428432419
1570181898842096.0,6.794032816172164,4.090561412178902,3.0478654854415703,1.926413546512639,2.05560228637332,1.2923313976212039,1.7656137786215393,10.806494669403742
1570181898842096.0,6.81995468924006,4.1083064195939425,3.042316232642687,1.933904008964906,2.0613054526519297,1.2921922400210437,1.7813290290664874,10.857771168257397
1570181898844090.0,6.84439876058132,4.121272472210078,3.0428250134548547,1.9396239043046586,2.0684431307801217,1.2914380228032172,1.7936788654850504,10.904210878049051
1570181898844090.0,6.879574170336316,4.141317373568733,3.0437968797397215,1.9456614169776731,2.07690485774135,1.293654122095477,1.8125932212105622,10.955899801571968
1570181898856061.0,6.909839542712265,4.154382945804354,3.0507086328060855,1.948422833850121,2.0855529512066533,1.2932107777043915,1.8243409654663845,11.008170140633727
1570181898856061.0,6.947230083778865,4.174092933794019,3.052916623367802,1.9534890777270675,2.094203426058067,1.2937105013220613,1.8409765493254748,11.06835555663277
1570181898865141.0,6.977544793464126,4.186758491214709,3.058226565543768,1.9590130440154223,2.1035361605729554,1.290533334689354,1.8516430677959521,11.119515272472478
1570181898865141.0,7.011601975761908,4.205150768802858,3.060900115238609,1.96820794823012,2.1145708366174327,1.2888464606172598,1.8663731956186982,11.168820833042927
1570181898880192.0,7.031747355016847,4.215204416047369,3.0701189583999744,1.9776431923960704,2.124342196112194,1.2852150747743887,1.871010713150861,11.204314182137509
1570181898880192.0,7.050598873961432,4.230555735942894,3.075326057614287,1.9891032573479301,2.1312102045652055,1.2835525315662957,1.8770777816841988,11.23291033347806
1570181898881179.0,7.060226471542492,4.238760855342687,3.081558176045964,1.9989654434094166,2.1362427270933986,1.2795177608934367,1.8765857288303185,11.254750944135889
1570181898881179.0,7.078388316784988,4.25335296573856,3.0822963767260467,2.010656354343416,2.142817755480794,1.2765333013673206,1.8852709340487401,11.292943564687508
1570181898902244.0,7.089540938121675,4.261650063968126,3.0869211156518817,2.018749083084135,2.1502256324766003,1.2715435356024842,1.892274601850917,11.340403005919551
1570181898902244.0,7.107435413495905,4.274854924817681,3.087811981516707,2.026509928306981,2.1576213604058743,1.2696272692608728,1.9050797463633067,11.398301431968921
1570181898903929.0,7.121121666930368,4.282179339001218,3.0918757028548276,2.0319906919475113,2.162990958840244,1.2677576982532275,1.9109898371968321,11.44803363851367
1570181898903929.0,7.143452749695096,4.29935905454973,3.090831187429498,2.03694955725668,2.166648731872357,1.2705200256290035,1.9226699147985524,11.49745656791481
1570181898916118.0,7.164223665727358,4.3121214897825375,3.090107690065133,2.0369873529597373,2.1703468474958667,1.271324032736273,1.9300232476110168,11.546256698442907
1570181898916118.0,7.195800301959781,4.330279095035949,3.0833270636186216,2.0355875708921536,2.1738349214150903,1.2734001757584523,1.9448319988575329,11.609404855578521
1570181898924886.0,7.224341832595969,4.341195458556797,3.081630894242301,2.032387113455679,2.1735698087975805,1.2740056266633164,1.9565447685575887,11.672684417856983
1570181898924886.0,7.2604677663101125,4.356288760679153,3.0793743210994635,2.0326256244628027,2.169568928847493,1.2760525683498105,1.9732104634975405,11.739653435379978
1570181898939985.0,7.288801622439861,4.361637882753427,3.0832394223978987,2.03158105882881,2.16291718463925,1.2741238332118432,1.9806585714259068,11.797512256124646
1570181898939985.0,7.319537142427684,4.370554566854705,3.086619043994244,2.031129360797691,2.155817466255423,1.2729239629586855,1.9912562087039227,11.845426115730953
1570181898941592.0,7.338934028692728,4.374408167751157,3.095827551618083,2.0298668580822654,2.150283542615934,1.2705838086623462,1.9973246678705023,11.870765102927377
1570181898941592.0,7.357619317834819,4.385210554293854,3.100611883549643,2.0316157760810523,2.148910454686981,1.2728936914305993,2.007794924772962,11.890541326156313
1570181898969835.0,7.364583158913619,4.390939931577243,3.1072231470301355,2.034316207919096,2.1502407971842916,1.2764537141160344,2.009554600009017,11.901335290708403
1570181898969835.0,7.374185970044454,4.403269208751023,3.1106790724647166,2.0412796257266956,2.1531386003930844,1.2836545106789556,2.0107332231939523,11.903397052005863
1570181898971748.0,7.375966515572759,4.40887206308259,3.1182657925859383,2.047752295865378,2.158201827751331,1.2896157613604589,2.0041070949535236,11.891624240433702
1570181898971748.0,7.384754619902151,4.420804545735496,3.1231906833803746,2.053561081223874,2.1662414255162266,1.2980724735284241,2.0054897509978593,11.892213615871675
1570181898975738.0,7.3878762133603635,4.430535894381787,3.132910152807822,2.0556531292731997,2.1749024414469997,1.3042413347820097,2.004403653003143,11.898046573689657
1570181898975738.0,7.390880248006467,4.449265967025861,3.139432293855618,2.059573769123957,2.1836546216336816,1.3131367828946925,2.006460581342378,11.903096993779945
1570181898984715.0,7.3843714171676025,4.463523608569301,3.147262726298422,2.0619579010297318,2.1913413138092523,1.3218734583489584,1.9999353489079597,11.897474909265709
1570181898984715.0,7.387116105261485,4.482109383696864,3.1509457188791665,2.063041849580542,2.199283882144957,1.3327090617290802,1.9975645133621767,11.902312379390045
1570181898999681.0,7.388005141238573,4.492995120508262,3.159666666387123,2.0605036069337728,2.2087023703750277,1.3403328658710052,1.9910386878619135,11.911398907930392
1570181898999681.0,7.39301540742406,4.5102216887945525,3.165633656984108,2.0583424508091217,2.2182386301352435,1.3461878112514802,1.9871029339333675,11.925115334893926
1570181899001667.0,7.386345862994678,4.524422086137979,3.1728632609995864,2.0551037258339004,2.2253519795051027,1.3453318464469548,1.9777488871643976,11.935204557812053
1570181899001667.0,7.385944439074399,4.5445957917603,3.1760020381166556,2.0556370462426683,2.2305535786635913,1.3458029363717225,1.9767303971095402,11.955264509818234
1570181899022662.0,7.388319888395467,4.559396426998192,3.1840287181817293,2.056642897870556,2.235142007302393,1.3462219126315085,1.973000475038033,11.979618414231496
1570181899022662.0,7.397086728952249,4.579894466701589,3.1892372993331377,2.058950221736317,2.2399062924913054,1.3483112586379533,1.9735792797886842,12.006663993427036
1570181899023610.0,7.4002013457598865,4.593330140505085,3.1956921543821615,2.060221272317023,2.244217705011679,1.346872186428468,1.971770146135501,12.022839124143767
1570181899023610.0,7.4156598276887316,4.609443715255295,3.198164815310452,2.064266965443111,2.250943586000555,1.3464668345727726,1.9795411359690487,12.04665338604909
1570181899035577.0,7.431130230209856,4.618329357847708,3.203134630984041,2.0681151364851713,2.2597304726062495,1.3460781119710803,1.985190216357623,12.079066810552403
1570181899035577.0,7.4516467648675,4.6311491653947146,3.203490229029179,2.073380603381331,2.2680127381516035,1.349493761092991,1.9959307871441077,12.120375196350865
1570181899044588.0,7.467946045366601,4.637509707727701,3.206473523206844,2.076021549255931,2.2754950944573196,1.3512898824936521,2.002294135672314,12.153280679998064
1570181899044588.0,7.492729689883251,4.648202363076096,3.2053563392008546,2.078381971338277,2.2838093477011383,1.3551660121519675,2.0143198100726845,12.181270049610168
1570181899059514.0,7.513319021839377,4.652625746217089,3.2043272649722083,2.079946548459118,2.291836049972467,1.3588718131939745,2.0233173229253874,12.201286641073567
1570181899059514.0,7.5409434209191,4.658505154401951,3.1988385473535756,2.0849390085885355,2.3005662031689798,1.366153063246847,2.037649416143054,12.230032192305872
1570181899061509.0,7.563249196616801,4.655407852656297,3.197478687433004,2.090582902969967,2.3089526590301253,1.373129710479757,2.047877833211829,12.263485279130625
1570181899061509.0,7.585525071088906,4.6571602492973,3.193344150059397,2.0968911591135235,2.315642605096365,1.3839754500603174,2.064468007638807,12.308263613238413
1570181899082460.0,7.60125506428411,4.656561583127965,3.192378033352501,2.0993360604427656,2.3219838606653123,1.3940772505212058,2.078242398697095,12.35738881085113
1570181899082460.0,7.628015126575909,4.664565339280225,3.189960844896554,2.102369905266625,2.3298868495566776,1.4038992589239638,2.0976340577929666,12.415311717872688
1570181899083606.0,7.6531875368672795,4.669354771557722,3.191450366791671,2.104743963052857,2.3382300375248857,1.4085536512410146,2.1102262173127606,12.466752475309626
1570181899083606.0,7.683986421719259,4.681002679957489,3.19014399976485,2.1075962856217814,2.3460022145529114,1.4126753259100568,2.1252023959818054,12.516266498725962
1570181899095416.0,7.71103750170459,4.690730008289232,3.1933168922851314,2.1081081854614627,2.3509148222792526,1.4148239160090323,2.136262197563371,12.560409083545109
1570181899095416.0,7.738552991174767,4.706091211147216,3.1957075193587436,2.109093037914868,2.354282965305894,1.4194895946719839,2.151194972507322,12.601673809754427
1570181899105391.0,7.752399809567898,4.716193493571574,3.201449470212394,2.107808707286802,2.3575142092745835,1.4217089346803902,2.159127671314388,12.624204114915807
1570181899105391.0,7.767746686334083,4.732069394420844,3.2046890426721206,2.1060470435243057,2.3607850234713803,1.4231732072583234,2.168993037577806,12.645011260483459
1570181899119354.0,7.777255893189714,4.743778685921317,3.2117612976964587,2.1022272386777257,2.3654319963212584,1.4205787924780133,2.175040907926649,12.673478103007607
1570181899119354.0,7.784788994200466,4.76029612718353,3.215341390776827,2.100463442985324,2.373046159214713,1.42054612975114,2.1868238771193154,12.708144563555917
1570181899121439.0,7.77518597005943,4.771221353694047,3.2204758613744016,2.0987532830043127,2.3805675051892496,1.4222220990907242,2.19007380712197,12.71881473223914
1570181899121439.0,7.767030182099722,4.785138768747467,3.2233249674369224,2.0999612126822313,2.38816147607194,1.4269179613447553,2.1934390612259644,12.711559267441784
1570181899142341.0,7.75940922935202,4.7922823542800534,3.2301070611809526,2.1005841384776898,2.39667975082777,1.4287364410442795,2.192480683673653,12.698584289416967
1570181899142341.0,7.7574875105912255,4.801961920204372,3.2329549102263804,2.1010553675739594,2.4057680980363836,1.4298066419118514,2.1965329741430266,12.691387445860173
1570181899143289.0,7.754329215644653,4.808085329685052,3.2361621191455137,2.1003003228923744,2.415947810094405,1.4267531897198726,2.1999238877851712,12.687056281228504
1570181899143289.0,7.759709752451958,4.822521914800815,3.2369439664299255,2.101547627769785,2.427570275891117,1.4254485883161254,2.2116350541565213,12.693740745596223
1570181899165232.0,7.7545839801200165,4.833170958005698,3.2433254043124253,2.1026877853687114,2.4373257346772412,1.4259699819802991,2.2193431406238386,12.696821788786343
1570181899165232.0,7.7508361077728996,4.847412276508196,3.248199990330058,2.1067460588048097,2.444857600069922,1.4325545587993143,2.2298558130016772,12.706607443054285
1570181899166229.0,7.74992618718569,4.8569480669638905,3.2545545495105297,2.1107329824296377,2.451627991339001,1.440550784995771,2.236279539216865,12.718290873562385
1570181899166229.0,7.7613848875628975,4.8715856447337105,3.2582755269679144,2.1179288954562407,2.4606098831560375,1.4509802193135282,2.2472682443605545,12.727586388904781
1570181899180738.0,7.769201580903415,4.8807194217920316,3.2676530349383492,2.12650937905431,2.473128726093113,1.4593387229361316,2.2540503495610764,12.72420619860537
1570181899180738.0,7.779083332657829,4.893569482391436,3.277281011051817,2.136967280288008,2.488373669360166,1.4702826936159028,2.2642735739508795,12.710556318698826
1570181899182185.0,7.7839961476916795,4.902779330551944,3.289720974836645,2.1464625649583984,2.5037884205367567,1.4812054405876391,2.2679046555121296,12.67572444169404
1570181899182185.0,7.792102999801521,4.915874225888235,3.295913151673549,2.1573708266955105,2.5175042695135987,1.4926512053762115,2.2710886347245176,12.634953178692964
1570181899202191.0,7.792967096458572,4.925159369513199,3.302023743915926,2.167232555054436,2.53002994142167,1.5002346617630462,2.269879018227191,12.597401612886959
1570181899202191.0,7.801594335666122,4.942114267619834,3.3066611049096664,2.1778272558628182,2.543684249813297,1.509160080861775,2.2777148465616475,12.580462493530648
1570181899204128.0,7.810040460790064,4.957219535839997,3.3164045619126963,2.1860838554293593,2.5561905191711247,1.5173862446389432,2.284974959088829,12.575094892764604
1570181899204128.0,7.8174318059389245,4.978303992770315,3.3247093125543516,2.194881840496343,2.5658695401610303,1.5293331900662257,2.2939212281665524,12.56940445698661
1570181899225083.0,7.8135315655225375,4.99670602524608,3.3335805617736995,2.203677377052532,2.571809762601863,1.5424712412355537,2.2946548386553696,12.55528429496996
1570181899225083.0,7.815325448927996,5.0210219910879275,3.33709116123835,2.214215179187112,2.575220840996895,1.5583709671462367,2.297865830251457,12.55392479914456
1570181899226069.0,7.8190692454022495,5.041147019853782,3.341938953325784,2.2211849512043074,2.5789512267378396,1.5733648945871446,2.299242309069441,12.561509674483473
1570181899226069.0,7.833062018341401,5.065375673722744,3.3421947193589054,2.228329864855857,2.5838005206539463,1.5912202510951967,2.3064987166028046,12.57956903336067
1570181899247103.0,7.847768142705891,5.085370901732235,3.342949907028134,2.237386496717758,2.5868347644343164,1.6074288584750216,2.311474107143898,12.602360480230303
1570181899247103.0,7.871669145937767,5.109486366735812,3.341227734567191,2.2496588617507416,2.588835480383914,1.6240121861391015,2.3219786933998927,12.634622203537207
1570181899249010.0,7.892000626077313,5.129093090012229,3.343188634272697,2.2607400129669535,2.5913295322697323,1.63647845706059,2.329105255937185,12.669844506486688
1570181899249010.0,7.912757395338732,5.152135121848687,3.3449411368643083,2.2702210350423817,2.594921413774672,1.6461697619571003,2.339438618048636,12.708939867071507
1570181899262208.0,7.9193198214195,5.169484406126134,3.3514172832390825,2.273535227771936,2.5998470087735726,1.6515005606119333,2.34548177711368,12.731250344472942
1570181899262208.0,7.92143827120914,5.1904753458416515,3.355684063426456,2.275489595045873,2.6055090010339117,1.6594685347515608,2.3536855451647956,12.742615235291442
1570181899263966.0,7.922665691821199,5.207669103681672,3.3644561865004996,2.278331417280341,2.607284804029933,1.669417881122557,2.354508597145159,12.750161257686244
1570181899263966.0,7.933969264332481,5.2287618572711,3.3743817297741536,2.2835033492290506,2.6047384209543334,1.6831093376565749,2.3553460623795712,12.757424189695012
1570181899285119.0,7.940553323497568,5.246210814624048,3.3882646807685712,2.286758880335607,2.6016815392081254,1.6943074583536062,2.349722617055729,12.750318585584772
1570181899285119.0,7.951672372872843,5.26777172923313,3.400183300457418,2.2899493651555938,2.60039523156649,1.7025324005287268,2.341769576659373,12.731444651507255
1570181899286907.0,7.963623369855132,5.284451041048719,3.4146362980387197,2.2907160423636497,2.5995639846239067,1.7056757053008138,2.3262411757332564,12.701407880051148
1570181899286907.0,7.983584369577282,5.305418381239148,3.426057312669692,2.2925400150930155,2.5986700709699924,1.7103084985528294,2.3156242668211604,12.681918388486809
1570181899299132.0,7.996302074035682,5.322350011039913,3.4402515062204064,2.295822936657655,2.5984809143462435,1.71474871252275,2.3032075305844906,12.660268745958483
1570181899299132.0,7.999841436191997,5.34259499433337,3.451884759538669,2.301996678558524,2.599584611566363,1.719288145642697,2.291187633046599,12.611531942152371
1570181899306056.0,7.9933372216705045,5.3573243925337675,3.464418217118515,2.307626904265281,2.6018853514913656,1.7179311069433663,2.273679050474087,12.547397697965756
1570181899306056.0,7.999179291794904,5.373488732121528,3.4730049722264105,2.3159837765849507,2.606397494684408,1.714971202442731,2.2640687284029646,12.515928804951395
1570181899321043.0,8.004033924219096,5.3830074998035355,3.4823382273145222,2.3252760415238503,2.6099529726212127,1.7107235266990668,2.2550131899740875,12.505419221819498
1570181899321043.0,8.009777251058184,5.393621475254848,3.489199264053463,2.3355851032997683,2.6116474732312867,1.7093602355840576,2.2502451547543125,12.498401335653531
1570181899329794.0,8.013068955342739,5.398137102837601,3.500665081680152,2.3436147216496868,2.6129510345152007,1.7087139828617715,2.2432781585350687,12.483546239822113
1570181899329794.0,8.025448638933893,5.40544061681978,3.5113525107110246,2.349759238159557,2.614188240632498,1.7094269612626247,2.2421472521281736,12.462595111112522
1570181899344796.0,8.039072206527782,5.408261431968315,3.524776006806715,2.3532727183589697,2.613767048268527,1.706389650332543,2.240413339606651,12.439922484581189
1570181899344796.0,8.06052994813563,5.4123851347055485,3.5350973828642154,2.3603628596034096,2.6124851909699225,1.7040863678609408,2.245169696266277,12.43588280930394
1570181899346747.0,8.078498670020975,5.409338190718377,3.5452954892011252,2.3691620562850435,2.6134555625948956,1.7030497005060818,2.248646943213575,12.438508318978608
1570181899346747.0,8.097336240741374,5.411566045807241,3.5523376802378688,2.3804735981143628,2.6187544164274033,1.7026762113847025,2.2549075212951104,12.436766205061216
1570181899367741.0,8.111044186616407,5.413928029422986,3.563494225719303,2.392129258058468,2.625645620610798,1.698313761219521,2.257288446613394,12.420397127253231
1570181899367741.0,8.132555945792955,5.422739040327986,3.573521492062163,2.40617934214325,2.630579946074745,1.6953789640128893,2.264641635254132,12.413876846377496
1570181899368845.0,8.15571365339607,5.431715556774334,3.5857963660828145,2.4211852094209974,2.632027222659713,1.6921650502739543,2.271259170375261,12.426734319932462
1570181899368845.0,8.187774148984008,5.449510999550878,3.5947665719399953,2.438033512750922,2.6333800553786904,1.6902013494163326,2.282915907768133,12.452277293410575
1570181899380659.0,8.220556809463593,5.4667250105865,3.6033920166151487,2.453051068290592,2.6367778399439827,1.6858564504243876,2.290833471023623,12.473596067569524
1570181899380659.0,8.25972532222271,5.48864074137024,3.606284414887752,2.4680515311531384,2.641095377586847,1.681343910056502,2.300387097337327,12.498198796375956
1570181899389701.0,8.293183236751547,5.5061221407015015,3.6086370131392393,2.480919200199154,2.6456734189994635,1.6749266717547522,2.305852828774182,12.523517651191154
1570181899389701.0,8.322724528145907,5.525899760861378,3.6084504224615492,2.4927908841353528,2.651502179396153,1.6699192987491538,2.315872887600922,12.545108560575812
1570181899404898.0,8.337489414084654,5.5395556549901,3.6112833953728174,2.502146244888791,2.656807744539871,1.6629416952045584,2.3225474447704975,12.546501997575058
1570181899404898.0,8.349498361376567,5.554249163124256,3.611840092440517,2.511875945908709,2.66130548847765,1.6554919513692397,2.3304524024057938,12.536335072190255
1570181899406586.0,8.359921876746371,5.563324257074034,3.615664004426458,2.5209784458573012,2.6670026419911697,1.647772388298572,2.3334381095361736,12.522874334286602
1570181899406586.0,8.379521787510285,5.574883288934522,3.618303642284152,2.5308663488085363,2.6759791246527045,1.643675032056367,2.338939134423968,12.523466412182707
1570181899427681.0,8.397807854433333,5.58613304009244,3.6218159477981415,2.5384999157287815,2.6859697823715623,1.6388569962200499,2.3386581108664046,12.53312306002635
1570181899427681.0,8.418521664588853,5.607014424377242,3.6221608623896,2.5435987413753196,2.693793830843017,1.6338053271099948,2.3364610675561717,12.537825066600831
1570181899429531.0,8.43703714695076,5.628016390708775,3.6252909922504357,2.5426988471535923,2.6987464412375473,1.6261884440251753,2.328882320502752,12.529117925195475
1570181899429531.0,8.463920611690403,5.653918217901627,3.628377051328838,2.5410438266395907,2.7029789722756097,1.6186590626645716,2.3244894336703283,12.529652689816565
1570181899441493.0,8.48793683573979,5.6756997219247305,3.6363316367728724,2.5406583269526326,2.7063093971092416,1.6085211571668616,2.3154658360679923,12.535020813273826
1570181899441493.0,8.513256120865014,5.700167779124438,3.6437248923057024,2.5437213098476286,2.707987627046539,1.5999674230731864,2.3102634593575897,12.543360302173932
1570181899450476.0,8.53260044866038,5.721994320603187,3.6538502462741502,2.546824121458801,2.7085819680138132,1.5935297561460162,2.303981802383677,12.549901651671673
1570181899450476.0,8.554502033967601,5.748629197313753,3.661097714733756,2.549783295695027,2.709569499086465,1.5917949319486513,2.3007327339466546,12.558332442922497
1570181899465296.0,8.570952294663494,5.771242215583185,3.6676591203773357,2.5500577661185564,2.7102999475807885,1.5917100531404733,2.295195422410118,12.559381359958184
1570181899465296.0,8.587705225002052,5.794523617474684,3.669977182985418,2.550960519494277,2.712214762500308,1.5928564881160958,2.2957324679029063,12.559061441918987
1570181899466431.0,8.6019912433012,5.810301648150069,3.6753747429567496,2.5529797583736626,2.7157093214405466,1.591027062316435,2.2966183896468357,12.56327434874149
1570181899466431.0,8.620998426347057,5.824912660516982,3.68189619651368,2.556790553231405,2.7194108863089674,1.5900448599049,2.302955485078409,12.573490124915729
1570181899487591.0,8.630078231305585,5.8319946325918295,3.6946002972181846,2.558080034419592,2.722907908699743,1.5877385151390007,2.3065124085830475,12.570339983549871
1570181899487591.0,8.626945623434729,5.842430871107408,3.706973003232434,2.5598425693656286,2.7270942021411217,1.584638547258284,2.3126906113589096,12.541873108666541
1570181899488378.0,8.60453677548777,5.853027047426006,3.720162545328889,2.562949665059192,2.729749865351087,1.5803011477566302,2.3144596224622176,12.476378118150315
1570181899488378.0,8.587309625798442,5.868810678369463,3.730683345206311,2.568390649080931,2.7300501677412923,1.5808744836072575,2.3184945932083334,12.405824767317702
1570181899501524.0,8.581358525828307,5.879293690087351,3.743446750885668,2.5726247664522193,2.730504544624228,1.5827875853763633,2.3202531924043157,12.349943580151537
1570181899501524.0,8.58549636900348,5.890483827451539,3.75276272860272,2.57748640980165,2.7317501417704335,1.5855343493208036,2.322993272702494,12.308161795345754
1570181899510308.0,8.582214424843185,5.895370455266084,3.764209517212222,2.5817364965308056,2.73277961262171,1.5860809614533624,2.3178001178157115,12.2747773763906
1570181899510308.0,8.579473719029078,5.901277777606998,3.776424372933646,2.587606966062434,2.7356906610040097,1.5883650714006103,2.314556135760121,12.261545918068808
1570181899525497.0,8.574575711301899,5.9016300477773385,3.7926419184522757,2.5945634021023327,2.7392387901453907,1.5917484991742468,2.311198514080017,12.258598735914667
1570181899525497.0,8.573637315860328,5.900456688079125,3.8076817682738544,2.6041632309776306,2.7407876290434343,1.59824461863873,2.3136975558241613,12.250443247531411
1570181899526266.0,8.565612463783994,5.892940945192716,3.827017830236077,2.6123414815408657,2.740602983291559,1.6047842670037058,2.3128282592417957,12.219005039560413
1570181899526266.0,8.560776888537815,5.890634672425121,3.8471534880512555,2.6186996029920286,2.742737687650739,1.6129913982819386,2.314065407756967,12.18849869919884
1570181899547281.0,8.558632473025,5.88703234912355,3.8708929834330323,2.6210074737592675,2.7480641941708224,1.6186944291762628,2.314869198337615,12.171657392291428
1570181899547281.0,8.558547280135091,5.88631823890242,3.8928132738640295,2.6239392512317035,2.7534505297958782,1.6227997421181135,2.3213854374955414,12.158246113977818
1570181899549315.0,8.548592913254248,5.881241365227649,3.9155983788595314,2.628615763131953,2.75804160841677,1.6257409124035478,2.3249633831676046,12.136946190699161
1570181899549315.0,8.535975360096938,5.878222850376764,3.9355449788578194,2.636232402917978,2.764753944653592,1.6320561918517695,2.327948532695196,12.115122882800822
1570181899561277.0,8.517100758782211,5.871669507701164,3.956965523992834,2.644244217520802,2.7731749409021815,1.63875308183742,2.324171947171473,12.091266641393474
1570181899561277.0,8.504545384347377,5.867612465324495,3.9739304800141415,2.651575019252814,2.782482410611732,1.647137743229485,2.322979303078035,12.080033348815688
1570181899570157.0,8.492691135584757,5.860369469263383,3.9889482525929147,2.653658068583917,2.791614111591475,1.6532237853445433,2.319243411104803,12.074701540777738
1570181899570157.0,8.487354499357759,5.85755652728103,3.9975906691260223,2.6546939032392163,2.7996781658372645,1.6583734718846752,2.3206277890669784,12.06967172555886
1570181899585122.0,8.481814500546164,5.852825777700501,4.004527977016098,2.6572564946707486,2.8065663122314306,1.6616420292273981,2.321652858447144,12.064310089073038
1570181899585122.0,8.484621652727313,5.85466322174339,4.010524041369639,2.6625316651791286,2.812978159254199,1.6656262718850863,2.3276873707349,12.075432721649282
1570181899586364.0,8.486615627765993,5.8566550800439385,4.021303687437191,2.666973439929901,2.8187331329719933,1.6669673810204249,2.33307857111076,12.099064732542363
1570181899586364.0,8.486485166855742,5.86018430166651,4.029055886093499,2.6705381846865115,2.82390449465589,1.668280960876612,2.342417596449081,12.13393440623451
1570181899607295.0,8.481279029757712,5.856732295072111,4.03862407344388,2.670808010020621,2.8276498876521132,1.6694590703870824,2.3491048930912513,12.170495059725829
1570181899607295.0,8.487344880374463,5.85586637453111,4.048744865773402,2.6702685947553695,2.83159663745076,1.6739335056211895,2.3592914983584197,12.21653430507906
1570181899609045.0,8.498677007020014,5.853388235928114,4.060527349170192,2.668513613223056,2.83750485326546,1.6761527613036242,2.36667008181521,12.274898825073787
1570181899609045.0,8.519179360070272,5.855452487417362,4.0697241842039205,2.6683783987681626,2.8444353173861687,1.677725681996434,2.376422765548286,12.342730724402259
1570181899621144.0,8.54333301468759,5.858386779263169,4.080989521310823,2.6682102552137246,2.8522353488914174,1.6791071648023215,2.3835889299070683,12.411098823222465
1570181899621144.0,8.576993104202879,5.868415929507895,4.088548005659398,2.669186590161019,2.862224643500228,1.6813699490766603,2.3965704259315666,12.488998649275763
1570181899629995.0,8.612544301432747,5.875769502546312,4.094961002439223,2.6693619611236787,2.87140082935372,1.6802286031673694,2.408900363260219,12.57274837865656
1570181899629995.0,8.65405077376195,5.885879002208804,4.09906632387314,2.669922391465481,2.879660914927371,1.6776101688529357,2.424873924708933,12.665564340901529
1570181899644951.0,8.694489358869744,5.8929533941774475,4.108067578515433,2.6708925657303957,2.8894803170788905,1.673315950467601,2.439171035292783,12.758341769912608
1570181899644951.0,8.74211628006713,5.902799567969012,4.1190053845036445,2.6748011381752947,2.9006254518155368,1.671480332981585,2.4572738159472935,12.84743039392234
1570181899645945.0,8.787551155301786,5.9082001152123365,4.13446512860357,2.6791562369518,2.910950412530879,1.6699200872552953,2.471640078987422,12.924662383253233
1570181899645945.0,8.833423942852434,5.913756397995677,4.1482499637196675,2.683665610506155,2.9207856523311833,1.670723705175245,2.4880303584883126,13.000143555381678
1570181899667889.0,8.872560800478425,5.917142807261662,4.162747517998056,2.68426148091025,2.9324648011912195,1.672518957915726,2.5005396423097372,13.06959889081939
1570181899667889.0,8.912053969639585,5.927657553489715,4.17526728806816,2.6847458827427726,2.9480845702083136,1.6767014881135267,2.5142654561364055,13.12956815016392
1570181899668888.0,8.949246045669423,5.937165703359257,4.190267529532768,2.6882160131315436,2.965775794221555,1.6788710342446118,2.5240312219263235,13.179899891688263
1570181899668888.0,8.992015208470011,5.951352557597599,4.203027171382928,2.696391951594349,2.983352923437707,1.6823112241305476,2.5372130056845257,13.229808745382009
1570181899689836.0,9.035412117805963,5.964752672840864,4.217589552158387,2.7050382337114156,3.000187679099077,1.686389874100675,2.5476650242792935,13.278494012714464
1570181899689836.0,9.086866695553914,5.980514209993828,4.231033165551461,2.712549339974247,3.0182862776495467,1.692030437015236,2.5602580277117704,13.340554657929456
1570181899691823.0,9.138744234040091,5.992321203693363,4.246224405553579,2.7171773198642954,3.03812226640884,1.6968905595028363,2.569944838741583,13.412431868770957
1570181899691823.0,9.195594039318996,6.006339893302078,4.259741048433052,2.722486210635681,3.0583922974326665,1.7043586292356625,2.581723348222801,13.493944016952144
1570181899704788.0,9.248028816156026,6.0166719501884875,4.274408125405906,2.7278105422035135,3.076760559149225,1.7118255174991088,2.5898080976291467,13.575241363942803
1570181899704788.0,9.299197691520803,6.030564599579387,4.2868528578111205,2.734789964762753,3.092632121162281,1.719926354159436,2.6027600877328734,13.659593647666728
1570181899706784.0,9.342586746009717,6.03987098017676,4.301382044616012,2.7407724595502696,3.10647013180144,1.7263263545743144,2.6157089944610283,13.743156194872926
1570181899706784.0,9.38566316893271,6.048607663071086,4.312896393685325,2.7467624904954477,3.1188218926396574,1.7335970405654033,2.6347927980345305,13.82217424992627
1570181899727727.0,9.425585978211252,6.054832866318608,4.324669084358054,2.751140699641588,3.1291274346935696,1.739736718977752,2.6543035091352833,13.88950489572341
1570181899727727.0,9.469034110370302,6.067624752214772,4.335171957853458,2.757232322790298,3.1389118481083886,1.7470879665588064,2.6775327651549627,13.950722245933648
1570181899728810.0,9.505402564615057,6.080904089561201,4.348383431135876,2.766613271208629,3.1497405489671086,1.753918678576721,2.697476403039001,13.998228716053626
1570181899728810.0,9.535823754614482,6.098144106601792,4.358864960414227,2.7796833761456985,3.162361801367553,1.7635872148105964,2.7208334299146557,14.03070749019196
1570181899749716.0,9.555391568088535,6.111495515358192,4.369445726766736,2.792250689953638,3.1773681137229586,1.7742763968164599,2.7415587192051145,14.05079192978371
1570181899749716.0,9.572144218255346,6.128020075402214,4.378069897755492,2.8031642704369215,3.1948310307452488,1.7856841671182617,2.763757068388661,14.076613836220181
1570181899751876.0,9.579219241915036,6.143885194370182,4.390123772740201,2.8108373324403177,3.2122539197664275,1.7929721989763392,2.781649861737706,14.100873345019139
1570181899751876.0,9.588211062393494,6.165079605660317,4.402274780929688,2.8189283500313875,3.2290860024234576,1.7988970586074366,2.8009974815060525,14.110956638066419
1570181899763678.0,9.597314188871904,6.185994542217347,4.416411554381629,2.8265403761965544,3.2467833963484853,1.8030353399915093,2.815195632891499,14.096424850196955
1570181899763678.0,9.606671563029067,6.21124432975624,4.4289684792003,2.8350471492245393,3.2658712946298425,1.8069827088599948,2.82720254739542,14.065294078445977
1570181899772608.0,9.614377254751574,6.236086262315668,4.44381116933618,2.843518789574594,3.284213481950132,1.8089444165686346,2.833196227511237,14.025566138379082
1570181899772608.0,9.633275107918037,6.267881001493515,4.457992287653085,2.8539281613417415,3.3014998075974407,1.8128797688928242,2.8451179002769678,13.999497998688161
1570181899787616.0,9.652770323093023,6.299781698421982,4.475343868189673,2.8638116438217263,3.316792304338842,1.8177438156153158,2.8588122579430713,13.987691449898374
1570181899787616.0,9.673056879677327,6.335923105331174,4.491383081360088,2.875194970345942,3.3290567698033193,1.8244255716556748,2.875465127530226,13.982469676160147
1570181899788565.0,9.68654590138578,6.369678423685401,4.50988971166316,2.8884133349650334,3.339597955482016,1.8285780049954599,2.88775973366837,13.970279132107356
1570181899788565.0,9.705634822074103,6.405130261429476,4.528649940446799,2.9032202205974604,3.349022685082698,1.8330909342227293,2.901628928033385,13.965267121929541
1570181899809555.0,9.729545513623174,6.436904606732952,4.550515448753266,2.914957960514966,3.356530710601119,1.8364421312329944,2.9122787184560854,13.970675612901555
1570181899809555.0,9.759045335837826,6.4725755438211525,4.57152664907453,2.9254034019594104,3.3636042870396596,1.84008593275556,2.928084579620761,13.980291723992146
1570181899811503.0,9.7854950455395,6.507218207751447,4.594391127986029,2.9357890962372863,3.369914904027104,1.843874228241259,2.9451764108497023,13.985160481077013
1570181899811503.0,9.8150222507496,6.544800553634752,4.6153204234953265,2.94708099750207,3.3746324497129985,1.8493886661461774,2.965999050803364,13.993719564285785
1570181899824469.0,9.84232630339044,6.578028414139884,4.638700545286638,2.95549571298913,3.3787418707699315,1.8517174499272342,2.982637435562735,14.001611218847053
1570181899824469.0,9.873560100235801,6.612422817367149,4.6611387368764055,2.9617310323480646,3.3840717168715506,1.8526013009811861,2.9990219846295667,14.00574240086428
1570181899830501.0,9.901367582682592,6.644115576824903,4.6853222433620045,2.967384240103782,3.3885638981883144,1.850487174611341,3.0095500866732254,14.003215764325011
1570181899830501.0,9.928918226196474,6.6785886398536265,4.707332708839769,2.97646670261491,3.390976375812679,1.8498471228491855,3.0231911404244065,14.00148131483491
1570181899847413.0,9.949754320238442,6.709710823535084,4.729611674924332,2.9866982851257795,3.391836721267934,1.8518665247441073,3.0367989714243353,13.988743101827525
1570181899847413.0,9.96867622868271,6.742351064522613,4.749374903637788,2.997684203918718,3.392022413544745,1.8566502497223185,3.0529443671520253,13.95745666105137
1570181899848821.0,9.986172306505159,6.772578493914165,4.770607324947582,3.0065906363207144,3.391697134814795,1.8594883975065086,3.0664550400049784,13.921170766247808
1570181899848821.0,10.01324361919012,6.807513371037248,4.790706983387962,3.016605856900081,3.3914792866634023,1.861898416411781,3.0850333152080798,13.908185267325274
1570181899869401.0,10.038139430706774,6.840546326371261,4.814120133634321,3.027482125924741,3.3915043830054876,1.8608335152052913,3.1028888200632503,13.905877091935661
1570181899869401.0,10.05956374955416,6.87510668132039,4.8372966334083465,3.0395697422601966,3.3927676108531086,1.8574127141342958,3.1204355589229857,13.897056750631489
1570181899871344.0,10.075400080378841,6.904165951123351,4.861387445692106,3.052039290478901,3.3958467843958107,1.8501779634770974,3.128867610367122,13.87509791369822
1570181899871344.0,10.10209561119911,6.932387089809793,4.882528727788829,3.066130141820282,3.4005848737672637,1.8444666118024342,3.136257705247309,13.86344088947883
1570181899884312.0,10.137901832407266,6.955263314606475,4.903071936643772,3.0794137010313674,3.4083908360181643,1.8426645092421872,3.140917042476448,13.868501431922205
1570181899884312.0,10.184040648422501,6.978218352191068,4.9182522482897895,3.092257967166737,3.4206874181777067,1.8471670510772336,3.149041009246094,13.889377599658422
1570181899891385.0,10.231242662502016,6.995258087674889,4.932200519822169,3.1038544934208434,3.4350220686521893,1.853101697372425,3.1574773391706805,13.92096513152344
1570181899891385.0,10.284578591963896,7.01258978521243,4.943352774904917,3.1163740806437548,3.450577270011944,1.86097497525758,3.1707492030681896,13.968703781459302
1570181899907248.0,10.34113311031282,7.027328112590501,4.955888411234846,3.127361248188328,3.466747147255076,1.8700639182766199,3.1822826088951026,14.031350023820632
1570181899907248.0,10.405245990572178,7.043323553244254,4.966054359849704,3.1379916790307267,3.482882589544501,1.8833383144812115,3.1984157077340263,14.109371555157871
1570181899909242.0,10.467940556745804,7.055489424229072,4.975563937944972,3.1473311770216847,3.4996176925229663,1.8971966260198632,3.2150807665097108,14.19248618402527
1570181899909242.0,10.530519933623976,7.073483277260314,4.981562430819732,3.1564988837844363,3.5188583490767864,1.9108916697233598,3.2338355410513038,14.280605767506636
1570181899930186.0,10.58203948977128,7.092178285294074,4.9898249342072125,3.1636541375638907,3.5406244473615858,1.9225797435240048,3.247903664011661,14.365891719468435
1570181899930186.0,10.627602367494642,7.111877086394386,4.998567181112344,3.171541921019036,3.563823641239337,1.935601055134134,3.2628781933668236,14.446821336700305
1570181899931183.0,10.662042210913397,7.126090942519405,5.008822811230537,3.181071591645912,3.5865434349480507,1.9470175709875337,3.2719324894360087,14.510638481792801
1570181899931183.0,10.688019972755363,7.144591775098796,5.016521184523393,3.192963030307515,3.607112532430305,1.9586075298325507,3.2794169322853426,14.550699388071154
1570181899944154.0,10.698644509974708,7.166114368268089,5.024271054892716,3.204333490104036,3.623784203956187,1.9688326120824242,3.282672452315307,14.559237649759993
1570181899944154.0,10.69319217976864,7.194591192348776,5.027608628007155,3.215319729462623,3.636608534284789,1.9800987708312283,3.2875498533745073,14.533279857954556
1570181899951139.0,10.67487147629887,7.221802410686397,5.0290352235361775,3.224673123866016,3.6482022481430603,1.991023198249712,3.289709533209212,14.49262069664964
1570181899951139.0,10.663261475512698,7.249920614474569,5.0264585541696185,3.2340867464914047,3.6602845108608237,2.0022165412102564,3.2923833161408464,14.477325278923676
1570181899967318.0,10.654584018465135,7.2743407288078,5.025950147796032,3.2425360884606573,3.671734264101966,2.010887377527857,3.2893278196346727,14.473545448050961
1570181899967318.0,10.649927218722496,7.302282465089028,5.026455016785425,3.2515141672828376,3.6829264817102296,2.020848710125868,3.287887349634774,14.4580865133377
1570181899969208.0,10.63896913131409,7.3291506792068795,5.029498878041492,3.257665633383061,3.6948488814442086,2.031394786693215,3.2870246264812573,14.419872485406167
1570181899969208.0,10.634359202408197,7.359903449712922,5.029520434197724,3.2602717863608177,3.7110483551393147,2.0432054814703338,3.2921102007761327,14.387154786228315
1570181899990329.0,10.638475582042485,7.390226650915727,5.028825531990307,3.2592661045501568,3.7328441379860005,2.051955577266156,3.2945874297476343,14.379302686896569
1570181899990329.0,10.653090438157117,7.425878072675076,5.027213219385329,3.2595894368384966,3.7585152545072567,2.0601891407156367,3.296641597418455,14.388645340493682
1570181899991508.0,10.667495874551669,7.461433271930908,5.029348400988169,3.263047814715442,3.7862083664157913,2.0679328019032472,3.296030588533266,14.393185275107056
1570181899991508.0,10.68716080643543,7.501633496250069,5.032227002009186,3.2707546109418484,3.8148531698155597,2.0773138213545232,3.2967630581186933,14.389184587074775
1570181900004076.0,10.713478183244778,7.5415453902617156,5.041304041435408,3.2797691997835035,3.8424888776578783,2.086118500472512,3.2898755465165332,14.380542127573596
1570181900004076.0,10.753143413375302,7.58468017077204,5.054449516498513,3.2916494703410453,3.8690492130708125,2.0962638260258433,3.281525287271366,14.387198956768541
1570181900010978.0,10.796570708798086,7.626359559354145,5.071218179833463,3.304556546520916,3.8955114563529163,2.105789355352727,3.2743769653987465,14.412756368391992
1570181900010978.0,10.846788201966843,7.672236368572435,5.084597630502323,3.318658767867723,3.9212814371279885,2.116404391515523,3.2760040794884584,14.457957564556956
1570181900027149.0,10.899035144784891,7.716465966929782,5.0989535464634335,3.333853481061932,3.946589578111234,2.125546002665994,3.280256954217984,14.515333331897681
1570181900027149.0,10.955740996776807,7.762543584954979,5.1154028304868095,3.351528266302549,3.97434874236823,2.136388783333075,3.2903093355827577,14.583073504880945
1570181900028926.0,11.011121469524314,7.803790436145159,5.136290254558684,3.3677776573352793,4.004296403815298,2.1498345922342583,3.3008019615166555,14.65682169281672
1570181900028926.0,11.070116561878164,7.844605635040259,5.157086849228939,3.38226389792317,4.036208535674733,2.1680499747969613,3.3153885782363783,14.74006550086366
1570181900050105.0,11.12679262834228,7.882967597182262,5.179778011660177,3.395917435633779,4.070268334979074,2.1865262966967056,3.327953154382301,14.827070169809165
1570181900050105.0,11.18887292032474,7.924714760613663,5.1999530861126315,3.4110262265880156,4.105747751517484,2.205708820597422,3.342362086990245,14.916023679972138
1570181900051323.0,11.253924621519166,7.964176121879146,5.220294642356419,3.4251640047146963,4.140746572691168,2.224183755014005,3.3555925510334985,14.992540471837396
1570181900051323.0,11.32591452913503,8.006856446361507,5.2395564488483855,3.4396002658328393,4.1736735849202065,2.2448933587972792,3.3755062852523046,15.067606341700792
1570181900063878.0,11.396873616658953,8.047437554760181,5.262675652310642,3.4514722290113062,4.205760080710151,2.2673600268112213,3.3982359987531767,15.159084840160913
1570181900063878.0,11.470278012007737,8.089594680039031,5.287702271212738,3.4605295064548036,4.239129197242839,2.293816322265749,3.424356478310894,15.272806354240489
1570181900072807.0,11.541604728966886,8.129223312020976,5.316768026408626,3.467572861703124,4.271627849102923,2.320588903758909,3.4495490897156365,15.395435814000791
1570181900072807.0,11.616303234174651,8.17206579496015,5.344832579362102,3.4769996836473807,4.30218015863255,2.3490846426795993,3.481636815812527,15.526839416154761
1570181900087781.0,11.690115088829907,8.21426180908227,5.374064633452212,3.4894399444565947,4.331353242476732,2.377525148180005,3.514145854829362,15.662245606881742
1570181900087781.0,11.76560866840442,8.259727164830055,5.400810775335383,3.5048227863677712,4.360267214244824,2.408005945048854,3.5491714158736025,15.805436111168747
1570181900088838.0,11.831993187342768,8.303073284641895,5.426446425688307,3.5203403068322303,4.389224850113954,2.4388069370738683,3.5822457554574068,15.95421868055571
1570181900088838.0,11.89753238613773,8.350400856372502,5.44964498881643,3.538202479994107,4.417267027761493,2.4701089299840024,3.618062710025295,16.111139246653746
1570181900109708.0,11.966580335539339,8.397000832659963,5.475321933443975,3.556817378204637,4.444390725701513,2.498428796938062,3.651801904874866,16.270832373180088
1570181900109708.0,12.0460790259248,8.445580971900991,5.500977639223208,3.5743302469305,4.471030311404897,2.525688324517001,3.687166105899798,16.43115985520572
1570181900111707.0,12.128321006953723,8.490852041345429,5.530099367989441,3.5888485943297526,4.495093232807167,2.5518447045518893,3.7205830596215645,16.58627680982213
1570181900111707.0,12.215164433248507,8.536732064365056,5.558992376735534,3.603076574988057,4.517233977796948,2.581846003084617,3.7589984797061704,16.743769853638483
1570181900123902.0,12.301437068987669,8.579491133922637,5.5874338522443585,3.617551895436377,4.538373853318651,2.614085150815015,3.797331297142804,16.895227846678303
1570181900123902.0,12.390640808279052,8.626518477961442,5.6124884893972835,3.6358101757611307,4.559491298023343,2.6483349423859153,3.8356250926627533,17.033179760171176
1570181900130801.0,12.479823957708604,8.673202918592256,5.639323380020375,3.6560230176489767,4.580764777513934,2.6820495175911843,3.868874311432815,17.162717868425904
1570181900130801.0,12.578992507543857,8.72147641464241,5.66557980061062,3.676311006827694,4.6012782007619375,2.716869460730554,3.904524982309202,17.30465387171178
1570181900147604.0,12.680895749046615,8.763826594684147,5.692090525718719,3.695739692584288,4.622657682717965,2.750014696837054,3.938214466078928,17.455056666421097
1570181900147604.0,12.786453474646894,8.805028280620228,5.715676935479667,3.7165873286212143,4.646693599949033,2.7840021427132293,3.972556044231426,17.608119002989028
1570181900153592.0,12.891577910386104,8.84463712866752,5.74037471827844,3.736879680809345,4.672913031665979,2.818340010831443,4.0035961712959836,17.759006689175365
1570181900153592.0,13.000762597274308,8.887383731134502,5.763024504390212,3.7585511353977004,4.701314497270694,2.8547115656282656,4.037499147546079,17.911804963084272
1570181900169717.0,13.10878762971047,8.92491783040881,5.787417378055677,3.7800793593816326,4.730009208870769,2.890424611327562,4.068552772050534,18.061473308576858
1570181900169717.0,13.220232706197653,8.96277119475018,5.812389396480549,3.7991437155052927,4.75860923186317,2.9263192940107072,4.095180751493955,18.207334525696634
1570181900171542.0,13.325749750803359,8.99802010148028,5.8387261075480446,3.813168320930298,4.78894563828124,2.961109038602405,4.106789326971353,18.339299302756746
1570181900171542.0,13.424378897300414,9.032388426065591,5.862614214328386,3.825555714578747,4.821716367957298,2.9979338813137892,4.0982281433568595,18.460920171648567
1570181900183739.0,13.513901056365016,9.060811703468259,5.887834188447773,3.8381785091829363,4.855586961019281,3.0350918036474694,4.069547644013625,18.577163251446855
1570181900183739.0,13.606709058672388,9.089293756684041,5.913279307090841,3.853824288085923,4.891119429036312,3.074378530556102,4.043643659235007,18.69686516358994
1570181900192488.0,13.696639497228448,9.113992416392778,5.943376941411559,3.8692002444269162,4.927844101830419,3.112757843063462,4.023662615508508,18.805159543138952
1570181900192488.0,13.777858693420985,9.139816463325829,5.974247073782271,3.8818025701228254,4.964984250350647,3.149376014580947,4.01370935378311,18.88240320409663
1570181900207613.0,13.845305394716158,9.164486494025333,6.0070983489665295,3.892025816603011,5.001710953102273,3.1802139460931094,4.011595838883634,18.932857655475008
1570181900207613.0,13.912899757308116,9.193538814505676,6.0403303167825255,3.9061652223682874,5.037263091385535,3.2045277847624023,4.0196536182136295,18.99095704667367
1570181900209439.0,13.972876001832654,9.221373139899672,6.076091030692314,3.92441367762628,5.069808724963548,3.2193249548955762,4.0289321493714,19.054124617010444
1570181900209439.0,14.017431424778508,9.251362908262953,6.108988435462893,3.944526622350407,5.09565238353617,3.2272924786388835,4.034521295780847,19.103637679987454
1570181900230385.0,14.050746303826335,9.28270039989435,6.1420564400347715,3.9611428911887296,5.111498083901745,3.226414963830907,4.0292880135425175,19.14365657701514
1570181900230385.0,14.093287359457232,9.322593769251448,6.173189531791025,3.975934997089859,5.12224348537292,3.216183308507073,4.0214732456584175,19.193563064290046
1570181900231456.0,14.138844545923574,9.363373309051083,6.203219796173563,3.9914218348843877,5.136414572990074,3.1995046609087296,4.012389273504595,19.250689722208026
1570181900231456.0,14.185179777928893,9.407059775371486,6.23040339174231,4.009510872500651,5.157967869786898,3.188847589441336,4.008217479113088,19.318833579328295
1570181900243437.0,14.219670967884014,9.447876294147338,6.259098191162561,4.026970391194575,5.185018326064711,3.186217500219512,4.004636444210698,19.38365721719312
1570181900243437.0,14.233024899787315,9.48797995007589,6.286302593367951,4.0424627754090405,5.2126721287911995,3.1886568889764537,4.00674670831921,19.417661703615895
1570181900252325.0,14.220870898417015,9.523652363134717,6.314063203667798,4.055184174827675,5.237714204425783,3.190161800156466,4.008488245015567,19.40411930586217
1570181900252325.0,14.207822523384811,9.560188175481189,6.339056793141049,4.067183042093179,5.261244291744362,3.1911758717334004,4.008497753171525,19.375950548827117
1570181900267497.0,14.195310628802037,9.593887383987814,6.3628881850233014,4.077870818415812,5.28619591642932,3.1919996846331857,4.005287702921064,19.356375519971813
1570181900267497.0,14.176501073344706,9.627718375805962,6.383396742936088,4.0890655955729365,5.314838755670088,3.1954967628798747,4.005572561709801,19.335608445892692
1570181900269280.0,14.1363950462951,9.652402809244911,6.403573484933739,4.098649656925171,5.345583621835278,3.1994680128513675,4.002442530732646,19.275804592957567
1570181900269280.0,14.057508211830203,9.665381079997589,6.418000329508959,4.105101595769522,5.375704609862136,3.203440266650552,3.9936475508446176,19.124329183743292
1570181900290275.0,13.928412429987693,9.664386398800328,6.426474879961495,4.104921887371064,5.4034186039667444,3.201043103820579,3.976952750704357,18.84045062507543
1570181900290275.0,13.79556448407993,9.66600108602478,6.430056976476755,4.101447066423138,5.43302785241611,3.192584968945979,3.9629094390972854,18.495635022507834
1570181900291335.0,13.684295104410115,9.670297356093087,6.434900971392357,4.099063682649398,5.468803142534896,3.1840641623298946,3.94545216096492,18.18315324414376
1570181900291335.0,13.586871542131076,9.679202711915137,6.43826584675234,4.100277864395756,5.508420869049294,3.1830339306680036,3.9186789135661133,17.90329869460029
1570181900303292.0,13.505450588473364,9.695262362620248,6.447843735646095,4.10258984987595,5.5495427596387845,3.188308979753385,3.8842112850199477,17.639729388520614
1570181900303292.0,13.454570637357188,9.728512383299925,6.466168106072191,4.105908544434554,5.593358825500296,3.1997546099241463,3.859308336719345,17.389814835818083
1570181900312213.0,13.425740879519692,9.77070088621572,6.494805225483066,4.110305578975814,5.63885633101726,3.213882091704701,3.8435843807818975,17.130306613718602
1570181900312213.0,13.419408822978905,9.820481586158946,6.529154467324101,4.119084500737851,5.684273497655785,3.2322775820729,3.8394843403246073,16.871711316915437
1570181900327231.0,13.423427423039481,9.873229448145414,6.569519515871628,4.130971528123973,5.730988087907708,3.2553939384028685,3.8409987173834477,16.624598422970983
1570181900327231.0,13.443568477448704,9.933663931246908,6.611123331770023,4.1461901279497235,5.782024320249949,3.2837750449674448,3.8464090572398013,16.410903488389046
1570181900329122.0,13.48458904424115,9.996601032589627,6.654201456142646,4.161558179401456,5.836885116896641,3.3124714599452934,3.8515959564955007,16.24420784010036
1570181900329122.0,13.546402403078275,10.064948592169886,6.6951285298623935,4.176704342535966,5.895135737267197,3.3417328637951518,3.8617649363702555,16.112338738001085
1570181900350064.0,13.613929682760642,10.13382172255945,6.736511385230902,4.19054223271538,5.956391701659465,3.3716306947380263,3.870618696125349,15.991716873706443
1570181900350064.0,13.690927557044718,10.205834183945303,6.775333431352935,4.204119830984981,6.018447381152335,3.4067830286452607,3.882064033520718,15.88238572203368
1570181900351060.0,13.775789986380182,10.275185287732505,6.814356261587778,4.219928821552253,6.081628928301459,3.4466989741987137,3.8942803626031663,15.787379888766498
1570181900351060.0,13.87068145673478,10.347107997515097,6.85352360338732,4.241066842892984,6.150158420323277,3.491326579399361,3.9062907382339356,15.71749194302099
1570181900363163.0,13.969804846122829,10.418894555882218,6.898301647669662,4.264351605144307,6.223615460943843,3.5390906603829064,3.9135784633851456,15.676508690582832
1570181900363163.0,14.079652246812993,10.493418883823734,6.946417944813254,4.290375167365619,6.298712358035032,3.590587194688479,3.924038481879803,15.661400636464679
1570181900372001.0,14.198683617750994,10.56685274948664,6.998886884807492,4.318867452049017,6.375277487400895,3.644335553239016,3.9370363804757393,15.662091281266102
1570181900372001.0,14.325356711695822,10.645705267323855,7.051933511910012,4.350097479977005,6.454468427776846,3.703568093029532,3.957582118626624,15.666043587698502
1570181900387174.0,14.451749654050042,10.727124570508785,7.1071998333738975,4.381716344881835,6.535004465317576,3.7656114833129926,3.981180355433061,15.657381461354593
1570181900387174.0,14.585154572638912,10.814843512851901,7.162980247449681,4.412865141038293,6.6170796077751355,3.83059553526346,4.00814812781211,15.649117712147222
1570181900389021.0,14.72345163993627,10.90495566460021,7.2208002186689875,4.441598953329998,6.701613675029454,3.896641677350054,4.032408563045676,15.654766989057865
1570181900389021.0,14.872520287104336,11.00026914582995,7.276411220618087,4.471873252989477,6.787895387801935,3.963740819464434,4.060842572816957,15.68015591409031
1570181900409904.0,15.02985634453575,11.09540133042628,7.3340726945407315,4.505261795523341,6.8744803211349135,4.030070430195618,4.094263271519063,15.716753691174139
1570181900409904.0,15.200638437901942,11.194939597205709,7.394222052043442,4.541865341739891,6.961733427919663,4.0965878726484855,4.135257962363499,15.76991537282303
1570181900410901.0,15.379274785297692,11.2959350242269,7.458753244768979,4.57944243218259,7.048144374119378,4.159428152599005,4.1776337545440265,15.841229175040134
1570181900410901.0,15.56688737920991,11.401370846080532,7.522533948634744,4.618061373258256,7.132736727521213,4.218232350488967,4.221740179305959,15.929918234862095
1570181900423970.0,15.758085259699728,11.50639403247352,7.586795883434575,4.655507789397581,7.216405258675658,4.274039457067706,4.262466740558893,16.029173296292257
1570181900423970.0,15.9565056761962,11.61576805738598,7.650093096773503,4.692877493771328,7.29873757482326,4.331667798967538,4.304585240812927,16.134141976230755
1570181900432842.0,16.15664926291061,11.725175148953031,7.715881381679933,4.729850116013153,7.377418554701434,4.390622001323816,4.346375119545306,16.23134995406865
1570181900432842.0,16.361133688119423,11.83758609875479,7.780883804068396,4.768108688103769,7.450762780637502,4.449670573681872,4.3894149674377765,16.325815039768756
1570181900446804.0,16.56754002250469,11.947517541401014,7.846163180338835,4.805722446055752,7.51787131023023,4.503569211986761,4.42961965545454,16.423642823568123
1570181900446804.0,16.781008194951028,12.056593616950497,7.909864369962754,4.842293031874998,7.579247712872289,4.549298131025975,4.471346814011276,16.52108852203797
1570181900448802.0,16.99687321978479,12.163233154004256,7.9755473894774855,4.877408422071508,7.628568842138394,4.582650580513818,4.509862852827692,16.605059470262614
1570181900448802.0,17.21870661186897,12.274051477158729,8.040179353700756,4.911767606578465,7.6561790324129,4.600310784809914,4.549519436167853,16.68278179837177
1570181900470779.0,17.438712561999775,12.384080815733684,8.10322157419566,4.940733223448005,7.662297419429097,4.594678856573163,4.586743506165283,16.758282418994032
1570181900470779.0,17.65211788290355,12.496971025547403,8.159818554836217,4.9576337802083685,7.65066601029196,4.568600414580228,4.62411828801777,16.82068228513303
1570181900472040.0,17.847580876448042,12.609167137796513,8.21028254351714,4.9552111507796335,7.619608757921382,4.527882304426397,4.655583054386803,16.83804832284911
1570181900472040.0,18.038722535526567,12.724790871950976,8.25262962870778,4.940660004004522,7.573362726476266,4.469412578599873,4.6778333291538345,16.824332170330045
1570181900483809.0,18.23344170135764,12.842492588923013,8.29245055474683,4.924395884031805,7.514095358777603,4.39603586150718,4.688756234221202,16.818586112425862
1570181900483809.0,18.43530112208784,12.96587837153779,8.327092567285472,4.907382145431555,7.423515013860438,4.316794993682632,4.698439408337716,16.83481616374384
1570181900492700.0,18.638746416218435,13.089070346920094,8.356010497357717,4.886518905401708,7.297763998855214,4.226217723932231,4.704449307954878,16.861110024987916
1570181900492700.0,18.842028145974293,13.21523428338013,8.37637719522117,4.8638090926007385,7.16358889453084,4.1289267744210125,4.70348913112699,16.886726324598065
1570181900506778.0,19.04136451665919,13.338618797822978,8.394141984090131,4.837575842531627,7.032509262369377,4.02947116573879,4.692051883632224,16.895489676081617
1570181900506778.0,19.24919925833941,13.461008265031449,8.411519115421802,4.813506472919965,6.889712911365851,3.9222344355557537,4.672348693006003,16.89652624135762
1570181900513630.0,19.461716191843283,13.577604259532105,8.425420861991036,4.796674809376455,6.732177821891382,3.8105790300341336,4.628632439589076,16.907264806838196
1570181900513630.0,19.680428997006366,13.69168118354054,8.424808992840463,4.785300195092775,6.580230963856521,3.7042932978768515,4.566104925286305,16.92951106471802
1570181900529739.0,19.902837306121828,13.801804817181631,8.416166339887479,4.77589905202493,6.445751304813377,3.603492257839299,4.497943634951613,16.953114160467535
1570181900529739.0,20.128345547614664,13.911834439733331,8.408743603468734,4.773293680600361,6.326348952234427,3.5107294987504263,4.433658964094336,16.994478341090264
1570181900531579.0,20.349653594289833,14.017381822612101,8.407380862297327,4.775527914121291,6.216532795252794,3.427501877792145,4.371486454207255,17.05413321301916
1570181900531579.0,20.57759668356234,14.124476953270948,8.405171056987093,4.777443337189057,6.119501718525903,3.3505469039451805,4.306258825376343,17.117453428134485
1570181900543761.0,20.81155500515006,14.229828666723197,8.400077320132764,4.778085134583903,6.043756331225411,3.2752148411037885,4.237889500203378,17.172913831203843
1570181900543761.0,21.048824573035965,14.33613012010571,8.388637241398458,4.780661022438042,5.989749617985896,3.2015944700202605,4.181428128595029,17.226640168227906
1570181900552522.0,21.28075166207594,14.439732593989705,8.377010667923523,4.784272226066081,5.949812764140202,3.1323577582423137,4.132980057933723,17.28158636119427
1570181900552522.0,21.50885749137145,14.541730828170449,8.36606520189936,4.788590840488434,5.916477441792926,3.070059403906518,4.09354463975127,17.340132964960723
1570181900566674.0,21.724872425398573,14.63415799050598,8.35639778784023,4.790848833668045,5.886604782956075,3.012420969361122,4.061030220439547,17.39527926612569
1570181900566674.0,21.911233854524447,14.715941336111026,8.349712772725542,4.79515378289343,5.862186805643768,2.959408833572515,4.037272469242553,17.453481882295645
1570181900573519.0,22.04634079761432,14.781909103384276,8.356842169060892,4.805509973832806,5.84715450973516,2.914595697103607,4.020844810111164,17.515279854596876
1570181900573519.0,22.15087535314912,14.84291202192666,8.376568523043488,4.823197139349632,5.840988965146511,2.8798780442338074,4.013863052507354,17.584437128836452
1570181900589592.0,22.234115758654323,14.901290944945663,8.40614198815551,4.845606658696621,5.838605977107911,2.850523618603243,4.011082445017355,17.666209674179967
1570181900589592.0,22.273886147139415,14.947478805429949,8.44050579687304,4.872778295824785,5.838756189961622,2.824837078620469,4.0113353156750255,17.766038490426283
1570181900591518.0,22.2437933354194,14.959111510254875,8.480116837908655,4.903669583322535,5.845067521704067,2.80565839211142,4.0082394059565685,17.872128434459572
1570181900591518.0,22.182326920150583,14.941689736983012,8.522802122529146,4.937800992379195,5.858189995118794,2.794105173394328,4.003511159736806,17.976227095649165
1570181900612585.0,22.12117819051202,14.90566199928427,8.572036397917309,4.972063342780427,5.878608833038677,2.7869897899074254,3.9958795325974337,18.069893051428146
1570181900612585.0,22.003608249575034,14.844727344455508,8.6226467202699,5.003613583683299,5.909322297687697,2.7845896231599037,3.990818591161289,18.15514018387865
1570181900614355.0,21.78322340995745,14.744558392714703,8.668651802953564,5.025881511581149,5.948371312997673,2.7835411853904724,3.9811450708065634,18.230395972080807
1570181900614355.0,21.53477256945375,14.63192624218845,8.708324894226168,5.04031053247715,5.992251644769534,2.7824544038029817,3.9683700978330148,18.309578981557582
1570181900635382.0,21.30310916693722,14.527343160492705,8.753714010765256,5.056229721178744,6.039173950292912,2.78356958796227,3.959980475240424,18.402439001612013
1570181900635382.0,21.060256990218647,14.430089991258658,8.803832790857514,5.08187929264022,6.089276811473574,2.789298871543831,3.9633967520002145,18.51299635330091
1570181900636825.0,20.803584902773192,14.325132288187984,8.857053147039414,5.114914797592701,6.140235196020838,2.7946266430426276,3.9720015864220883,18.639950421865088
1570181900636825.0,20.541564999684482,14.211280654184002,8.914527378240342,5.15473162530274,6.191022171097245,2.7971303758248314,3.9885216616878876,18.78370394636352
1570181900649365.0,20.275104457016386,14.103844374614539,8.980036013838829,5.19846100406683,6.243560870017763,2.801793588649595,4.011588757068931,18.936010283663503
1570181900649365.0,20.030251785237855,14.01978052567361,9.046697813793807,5.241992596650848,6.293683546778905,2.8115076697869283,4.041347399152014,19.09630672534923
1570181900657361.0,19.804216484120534,13.95090556191118,9.118355587956144,5.285748065719552,6.343174488823144,2.822941258712718,4.073437538639568,19.263888401737514
1570181900657361.0,19.610951871717432,13.899455018768178,9.198083119829153,5.334679825905668,6.4018406639363645,2.837253996978614,4.111659652138971,19.44724628387808
1570181900672202.0,19.44663675569566,13.8500581077261,9.284934702617823,5.3844544070906935,6.468887874697533,2.8551866327960767,4.151749726970555,19.642058077282496
1570181900672202.0,19.28534806313893,13.794594871928975,9.37325977724444,5.432966276921195,6.536455688617912,2.8761173120271635,4.1960996930420205,19.84584180564105
1570181900674204.0,19.12113526355236,13.733810068631936,9.464190874473616,5.481434578949395,6.601797904189596,2.896060510876717,4.242625124463821,20.04850110159861
1570181900674204.0,18.952078595812896,13.666358315478872,9.55388342214193,5.531655036473691,6.665564706892818,2.9147506679732045,4.293747298636834,20.243230643934996
1570181900686218.0,18.736583286923032,13.581135591771702,9.645712325592626,5.581067041362525,6.7218716564598155,2.9346436401367573,4.345211196493836,20.429330121901742
1570181900686218.0,18.466350359408825,13.486961780221174,9.739054508069295,5.629549068671925,6.745969632617729,2.9546608305658126,4.39787844527836,20.617784328378416
1570181900693153.0,18.189297982551683,13.39342514999666,9.833520281381261,5.674821386988801,6.7052795770823215,2.962700019174606,4.443183698244737,20.810074558106958
1570181900693153.0,17.924579554984607,13.302892358175285,9.928571778547251,5.716578189643499,6.621036413191744,2.9537738749774776,4.480925169036219,21.012791241629873
1570181900710098.0,17.65757090486157,13.21488284321499,10.027652910439546,5.756033856145661,6.545707351907603,2.932164009654503,4.515020636306001,21.22388931273428
1570181900710098.0,17.421502027962678,13.14540562173617,10.124747550800581,5.794365851462028,6.491135225049205,2.900502959980523,4.552992542272699,21.439015776828054
1570181900711097.0,17.23223503177329,13.089157663807745,10.220485706671882,5.829647897018794,6.447485800025551,2.8577169418261374,4.583700965928717,21.646936841448458
1570181900711097.0,17.06426381291089,13.038871160448242,10.316414850487773,5.867638353897143,6.405697714913423,2.804168900124214,4.610731489326938,21.85574474556452
1570181900732191.0,16.89497015179826,12.999644830563659,10.421302492600883,5.910528801629106,6.352834451389438,2.743668533839746,4.642653803847691,22.07333374560536
1570181900732191.0,16.74461062631998,12.98888425246759,10.53532584180661,5.955242350098207,6.277679893008304,2.6851186667848843,4.6800389953301575,22.294804984431348
1570181900734200.0,16.63037195523855,13.005531351545727,10.656540320970661,5.998780455572394,6.188959472663665,2.6303725671601907,4.712791723936028,22.498195186463775
1570181900734200.0,16.537507461170414,13.043282381615542,10.780012963073515,6.041992772116336,6.108796508621533,2.5805001266577907,4.743173905399108,22.680754315545975
1570181900746209.0,16.43220174583124,13.083308952576871,10.906679520593556,6.083138456976005,6.035088707923528,2.5391788312115713,4.773865392044356,22.863470556895795
1570181900746209.0,16.31119277491667,13.12394756851564,11.035200966064275,6.128348046132358,5.961565506680565,2.5048911113375674,4.812947881079515,23.06442556297653
1570181900754985.0,16.18504794172974,13.171352216347296,11.170281875566154,6.182439028256035,5.893515900784115,2.4720585231871697,4.855506967460287,23.270507643199018
1570181900754985.0,16.06914087568742,13.234517826029087,11.309983115812313,6.241765636679371,5.8294249743410145,2.4419348797999376,4.90344661079586,23.47237968011078
1570181900770085.0,15.971943774324536,13.309901065554206,11.455304476469664,6.302425689362403,5.767774606577146,2.4165817710890094,4.95171945367965,23.661270936658475
1570181900770085.0,15.896867676069776,13.398919508786149,11.606165976169185,6.364632053831624,5.711745668433621,2.3946732865773943,4.9974464548676165,23.841609976191965
1570181900771025.0,15.845193689154126,13.502316062109026,11.766588689409943,6.427697582284469,5.668272509790145,2.375183272603004,5.036960096913177,24.014823108620444
1570181900771025.0,15.820936143153522,13.619773586681536,11.93360217578463,6.495844619820847,5.6369441279660215,2.3613118553768335,5.073196234323052,24.182794621867195
1570181900791886.0,15.81224030819169,13.7436630325146,12.106092331708398,6.568560649928279,5.611654104925267,2.3522697539275628,5.106157126998944,24.3472629988027
1570181900791886.0,15.817043848912581,13.878171974347685,12.279398917019115,6.6424126397561425,5.590991600377864,2.345350844964244,5.144600642545799,24.51395554761794
1570181900793932.0,15.837755396254302,14.017024056024828,12.450918122087606,6.709540954187689,5.555009669077365,2.3339855205304256,5.188014407561244,24.674456567868074
1570181900793932.0,15.885642934472177,14.161711244919507,12.618731608834622,6.7710747097857755,5.494884588081391,2.3178498476946294,5.235555130177936,24.82207224646647
1570181900805983.0,15.951285112443307,14.31067487144215,12.792141542892283,6.8342078219397555,5.430551575942205,2.301589929820986,5.280289203198253,24.93812842202242
1570181900805983.0,16.004905589481226,14.46273749463455,12.973376607926111,6.903321640607838,5.359292138954888,2.282569781989898,5.323493788010534,25.002450464282145
1570181900814829.0,16.023136622339017,14.61002994126694,13.161631535884954,6.97381112564787,5.268037244733807,2.259148180041041,5.357968827027751,25.015137670583933
1570181900814829.0,16.033907807090625,14.757151632258875,13.349538677128162,7.042494585466042,5.169557796625163,2.2381569382375046,5.374559125606311,25.00781557398435
1570181900829989.0,16.05923238304121,14.905809709085789,13.536086417610468,7.109679375861471,5.085211818255474,2.2183944114305247,5.3637348359546095,24.963058627934956
1570181900829989.0,16.094818571511723,15.058945847235869,13.718362939625004,7.174544460088434,5.020590318045557,2.197736397519424,5.322975828319402,24.828967831651372
1570181900831783.0,16.130944566045123,15.207308022944732,13.899777968214158,7.235032929590639,4.968491495505655,2.1772265303727343,5.252423648292976,24.60762730181974
1570181900831783.0,16.146940455107128,15.346576763022762,14.083464509165251,7.296702516305628,4.922915887164933,2.15835111723368,5.172213065711387,24.355741121549514
1570181900852759.0,16.133777948375773,15.478126991112427,14.263925958333228,7.354699168506269,4.875978571201879,2.1416040552800175,5.09909717910943,24.14100497149062
1570181900852759.0,16.105793547724705,15.603126476621409,14.41466924488616,7.397981208912535,4.825612984482565,2.1284797483876083,5.046398868797928,24.012393130503096
1570181900853925.0,16.053546727571682,15.71795929831325,14.52659630460823,7.429779524044143,4.783121852328679,2.1202729955305344,5.010719141582505,23.947911753585434
1570181900853925.0,16.002882210106414,15.838866770209695,14.616133924129974,7.460339652663714,4.748666261552067,2.118365474515119,4.982834469377308,23.92229202492772
1570181900865691.0,15.982445355013436,15.970727132243796,14.701448977580197,7.487760363399777,4.70710216446382,2.1200877442872077,4.953140014803722,23.92017568430913
1570181900865691.0,15.986752521018923,16.112999226401836,14.779586650163242,7.506867019835373,4.650098515248108,2.124818588307284,4.926780419759323,23.942815061963774
1570181900874660.0,15.991159702767789,16.242311976412605,14.841186776447419,7.514559322002221,4.5705814503171664,2.131151812621187,4.905460536952959,23.990875553531883
1570181900874660.0,15.99794422326448,16.342669736523224,14.870608639715723,7.5195877629614225,4.474333686230493,2.1359899667180198,4.886035820626991,24.052624399184076
1570181900890618.0,16.024906423055516,16.405778925567994,14.875053847475682,7.524708496918378,4.3858498017323155,2.136147291904135,4.853221055626987,24.10933298344062
1570181900890618.0,16.07093297815582,16.433028613000108,14.878265305530155,7.523612050080689,4.313660592343784,2.1347818410953963,4.803935643963937,24.158273130425663
1570181900891624.0,16.115209398658745,16.429307756080483,14.873228937130435,7.504723673993222,4.253519584077364,2.1329802201332746,4.751911839139995,24.208730900411105
1570181900891624.0,16.13713848656577,16.382427087103938,14.826958453299154,7.470277856712363,4.205900765894455,2.131409551900278,4.708742491629825,24.262280176360303
1570181900912720.0,16.112297341394083,16.29982361982525,14.746413923604882,7.437038266841226,4.172097589621086,2.1314267689754014,4.669554642107188,24.311458049958553
1570181900912720.0,16.013296884435587,16.219371688314272,14.652468952550203,7.406691700957075,4.15039970953139,2.1336615576415245,4.634243389593577,24.36175970498983
1570181900914555.0,15.775283132782285,16.1177770015122,14.555275086425446,7.371487215038439,4.131272432913762,2.1309896979057767,4.593861329537317,24.399043173757356
1570181900914555.0,15.430298187940513,15.992019606450778,14.463436150368441,7.337229325104337,4.1122319911929965,2.1197748239869085,4.550685645474023,24.427435249741873
1570181900925524.0,15.112172924733152,15.869766349589026,14.383598465757368,7.314111991144188,4.1024219293809265,2.103644566280273,4.512824344729169,24.445952656140115
1570181900925524.0,14.866878042836973,15.761870335814496,14.289659397258617,7.305951311492475,4.103046336808193,2.0886527816330194,4.480907625778908,24.418537540135738
1570181900934542.0,14.64286750484888,15.65992703541225,14.138468373951968,7.29663884473043,4.1063785695231045,2.0762843643260407,4.449513488231199,24.325865327488238
1570181900934542.0,14.423192810395518,15.562477511592007,13.950276201286242,7.278131414196527,4.1099868400618496,2.067446885409143,4.422091237294007,24.203850898252067
1570181900949677.0,14.221628163375962,15.480201181648981,13.785438345678681,7.254675562012732,4.117566492440971,2.061463372508401,4.4003160822086835,24.090086958896944
1570181900949677.0,14.034453951712923,15.398202604892482,13.635410260506076,7.2295665893581385,4.130538621445998,2.0610603553721907,4.3919067624902395,24.00832055773708
1570181900951539.0,13.851885857966948,15.276964575217768,13.486024050940756,7.214549992537749,4.146306723694732,2.0658463348385228,4.3928851336496395,23.94550047462518
1570181900951539.0,13.676848526228076,15.11269071129745,13.339565189305754,7.217363947455187,4.162566947146413,2.073622702872752,4.402570467874828,23.885853056373964
1570181900972504.0,13.51079480935931,14.921592397221996,13.169550538910554,7.229054525241043,4.181160811196316,2.0834281251924427,4.418035780886668,23.83740136640633
1570181900972504.0,13.356304978071561,14.73273373457551,12.97034870177645,7.242714628234304,4.208433933787065,2.09661815648323,4.4393334208524875,23.805839487727596
1570181900974393.0,13.203365739315922,14.5693082798309,12.786285118567111,7.253703253579105,4.243865601626958,2.111409941025309,4.465279181452344,23.77043958756832
1570181900974393.0,13.05704223576269,14.438274215158668,12.634645980566699,7.26033798673116,4.278803184725014,2.130165705412511,4.499010418442291,23.722552655291803
1570181900986430.0,12.919282073273557,14.331568228824125,12.476385781049368,7.256595795396653,4.308188854276907,2.152756908803865,4.540350800767478,23.673484234980762
1570181900986430.0,12.795247109746748,14.25660540853035,12.29247259430306,7.244429989959003,4.339143714480851,2.1779219868751007,4.592733592446677,23.64655716418292
1570181900995337.0,12.689942132442347,14.215485279666195,12.106874837464455,7.233024952170062,4.378315973757323,2.204015983765341,4.653666065776724,23.64448630032108
1570181900995337.0,12.610420544475401,14.194104952847573,11.919438514801154,7.228485302117255,4.4215207759997845,2.2314013891107995,4.7226952204592365,23.66288872681151
1570181901010305.0,12.55154137254319,14.179300357761736,11.740583871067278,7.23683351120819,4.464068597412197,2.257246153877682,4.7903600618929705,23.70445299274599
1570181901010305.0,12.50206227878677,14.17296724763091,11.588517003294871,7.259680360613929,4.507297250453636,2.28308278391781,4.855183783530122,23.780034601305506
1570181901011387.0,12.453512750213621,14.16676746972144,11.464181305174446,7.291041587706801,4.55281497435696,2.3109297977862715,4.920159368947065,23.883295062594517
1570181901011387.0,12.422284885074143,14.164365268981445,11.364900266241724,7.326020070610065,4.599701288367471,2.3405752035344896,4.990194271813481,24.000908459917923
1570181901032373.0,12.415388405522386,14.171749393241123,11.288791586268879,7.361134948914294,4.6484497421856945,2.368537011348044,5.0568197116440174,24.103207154149672
1570181901032373.0,12.427055146419079,14.190507611875763,11.239410276176129,7.3989191693455325,4.699834241444066,2.3938658921604716,5.108961441703729,24.162866819412624
1570181901034234.0,12.451223632053281,14.218405643277128,11.212358400680515,7.439560240593702,4.748070945494799,2.4143191263697403,5.136733189398786,24.18247574385984
1570181901034234.0,12.48258054075883,14.242066988064282,11.17050991923259,7.46747530857637,4.791024936983838,2.42968548431932,5.150976044119378,24.200316860984273
1570181901046205.0,12.511009872195284,14.2505101406075,11.096770094313054,7.465220182218505,4.83069229054889,2.4394191444534816,5.1615356290025485,24.228647514787774
1570181901046205.0,12.55124185572571,14.255028639078946,11.01204364565436,7.441526584386735,4.865609170634081,2.4444880577496484,5.166414961844466,24.251103916748132
1570181901055271.0,12.61205956368909,14.250747145949505,10.912922037157742,7.401703870797055,4.891171579817745,2.441774263695757,5.1526427375482085,24.247003420686944
1570181901055271.0,12.688714523898462,14.255648061855762,10.795037846655413,7.347468500477952,4.903901196293954,2.433230748885184,5.12608202926165,24.23741403024477
1570181901070181.0,12.775933181432606,14.291517507963851,10.677165912733493,7.289045895238157,4.907358509788592,2.424424759805135,5.096257501199039,24.24815763057569
1570181901070181.0,12.880278646805564,14.348888327284117,10.563922093802534,7.227916744658126,4.907771044381468,2.4189164425734426,5.068088489763331,24.278406470604377
1570181901071223.0,12.992351444140509,14.40771687115157,10.46445887576344,7.153354013299305,4.904139813234495,2.4136520970322257,5.045780836726686,24.3207647974496
1570181901071223.0,13.101597140346458,14.463670215357723,10.337972285584865,7.042608543666936,4.892479470633061,2.405440079861948,5.031343221089603,24.355994592110232
1570181901100071.0,13.195867895901003,14.50930048156543,10.153955920974665,6.898661597047773,4.879030059108237,2.3945045380137606,5.006535117749024,24.340240266973645
1570181901100071.0,13.270908090200994,14.548675686230824,9.967553398160954,6.759099848312876,4.869378765918944,2.3831978711518693,4.9602124704515225,24.279421101416478
1570181901101160.0,13.326032334164339,14.587449516394184,9.804799929192072,6.635170497891588,4.863849740126245,2.3692731438253403,4.898660049174887,24.219828160141567
1570181901101160.0,13.375222977178396,14.586419039991945,9.65535417944608,6.524713860891906,4.867511050354615,2.3572451345275183,4.833457835384686,24.181509440566156
1570181901106205.0,13.417958302980434,14.47711843502745,9.520718066419512,6.425672190095977,4.877045257373883,2.349692596193267,4.769277496229606,24.163454072310948
1570181901106205.0,13.463713902086734,14.290454303482036,9.396735150009308,6.332263124478627,4.88475685609605,2.3448734911069073,4.715686548933165,24.18744830529945
1570181901115019.0,13.522054339806843,14.115156249463324,9.279036864211195,6.239739198825051,4.89010345131256,2.342471773923056,4.676325958305523,24.258740962274295
1570181901115019.0,13.593803613697343,13.956331919221876,9.147973615436548,6.138301133755631,4.895873282547155,2.343040960829048,4.653720016823737,24.365673651211427
1570181901130189.0,13.682450861054969,13.787867732490522,8.996548155354787,6.0247914328955545,4.907702069273831,2.343936940102971,4.6415574596014295,24.489281270684728
1570181901130189.0,13.794027875055802,13.64270820214842,8.847562905245761,5.909486522991174,4.9289119439224764,2.3475531865056065,4.636090667772452,24.615171120554443
1570181901131469.0,13.923117831910108,13.542877506303233,8.728256661615598,5.803187286670824,4.953520978055418,2.3537343012485685,4.632615761346663,24.719682107979896
1570181901131469.0,14.065756698050556,13.473284196416552,8.643336853487028,5.709225053950546,4.98031252302724,2.360323989211044,4.618232627309029,24.78060849324323
1570181901152134.0,14.212160075262839,13.410337627695064,8.580099806921908,5.624798392108438,5.013209644542228,2.3662043845385043,4.586108302593903,24.82178763695704
1570181901152134.0,14.364570296435804,13.356356677647485,8.528592804326603,5.550449818656338,5.050017882481955,2.371082785503437,4.554166767538756,24.880470327955194
1570181901153995.0,14.510215320148395,13.326570762395871,8.493998254334388,5.489789059059606,5.087769609663114,2.369876490697478,4.521894176836226,24.912351245534595
1570181901153995.0,14.64813461772442,13.327807619279037,8.474214257930909,5.446753228393229,5.126767695322298,2.365641206883899,4.4762541248390075,24.89923461809588
1570181901166083.0,14.781394878170449,13.340924030285406,8.463489052189589,5.422490420392715,5.163889209413363,2.3628584587323127,4.421147935333223,24.884644857560748
1570181901166083.0,14.906411395454466,13.356055459672337,8.464824819125397,5.413823136304241,5.197648366749728,2.3579661759094157,4.363650224961309,24.87648218122722
1570181901174857.0,15.019803653402494,13.368420961986887,8.465648568457137,5.41253155873381,5.23466679046051,2.34897455807724,4.3009713696717995,24.875029500682913
1570181901174857.0,15.11288841386557,13.336788956839936,8.440744129431655,5.414746112876032,5.280001495593027,2.342105702857334,4.240081617514058,24.90680716112126
1570181901189822.0,15.170747335526048,13.248255847993962,8.403284673966432,5.421206961161007,5.329539783542415,2.335585893403522,4.182693840868866,24.954379976067955
1570181901189822.0,15.223495768006494,13.148919158267255,8.380695068518275,5.429203527470669,5.374877915080569,2.329628132816515,4.133634209631292,25.002128362407973
1570181901191812.0,15.298975477010362,13.045192215655293,8.370560180569987,5.431286277063445,5.414497338620528,2.32447094053843,4.087318812623565,25.041532788444115
1570181901191812.0,15.395919419958757,12.936231934115753,8.362846449247577,5.424292906903264,5.447494660778833,2.3110683061756006,4.0374860864023585,25.067273941810562
1570181901212797.0,15.505997072403519,12.830750657024009,8.357807203346775,5.4035272589617565,5.469710164351496,2.2860319345959335,3.989314126873065,25.098488314401155
1570181901212797.0,15.626535081085898,12.701755764439124,8.345917997505397,5.369074401612233,5.490161275290853,2.2626159703601796,3.9473455188059474,25.15202062801149
1570181901213841.0,15.738820861765443,12.53287224376298,8.330928956047952,5.332197765391208,5.5164059627925806,2.2447155782850774,3.9099497529686205,25.21659710481717
1570181901213841.0,15.845952322126864,12.367627032128967,8.329160581816742,5.30275876244615,5.547727983237037,2.2308010828254337,3.8811249688318363,25.293084884245378
1570181901225856.0,15.953717488341665,12.234496364044242,8.345987799548972,5.283100586868345,5.58080069493571,2.221751512590113,3.855054742106495,25.36359770743245
1570181901225856.0,16.053865705456847,12.110492755629622,8.376380310023684,5.274259265777273,5.6098301455955815,2.216706118001192,3.829208389709145,25.412898350775475
1570181901234699.0,16.143557535551587,11.964480295468482,8.420601311321256,5.2739275079580645,5.63657554487065,2.2139901639253656,3.806026763189806,25.45071918599153
1570181901234699.0,16.232960220466403,11.80315206600003,8.472603797849262,5.282736904005539,5.660148908084905,2.2137850734840785,3.780251515420898,25.486129534625608
1570181901249673.0,16.30982830063672,11.646690404012801,8.50612747192957,5.2938504056869995,5.6757164173425645,2.2146472276006683,3.7460710267347976,25.535336094928358
1570181901249673.0,16.331576757038114,11.493566955581525,8.488111700860768,5.284437735670392,5.690005662692488,2.218324942486268,3.7133680213663505,25.618550109193247
1570181901251660.0,16.241669936930457,11.327565908797494,8.433706793824108,5.252491829402512,5.70879136082001,2.2244164997038895,3.6791443909970116,25.71442701750689
1570181901251660.0,16.06471235788001,11.140693436861872,8.374728605684508,5.220180206811269,5.727487629751686,2.2331779145557547,3.642139266027261,25.818025019204573
1570181901272806.0,15.864362954393462,10.937562480838515,8.317344069348872,5.187150138338427,5.7333005685931475,2.2389373458120274,3.6031023156488864,25.935160327660583
1570181901272806.0,15.657028368851318,10.744414238704742,8.265856396738487,5.1420845794489525,5.709292121148812,2.2367179534392037,3.5603935656552563,26.074917683552865
1570181901273593.0,15.454777487797397,10.5707965801525,8.213584874436755,5.085156583037097,5.663649378389837,2.2304416776846057,3.519375590575755,26.252880628584133
1570181901273593.0,15.28938696445771,10.400786289228845,8.15170793426451,5.0316376642725045,5.6250711838732235,2.227290281024795,3.4902150100909304,26.46478533703117
1570181901286559.0,15.165211714977733,10.232725296767933,8.100370624162315,4.995295668440875,5.602897745427064,2.2254303710062433,3.471630526053139,26.692516493843403
1570181901286559.0,15.08683908093607,10.078214442722787,8.068775713942292,4.975459580621481,5.595613601826843,2.2249508327367624,3.4642092956115804,26.945589488133614
1570181901294787.0,15.038721268169793,9.933871878450045,8.054413781591006,4.968888958147083,5.600430361708766,2.2268203546072773,3.463259792788423,27.227870400835858
1570181901294787.0,15.01273918887918,9.794333844840034,8.062449850064239,4.974258805719469,5.611196561070063,2.231481249985298,3.467128967706065,27.53527340523439
1570181901309534.0,15.01723537674748,9.653827237544615,8.093194813588903,4.98367955240044,5.621828430911722,2.236658138404118,3.4742359987891676,27.861594592018353
1570181901309534.0,15.048918242454992,9.522063804612458,8.137280598328806,4.990236650745029,5.621703625820265,2.2382443505996323,3.485042398260737,28.19763236081403
1570181901311593.0,15.082344247047654,9.409800652032285,8.188254905848979,4.991833715447966,5.60270280758595,2.2335240441129,3.4946670192603566,28.53425795452341
1570181901311593.0,15.089346274712995,9.301831918585183,8.232847922222511,4.989988683597142,5.5742656910781525,2.2234918557699044,3.4996438803864507,28.871604862730784
1570181901332562.0,15.052337242139107,9.186168965401698,8.261886164346006,4.990329451918021,5.550965769649224,2.2086149143506173,3.500175712494191,29.207465632961366
1570181901332562.0,14.97805837720362,9.081488748019064,8.278196354396393,4.999905283722134,5.529001207206669,2.195286330175257,3.5066747702013683,29.55046178702174
1570181901334243.0,14.887601528962325,8.97740376754691,8.277755237503559,5.012044667730903,5.502714943784124,2.1829197797418782,3.519737090135305,29.883294747804253
1570181901334243.0,14.807484093644023,8.851412374793885,8.258740936048174,5.019472330809758,5.470430571072,2.1676954081085396,3.53601721984757,30.183664430207287
1570181901354581.0,14.729299700835965,8.724003281712841,8.235717372957513,5.023911688383259,5.42935032677284,2.1485925427730685,3.55006921563001,30.472412703305704
1570181901354581.0,14.633190892117675,8.6250782142788,8.215955182530912,5.025531970071864,5.384820910503898,2.1275279707882215,3.5657559350420054,30.781077895834322
1570181901356373.0,14.50843514778957,8.554693391983553,8.210256415116312,5.023338763156163,5.339647357774007,2.1072226646018577,3.5825035701136363,31.097718167117208
1570181901356373.0,14.353182310112203,8.506856251197908,8.209112898124213,5.021863338198327,5.299492574537399,2.0927891824418263,3.60405343829475,31.413772692659375
1570181901369340.0,14.14650677431827,8.474198495843034,8.183302827260814,5.023023786938222,5.269114006276484,2.084108804190412,3.630810652869651,31.731872397508237
1570181901369340.0,13.909527836330023,8.458738706682709,8.13282826994681,5.022385014193309,5.2438646566738365,2.079041342933424,3.6644175236683054,32.04818612841318
1570181901376326.0,13.690084585776502,8.461172801282462,8.08326303215091,5.021044217531046,5.216120657496069,2.0748348940782644,3.7034259197992956,32.33163932935697
1570181901376326.0,13.481178642804585,8.47396888649122,8.048653285185788,5.024653323914855,5.184907666716673,2.0719529713520246,3.7500509653104674,32.56498885609779
1570181901392459.0,13.268444505005226,8.49090858437437,8.027223158422355,5.030827005040549,5.157600382144314,2.0670046495682994,3.799805538432586,32.766336790388024
1570181901392459.0,13.06780493712331,8.521438275587464,8.010449710464584,5.037430290753584,5.125830822652065,2.059873840134735,3.8513712620932727,32.962191049824725
1570181901394272.0,12.88181800401547,8.565808473734547,8.003753656182369,5.048010237986698,5.079833751465013,2.05466326194087,3.903548335948308,33.155757331606104
1570181901394272.0,12.72171024306037,8.61992364816702,8.007996332626872,5.065374943274765,5.030267792923098,2.050623049641113,3.956795408736066,33.3304757317889
1570181901406475.0,12.587915012522444,8.669639068759263,7.998822347279456,5.075739886854014,4.97746647349626,2.040031930802654,4.004113359497152,33.465113339932216
1570181901406475.0,12.464846415896705,8.710955386572214,7.967681982529796,5.071346022827488,4.920229047755792,2.024730464448388,4.04926995317435,33.52155341467445
1570181901415221.0,12.338154641760335,8.75989173756564,7.9379338885144834,5.064910440563589,4.8704085796521115,2.0121849366616855,4.089661025285111,33.42289953407044
1570181901415221.0,12.223688012924551,8.825752440175107,7.901637644759243,5.053271839104144,4.824539883542677,2.0059055478184082,4.115405640767243,33.17252035968962
1570181901429334.0,12.14310052116936,8.901701998454673,7.843110368424439,5.027099361763746,4.777204274981086,2.0050102510201087,4.12597874027267,32.86891067713182
1570181901429334.0,12.0998070987646,8.988641020872777,7.773069170693849,5.000796309386751,4.735626631340719,2.010981984156744,4.138949790656788,32.5504202679333
1570181901436162.0,12.085707638736109,9.0801905692962,7.699174739549796,4.981679624548942,4.701898192003799,2.0216642849842263,4.152036801085851,32.16496077716141
1570181901436162.0,12.101670548819934,9.173973248742458,7.620053250067284,4.962996957827702,4.671312159116591,2.033969910898125,4.15695960571157,31.731960138762254
1570181901452330.0,12.138263083291777,9.266610690495812,7.537444708978266,4.939118859491902,4.641722512220569,2.043719232335782,4.148285691223191,31.289177150988305
1570181901452330.0,12.177585210024578,9.34036268631889,7.434973742586801,4.90088187979704,4.60882411408493,2.051897234387415,4.130959311775451,30.844526962379607
1570181901454113.0,12.20325522177582,9.385098389583764,7.3019131263973405,4.846295813629709,4.563907386075547,2.059829804850185,4.1123023652624004,30.40505487690917
1570181901454113.0,12.236192505560716,9.430661605883811,7.167576762765226,4.796453761664275,4.51410535842079,2.0692650760111757,4.10200887993002,29.955536285176805
1570181901466080.0,12.296164879369275,9.495358137035184,7.049680620802948,4.757913347446159,4.474570300018816,2.0805716325657797,4.099993918717328,29.49953930777972
1570181901466080.0,12.380811551674926,9.575099740076555,6.939233835295283,4.719598354799609,4.449492434123969,2.0952374817159867,4.104712626797247,29.048151285461756
1570181901475058.0,12.47327834591212,9.65881350482161,6.840489420266857,4.679470161481406,4.436594217171701,2.1100473687400965,4.112111465766549,28.613172488518945
1570181901475058.0,12.57432343166123,9.749351619664282,6.758152986235106,4.643487186737434,4.42990523644203,2.124935767116588,4.123985259841637,28.229698435869206
1570181901489168.0,12.691734159484874,9.848205607979756,6.690959475251799,4.614503929818723,4.425669559339749,2.1406986187548576,4.138182297683857,27.908576928072122
1570181901489168.0,12.823001619237314,9.953711585035057,6.637771466305484,4.58835888643206,4.4281984308274,2.158096925174151,4.15595906004635,27.647216287040678
1570181901496005.0,12.940400507481154,10.052483687865157,6.601097734445688,4.565092636794304,4.440397898984422,2.1750388839576087,4.174089147284363,27.4373830660561
1570181901496005.0,13.034016978297123,10.131717240844127,6.580807069484002,4.550542060672296,4.459271856220186,2.1929254592398806,4.197413080109897,27.27026166570135
1570181901520003.0,13.12288731262645,10.184426115371046,6.570325790813835,4.538098232791166,4.477249195868259,2.2105916997934294,4.226506911782233,27.13814205557205
1570181901520003.0,13.229099367850932,10.199547658104972,6.559309928091976,4.519510900140763,4.489665051938868,2.2258898617881955,4.262348080843494,27.05312704603723
1570181901521011.0,13.34664457391319,10.159844733738913,6.542337626250335,4.499691311453486,4.500634221708904,2.2399416372690952,4.302462458737817,27.014955502109657
1570181901521011.0,13.473996708184945,10.069518504682042,6.517366400032262,4.481420614100744,4.512469854906818,2.2567453192731546,4.346716797134394,27.011103894425666
1570181901535004.0,13.6136413756534,9.958641636829878,6.485329514952168,4.455772400066842,4.520912809370245,2.2736835466143126,4.391183893619284,27.0320534973871
1570181901535004.0,13.76980506751536,9.871950810785071,6.441573259117778,4.415108660087378,4.5168923957399185,2.288118392646257,4.430618967862887,27.05313883354602
1570181901535894.0,13.938032981403703,9.81384775404695,6.382002673944573,4.351752345284741,4.48813677474907,2.2950401327567875,4.452087534845738,27.013419361545967
1570181901535894.0,14.11799487835572,9.770112055005981,6.311049772684424,4.267428857276954,4.438897014280193,2.295730756566336,4.4617240081256,26.929278994293337
1570181901549039.0,14.304909212971822,9.736541838035894,6.241421959400748,4.179802106994241,4.39031599467573,2.294036853932183,4.467796563306744,26.857129074047656
1570181901549039.0,14.495211809135618,9.718811714566643,6.177633412346813,4.102688128610399,4.353431512993092,2.293904263118212,4.474916577700142,26.799439659692222
1570181901556122.0,14.679340894968615,9.716240661539175,6.121009012575188,4.038685681424992,4.324855180525926,2.2971718922018725,4.486495172932183,26.77758426314206
1570181901556122.0,14.844365234705398,9.716904177543576,6.07754561828266,3.9856663569087996,4.294291474691016,2.3025166656973663,4.503865928361901,26.801546387350943
1570181901572794.0,14.970112055627276,9.701928426575956,6.04784043736823,3.940396387649023,4.2554911134309155,2.3030196674426344,4.521188321834132,26.84427475005372
1570181901572794.0,15.073689827597716,9.680776807860491,6.021984663180588,3.9012739601895214,4.213861872976994,2.2982596945553273,4.54310975531626,26.911448375551547
1570181901573790.0,15.187169472875361,9.670107869625406,6.001152172474637,3.8648748228652994,4.170694555279882,2.2907609223075225,4.567513174970807,27.01105875216764
1570181901573790.0,15.319211802404785,9.670459862116386,5.989312688593151,3.832503273694806,4.127668865200955,2.285097465787498,4.597087781734773,27.162596993025478
1570181901594944.0,15.456936586562819,9.677064935878864,5.987274607162456,3.808366580655641,4.0926832565178195,2.2849866941961237,4.63403766942706,27.379487112753086
1570181901594944.0,15.588833717543073,9.693142490553111,5.997457832289978,3.792935446569816,4.0681462203889085,2.2938069987813035,4.680829383026445,27.657261375363703
1570181901596736.0,15.69334729194666,9.71537321250397,6.019183750217569,3.7788019820962018,4.053311539777361,2.30915669766592,4.7353466985873505,27.99056009580731
1570181901596736.0,15.774390310130599,9.74781891454223,6.039328345491436,3.7543532450323776,4.041184602205845,2.3287938357869105,4.796321194142651,28.369280021000474
1570181901608772.0,15.8460247007471,9.795397215585176,6.0488811789442725,3.7164748853797263,4.02429672715605,2.34947055078131,4.854266749027348,28.775426579479632
1570181901608772.0,15.921597536243754,9.86099230362309,6.056294955855462,3.676049305191526,4.006872382071459,2.3710275198046524,4.909069055566088,29.216151290784833
1570181901615873.0,16.00333893772204,9.939888297830816,6.076323289742466,3.640416873980095,3.989930558316557,2.3941921759245717,4.964534617594872,29.694972667667926
1570181901615873.0,16.08976558578014,10.026200758055221,6.106774480573427,3.6104063537615025,3.9689749000583436,2.421839383818111,5.027596416371179,30.199014889099804
1570181901632640.0,16.16721430526122,10.112523141229046,6.13921359211795,3.5813580490878856,3.943393575527762,2.4504770921304537,5.094185133142243,30.723477709480708
1570181901632640.0,16.226223029260883,10.202475297920365,6.1712589473828405,3.546391547971425,3.908840048592131,2.475717783592648,5.161466858498837,31.280686601685463
1570181901633630.0,16.275235120180906,10.284612346780353,6.201470961006166,3.5078212309914805,3.8557343307594114,2.4972880852623685,5.230332076858905,31.863465225591153
1570181901633630.0,16.334320323235485,10.348487935241,6.2180452011020115,3.4765626739225444,3.7898374688375283,2.5202441166106344,5.30879518385838,32.467079953550545
1570181901654800.0,16.409138716639422,10.40539020881573,6.225534249261889,3.4573133885748977,3.726931167380092,2.5454303405629712,5.394347078117634,33.090205650869635
1570181901654800.0,16.500645486637687,10.47766205910228,6.238892120884955,3.4469911196109027,3.671042720511703,2.5755969135486323,5.488098888663071,33.724759313876696
1570181901656572.0,16.598886340779142,10.569059959305113,6.260395315160904,3.4357262195052316,3.6177338956407032,2.6107842662208522,5.587923067283286,34.36056363901516
1570181901656572.0,16.70884434258407,10.670683798951378,6.284763945996914,3.422673284970851,3.5637288434044243,2.650124704771527,5.691926599976136,34.99583168847497
1570181901668544.0,16.82536659541736,10.759897382579144,6.313065891903215,3.4165157438005496,3.5121643654038577,2.690046085769821,5.797888810837962,35.62881971407167
1570181901668544.0,16.92997004567849,10.81387108356588,6.3392095591084265,3.4184550972166723,3.46408951403533,2.729118605017068,5.909805664730416,36.272102204645094
1570181901677517.0,17.013158673940893,10.796068370937533,6.359979036244896,3.4259089731607486,3.41937642236828,2.764531029710923,6.0227552310766,36.92586706364775
1570181901677517.0,17.10181826128073,10.723459894240108,6.379977750920956,3.4414158053433908,3.383330776931495,2.7948757695650066,6.131126313223285,37.5787152006872
1570181901692510.0,17.20682112476685,10.659606152129857,6.399627843872842,3.464456448206693,3.356486383885467,2.8217574518444,6.23039673910246,38.2266755364454
1570181901692510.0,17.325302785231624,10.603774451541726,6.418647180620502,3.4924024099718025,3.336470834803865,2.850861284254455,6.325348272904673,38.89174746963072
1570181901693477.0,17.45841020311367,10.540411429120528,6.444219535737345,3.5209171212897603,3.3205546829335684,2.8816423709385446,6.405263708509924,39.595245479243985
1570181901693477.0,17.61014629949195,10.499091890290558,6.476747226777025,3.5517683937073268,3.3081549095911487,2.9132380475495188,6.46733761372169,40.338037070489044
1570181901714453.0,17.772503731129373,10.475519239938745,6.520569179312536,3.5900949473645554,3.303583537099027,2.9426584068474226,6.5239357053403335,41.09853123625392
1570181901714453.0,17.925531196892003,10.432160315570393,6.573003804941657,3.6368011621365124,3.306470802388625,2.968134366887424,6.573749336925822,41.877767918434515
1570181901716412.0,18.053520377917224,10.346428828644836,6.6265491250140105,3.688268034558618,3.3108088013822794,2.988977762705857,6.601857033055674,42.685636066230835
1570181901716412.0,18.171783073943214,10.25173421102472,6.676465131690403,3.7409517095339804,3.314138533610767,3.007425080260842,6.598590466638753,43.506028704368504
1570181901728570.0,18.292081469536022,10.185398669411695,6.708845834159217,3.7902666146706028,3.3171953064233466,3.0209608678847,6.565136934396061,44.302246278295485
1570181901728570.0,18.41912261391407,10.150054360128257,6.69369268331164,3.831289510780704,3.3184414151202057,3.0257832055458342,6.528216906368324,45.077992774277895
1570181901743386.0,18.553247277880583,10.117535725381178,6.638497518431948,3.862739100978553,3.319811491623168,3.0207929861387868,6.4842599087702935,45.85984628126884
1570181901743386.0,18.7055449952445,10.081113655135901,6.579016524187051,3.889242786573603,3.325736602509123,3.0111037932405837,6.429551804449129,46.654563130862414
1570181901752664.0,18.874918861694336,10.062132731039766,6.528145449601117,3.914298606232425,3.336664505518827,2.9987091761152858,6.378269634719244,47.47884999427573
1570181901752664.0,19.061839593994424,10.063992349358653,6.485855544506453,3.9449042727984254,3.356028679664404,2.9875440528951107,6.332762210644175,48.35301370605511
1570181901754056.0,19.261834211527667,10.07206405674885,6.451931318105132,3.982665951407726,3.3841121420363303,2.9811245556283015,6.293005508210194,49.24736675797362
1570181901754056.0,19.48090116402888,10.094796046585518,6.4218387460715975,4.027711795955723,3.4167028778829174,2.980626802412561,6.260947122497276,50.153792636226505
1570181901775251.0,19.725759950136602,10.136386212675703,6.394052935923217,4.080263633661426,3.4523995962868033,2.981240295922101,6.229482694450806,51.09199759381446
1570181901775251.0,19.98988466112365,10.184427692623302,6.3617652729621685,4.136016925557364,3.4876126323902397,2.9794912719003914,6.195218145493423,52.06348256637097
1570181901776254.0,20.269458705678552,10.2374731532488,6.331534788111862,4.1910658877648945,3.51920076469492,2.976561645277543,6.160617852214975,53.06950865707512
1570181901776254.0,20.57344442101474,10.315509165050454,6.315745105755345,4.251168816868915,3.552138562361069,2.9787541727401017,6.1367587210950045,54.11822482695441
1570181901797421.0,20.89668166374268,10.41914672658336,6.311922710381872,4.319306046951632,3.5916895014792334,2.9847753055462105,6.1252479822575845,55.19697087014384
1570181901797421.0,21.240055335555493,10.540274594173235,6.3120632906229055,4.39296223081949,3.6397173445193496,2.992207518656045,6.1261984010971275,56.296113485595185
1570181901798199.0,21.599048292214068,10.67333686206431,6.318860063239269,4.468851517270109,3.6952348678000293,3.002796945547408,6.130982565682411,57.38946891196388
1570181901798199.0,21.97350564786538,10.822142859436745,6.336675765638476,4.546065564260216,3.7561699897425784,3.0178161805222286,6.135630600212218,58.46204807082327
1570181901812155.0,22.3643497955032,10.98316646757721,6.371041189777265,4.621337904274442,3.8200249254769387,3.032870848621878,6.147408553039835,59.48883993625783
1570181901812155.0,22.770096234161098,11.153406160308414,6.414789017971657,4.69632312302724,3.8850821203391326,3.046743633956486,6.171427498416534,60.38053640272733
1570181901812155.0,23.185287710720843,11.32605662106365,6.4625907606106585,4.775889652512506,3.9517939693719404,3.059361405831444,6.203659055306939,61.08691814420423
1570181901812155.0,23.608050619995275,11.502739238324763,6.516989445566362,4.860244403442977,4.0194843330175845,3.072718920927892,6.2446836915334965,61.686370656507094
1570181901834405.0,24.026075589130606,11.684619050817693,6.5759536173874595,4.944187580091069,4.084360842149662,3.0850335232994346,6.2864061835345,62.27657676713225
