timestamp,emg1,emg2,emg3,emg4,emg5,emg6,emg7,emg8
1570180384440858,6,-3,-4,-1,-1,-1,-2,-3
1570180384440858,-1,-3,-3,-4,-3,-2,-1,-3
1570180384441873,-3,-1,1,1,-1,-3,-15,-11
1570180384441873,0,3,2,4,11,9,11,-2
1570180384441873,-9,-6,-6,-7,-4,6,-2,-3
1570180384441873,4,-1,-2,-1,-2,1,1,18
1570180384443837,-4,5,0,-2,-8,-1,2,-2
1570180384443837,5,-11,-8,-7,-12,-8,-1,-1
1570180384443837,5,3,-1,3,4,-2,-2,-3
1570180384443837,0,9,4,5,1,0,0,-5
1570180384457893,-8,-9,12,6,5,-1,5,1
1570180384457893,19,5,0,1,1,-1,-15,19
1570180384466746,-18,-1,-2,-6,-5,-1,1,-5
1570180384466746,-1,-7,-11,-7,-1,-3,1,-1
1570180384474721,15,7,-2,-2,3,17,8,12
1570180384474721,-14,-1,-1,-5,-8,-11,0,-8
1570180384487951,3,-5,-4,-4,-5,-2,-1,0
1570180384487951,-4,4,3,2,0,1,-3,-2
1570180384503645,0,-5,-5,2,6,9,0,-10
1570180384503645,-1,-1,2,5,-1,8,4,-1
1570180384504644,-1,1,5,1,-1,0,-1,-38
1570180384504644,1,5,6,-1,-5,-1,11,13
1570180384550521,-1,1,1,2,6,-3,-4,1
1570180384550521,-1,1,0,2,15,10,2,-5
1570180384551595,-3,-1,-1,-2,-14,-8,0,0
1570180384551595,-5,-2,-2,-1,5,3,-1,-11
1570180384552520,-2,-1,-5,-4,3,-4,1,0
1570180384552520,5,0,-3,-5,-31,-13,1,42
1570180384555608,20,10,5,3,9,13,1,70
1570180384555608,-8,0,3,1,-1,37,3,11
1570180384562492,8,3,5,5,8,31,3,6
1570180384562492,-14,-8,0,0,8,15,8,-10
1570180384570813,-5,-11,-9,-6,-4,-8,0,-26
1570180384570813,8,4,-3,1,-6,-19,-8,13
1570180384577624,-3,0,-2,0,-2,-9,-3,7
1570180384577624,-5,5,5,1,6,-12,-2,-24
1570180384601835,-1,-9,-5,-3,-9,-16,-5,-20
1570180384601835,-5,-1,-1,1,47,8,4,-12
1570180384603382,8,-2,-8,3,0,-2,12,-14
1570180384603382,-4,1,5,-6,-71,-40,-11,-12
1570180384625328,-7,3,2,-9,-13,-18,-2,-5
1570180384625328,12,4,2,0,-6,-13,-16,47
1570180384627314,-1,0,-1,-1,16,2,2,8
1570180384627314,-2,-7,-7,4,24,4,-3,-31
1570180384639430,-5,2,3,7,14,12,-8,-11
1570180384639430,-5,-5,-2,-3,-10,1,2,-23
1570180384640832,-4,0,-2,-3,1,-6,2,7
1570180384640832,3,0,-4,1,0,3,-1,18
1570180384661461,9,3,4,1,0,0,4,-12
1570180384661461,-9,-5,6,0,-2,-6,1,-8
1570180384663225,-4,-3,1,-2,-10,-5,2,-12
1570180384663225,-9,-4,-4,-4,2,2,4,17
1570180384684166,2,-2,-5,0,10,7,4,40
1570180384684166,11,3,-2,0,-7,-3,6,-7
1570180384685503,-3,-2,0,-2,-15,-7,-7,3
1570180384685503,3,1,0,0,13,3,-6,-3
1570180384698306,2,-4,-3,0,-1,0,-4,-6
1570180384698306,3,-4,-8,-8,-8,-7,-8,5
1570180384705318,9,4,1,2,0,1,-9,65
1570180384705318,7,11,4,5,14,10,3,15
1570180384721192,4,-3,7,15,3,2,-4,-10
1570180384721192,1,4,12,3,-7,-3,6,-1
1570180384723060,-4,-5,0,-6,0,-3,-7,-30
1570180384723060,-14,-4,-4,-7,5,4,-3,1
1570180384744075,11,0,-10,-7,-5,0,-1,1
1570180384744075,-7,-5,-10,-3,-5,-4,0,-25
1570180384745995,-16,-3,5,-3,-17,-5,-6,-56
1570180384745995,3,-3,-4,-2,3,5,3,14
1570180384758100,37,21,5,3,8,-3,2,-15
1570180384758100,-55,-25,-10,3,5,-4,-11,-7
1570180384764999,62,22,5,0,2,2,1,9
1570180384764999,-17,-9,9,3,-4,-4,0,-67
1570180384782085,24,2,-3,-6,-4,-3,-2,5
1570180384782085,-29,-13,-9,-9,-7,-3,1,-10
1570180384783059,13,4,-7,0,-3,-1,8,4
1570180384783059,-8,-15,-15,-6,-1,1,3,4
1570180384803842,6,23,25,11,12,6,8,12
1570180384803842,31,17,8,7,-6,-4,0,-11
1570180384803842,-41,-19,-1,-6,-1,-4,0,-8
1570180384803842,22,8,-4,-4,-10,0,6,-16
1570180384825783,-31,-16,-17,-8,4,4,4,-10
1570180384825783,29,13,5,5,11,10,7,65
1570180384826779,-49,-21,-5,2,-12,-10,-6,1
1570180384826779,-10,1,-3,-1,15,15,-3,-7
1570180384840749,1,1,-3,-7,-10,-6,-5,-15
1570180384840749,49,14,2,2,-2,4,9,-14
1570180384841739,-34,-8,-1,1,-3,-6,0,-3
1570180384841739,3,8,6,6,5,6,-1,32
1570180384863817,-42,-27,-14,-11,0,3,12,-1
1570180384863817,26,13,1,-2,-6,1,6,15
1570180384863817,-4,-3,4,-4,-4,-2,1,-24
1570180384863817,-3,-1,-1,3,-4,-7,-5,9
1570180384885826,4,-2,-1,-4,-6,0,-4,0
1570180384885826,-78,-21,-5,0,1,-3,-4,-24
1570180384886622,57,19,-4,-2,3,3,1,8
1570180384886622,10,-7,3,1,6,14,6,47
1570180384900589,-16,-1,4,4,-6,-19,-16,-19
1570180384900589,4,-2,-1,-5,-9,-4,-2,-8
1570180384901580,-8,-1,1,2,4,6,1,-1
1570180384901580,20,11,3,1,4,0,-2,4
1570180384923525,-1,-1,-4,-3,-3,4,0,8
1570180384923525,-2,-7,-3,-3,-4,-3,4,-9
1570180384923525,19,6,4,4,4,3,0,1
1570180384923525,-12,-7,-7,-6,-7,-9,-7,-17
1570180384937715,-7,-2,0,1,-1,4,4,-5
1570180384937715,2,2,-1,0,1,-2,-6,0
1570180384953739,0,-1,-3,0,3,1,-4,9
1570180384953739,4,1,1,1,-2,-2,-3,-9
1570180384960428,-7,2,1,1,-2,-3,3,6
1570180384960428,17,6,2,-2,2,1,-4,0
1570180384962033,-17,-7,-3,-1,-1,-1,-5,-2
1570180384962033,0,1,0,0,2,-2,0,4
1570180384983365,3,0,-1,0,2,5,-1,1
1570180384983365,5,0,-3,-1,-2,-2,0,-2
1570180384984360,-4,0,-1,-2,-3,0,3,1
1570180384984360,2,2,0,2,-1,-5,-3,-11
1570180384997512,-4,-1,1,0,-1,4,-2,-1
1570180384997512,-3,-1,1,1,1,-5,2,-2
1570180385005355,-1,-1,-1,0,-2,8,2,2
1570180385005355,2,-1,0,-2,-2,-3,-2,3
1570180385021528,14,2,-1,0,-2,-1,-2,3
1570180385021528,0,2,-2,-3,-2,-2,-4,3
1570180385021528,-8,-9,-6,-9,-9,-3,-2,-4
1570180385021528,3,-2,1,0,1,-7,-4,-2
1570180385043421,0,2,6,4,4,7,6,4
1570180385043421,-9,6,8,10,6,-1,2,-3
1570180385044208,25,9,4,1,1,-2,-2,1
1570180385044208,-3,-4,-8,-7,-6,0,0,1
1570180385057383,-9,-8,-8,-8,-8,-3,-2,-2
1570180385057383,-4,-7,-9,-7,2,3,-2,1
1570180385065455,3,2,1,3,-2,-4,-2,2
1570180385065455,-5,5,11,13,4,-3,0,0
1570180385081472,2,1,5,4,6,2,-1,1
1570180385081472,-6,-7,-6,-10,-10,1,2,0
1570180385081472,0,-2,-9,1,4,-6,-2,-1
1570180385081472,12,5,7,0,-1,-2,-1,-4
1570180385103045,-12,-1,-5,9,7,-3,-1,-2
1570180385103045,2,-1,-1,1,-1,-12,1,1
1570180385104161,-1,-3,-5,-13,1,-5,-3,-3
1570180385104161,6,2,-5,7,8,-35,-2,0
1570180385118050,-2,-3,-8,-12,-12,-31,0,-3
1570180385118050,20,7,16,7,5,-14,0,5
1570180385125287,-20,-1,4,7,5,-1,-2,-3
1570180385125287,6,0,9,3,-8,11,1,6
1570180385141256,-29,-20,-14,-10,-4,8,-7,-10
1570180385141256,5,3,-1,-5,-12,0,0,6
1570180385141940,17,14,10,11,13,11,4,12
1570180385141940,-3,-2,1,-5,2,10,2,3
1570180385163881,-8,-3,3,-4,-2,7,-1,0
1570180385163881,3,-1,3,2,2,11,-1,-3
1570180385163881,-5,-9,-11,-9,-14,3,-2,-4
1570180385163881,13,3,-13,-20,-14,5,0,-2
1570180385186241,-20,-4,2,16,15,5,-1,-3
1570180385186241,1,-3,-1,3,7,-14,-3,-6
1570180385186822,0,0,-2,-4,-6,-47,2,-4
1570180385186822,3,5,6,1,1,-39,5,-5
1570180385200828,13,9,10,3,-3,-45,4,1
1570180385200828,-5,-5,-8,-4,-2,-25,-2,-8
1570180385201778,-4,-4,0,-3,-5,-19,0,1
1570180385201778,-8,-12,-17,-16,-5,-27,-5,-4
1570180385222728,7,4,3,10,2,7,2,8
1570180385222728,-4,0,0,3,11,21,-1,8
1570180385223779,4,2,7,3,7,46,-2,2
1570180385223779,-4,0,3,4,1,46,-3,6
1570180385245979,8,6,11,7,-3,35,-8,4
1570180385245979,5,-3,-5,0,-3,29,-3,7
1570180385246666,0,-5,-14,-11,-4,5,-7,-3
1570180385246666,-11,-2,1,7,7,13,-4,-3
1570180385260930,-7,0,-3,-10,-3,8,0,-6
1570180385260930,-1,3,-4,-12,-4,18,0,1
1570180385261620,-10,-3,4,4,-5,19,-1,-2
1570180385261620,-11,-6,-6,-8,-8,7,-3,-8
1570180385283629,4,-6,-11,4,5,7,1,-4
1570180385283629,-6,-2,15,-3,-8,3,0,-8
1570180385283629,-1,5,-2,9,6,7,2,-6
1570180385283629,3,4,-18,-3,-1,8,2,2
1570180385306095,11,16,1,-5,-2,6,6,-6
1570180385306095,-4,-33,-14,-2,0,4,-4,5
1570180385306497,-23,-17,-4,-1,-2,-5,-10,-25
1570180385306497,-12,-7,0,-1,-4,-3,-3,-1
1570180385320775,8,6,-5,-7,-4,1,1,12
1570180385320775,-4,4,-7,-3,2,0,-2,-21
1570180385321463,-5,2,7,-1,-1,1,-1,7
1570180385321463,17,4,6,6,3,9,0,8
1570180385343589,21,4,-2,-4,-1,-2,-2,19
1570180385343589,-26,-10,-2,1,-3,-10,-10,-41
1570180385344399,12,-4,-6,-3,2,-3,2,10
1570180385344399,-5,4,-5,-8,-4,-3,0,-10
1570180385365663,-7,-15,8,3,0,2,1,-4
1570180385365663,20,14,5,7,2,-1,4,16
1570180385366346,12,14,-2,2,-6,-2,5,8
1570180385366346,15,1,15,3,-2,-4,-1,-3
1570180385381313,-17,-7,0,3,-1,2,-2,-14
1570180385381313,14,20,-11,-13,-13,-6,-1,3
1570180385381313,-24,-43,-1,4,0,-5,-5,-10
1570180385381313,11,-9,-2,0,0,4,5,6
1570180385403509,11,1,-4,-4,4,-1,-5,-9
1570180385403509,-67,-5,4,2,3,0,-3,-34
1570180385404238,22,29,5,3,3,-2,5,8
1570180385404238,12,7,6,3,-1,2,8,13
1570180385426229,-6,-13,-15,-9,-4,-7,-5,14
1570180385426229,25,4,0,-7,-8,-4,3,-1
1570180385426229,13,16,7,5,7,5,5,4
1570180385426229,-47,-22,-4,4,1,-3,-1,6
1570180385441168,31,21,3,2,1,0,-3,-38
1570180385441168,-21,-24,-8,-6,0,-2,1,10
1570180385441168,23,7,-1,-5,-1,-2,5,17
1570180385441168,-8,-4,-2,4,-1,-9,-2,11
1570180385463411,6,7,0,-5,-6,3,-2,-9
1570180385463411,-4,3,4,9,6,7,5,4
1570180385464079,-9,-8,-1,1,-2,-1,-2,-18
1570180385464079,-5,2,-2,-3,-6,-6,-4,-5
1570180385486018,2,1,3,-4,0,11,-11,37
1570180385486018,64,22,5,3,7,-6,11,21
1570180385487017,-25,-10,-3,-10,-4,0,1,-12
1570180385487017,57,13,-2,-5,-4,-5,0,25
1570180385501087,-23,-26,-2,4,3,4,8,-1
1570180385501087,4,-3,-7,-4,-4,-6,-11,6
1570180385501982,12,12,4,3,1,1,10,12
1570180385501982,-14,-2,1,1,4,1,-2,-17
1570180385522971,-4,2,0,3,-1,-4,0,-2
1570180385522971,2,-4,-2,3,2,-2,-1,1
1570180385523915,-17,-8,-2,-2,2,-5,-3,-11
1570180385523915,-12,-3,1,0,-3,-1,-6,-14
1570180385546086,2,-1,-3,-10,-6,-6,1,3
1570180385546086,-19,1,4,0,-1,-1,-1,-10
1570180385546863,-1,-3,0,3,8,0,9,-4
1570180385546863,5,1,-3,3,1,-4,-3,2
1570180385568215,-1,4,3,-1,-2,-3,2,15
1570180385568215,-3,-6,0,1,-2,1,17,17
1570180385568797,6,-1,-4,-6,-6,-9,-10,2
1570180385568797,-3,1,0,0,1,1,1,-15
1570180385582757,-10,-3,-1,0,0,-6,2,-17
1570180385582757,-5,-1,-3,1,-4,-1,-3,-13
1570180385584041,5,2,-2,0,1,3,-4,-3
1570180385584041,-18,-2,0,0,6,4,2,-38
1570180385605964,3,1,2,2,-2,-8,-9,-6
1570180385605964,8,-1,-2,-2,0,-1,-6,7
1570180385606703,1,1,0,0,-1,-1,-5,-6
1570180385606703,-6,-1,1,-2,2,2,-3,-15
1570180385628806,-2,-1,-1,3,-2,6,-1,-12
1570180385628806,-6,-3,-4,-2,14,4,-4,-14
1570180385628806,-2,-1,-1,-4,-7,-1,2,3
1570180385628806,-1,-1,0,0,8,11,3,10
1570180385643804,-5,0,2,1,-11,-15,4,-2
1570180385643804,2,2,3,3,-8,-25,-20,24
1570180385643804,1,-3,-4,1,14,24,-5,20
1570180385643804,1,2,0,-2,-4,-2,-1,3
1570180385665985,-3,0,-1,-1,5,-4,-4,4
1570180385665985,-9,-3,-1,-1,-7,1,-1,-12
1570180385666542,0,-3,-1,-2,-8,-7,0,1
1570180385666542,5,0,-3,0,-1,-2,-2,26
1570180385688605,-11,-3,-1,-1,2,3,2,-11
1570180385688605,3,1,2,-1,-4,-3,1,3
1570180385689476,-1,1,1,0,0,-1,1,0
1570180385689476,-11,-2,0,-1,2,0,-3,-9
1570180385703634,9,1,0,-1,-1,-4,3,14
1570180385703634,2,1,1,0,-1,4,6,4
1570180385704439,-2,3,3,2,2,-5,-1,-8
1570180385704439,8,3,0,0,-5,-4,-2,12
1570180385725424,-1,0,-1,-1,1,-2,-1,-6
1570180385725424,9,-2,1,0,2,4,2,23
1570180385726373,1,2,0,0,0,5,-1,6
1570180385726373,-5,-2,-3,-3,-11,-17,-7,-13
1570180385748315,-4,-3,0,-2,1,7,7,6
1570180385748315,0,2,0,-1,0,11,6,2
1570180385749316,-4,-2,-1,0,-2,-6,1,-8
1570180385749316,3,-1,1,0,5,2,0,2
1570180385762278,0,0,-3,3,5,-7,-5,0
1570180385762278,-5,0,0,1,0,3,-1,-9
1570180385770256,2,-1,-2,1,3,-23,-4,-3
1570180385770256,2,2,3,4,14,10,1,-3
1570180385786221,-1,-3,-2,-3,-1,25,6,7
1570180385786221,1,1,2,2,-3,-6,2,1
1570180385786484,-3,0,1,-2,-4,3,-2,-5
1570180385786484,-6,-6,-3,-2,0,-3,1,8
1570180385808155,-4,1,0,1,-2,-3,-6,-14
1570180385808155,3,-1,-1,-3,1,0,1,9
1570180385809154,0,-1,-2,-2,-5,0,-2,5
1570180385809154,-5,-1,-1,-2,-4,-2,-1,-7
1570180385822123,-2,-1,-1,-3,-2,-6,-3,-3
1570180385822123,-5,-3,-2,-1,-1,0,1,-7
1570180385831127,3,2,1,2,0,-5,-5,-10
1570180385831127,0,-1,-2,-2,-4,2,1,-3
1570180385846103,3,0,0,-2,-3,-2,-4,0
1570180385846103,2,1,0,1,3,-1,-4,1
1570180385846103,-3,-3,-2,-2,-3,3,2,7
1570180385846103,1,3,0,-2,-4,0,4,-5
1570180385868095,-4,1,0,-1,0,-4,-1,-14
1570180385868095,-1,-5,-4,-4,-2,-5,0,33
1570180385868999,14,0,0,0,-1,-4,3,22
1570180385868999,10,1,2,-1,-1,2,-5,15
1570180385882955,-4,-3,-1,-1,-3,-5,3,9
1570180385882955,-11,-2,2,3,1,4,3,-9
1570180385890933,12,3,-3,-1,-2,-3,-1,-1
1570180385890933,3,4,-2,0,1,3,-2,3
1570180385905956,-1,-2,-1,-1,2,0,1,4
1570180385905956,0,2,0,-2,-2,-3,-3,-13
1570180385906891,-21,-18,-2,0,0,5,0,-2
1570180385906891,21,16,0,-1,-3,-3,4,-8
1570180385928106,21,11,-1,-1,-2,-4,-1,0
1570180385928106,-85,-46,-2,0,0,-2,-5,-23
1570180385928833,69,26,1,0,0,0,1,3
1570180385928833,-64,-29,-8,-1,-1,0,8,-10
1570180385942795,-10,9,8,4,1,-4,8,13
1570180385942795,-21,-21,-14,-7,-1,-1,-25,-14
1570180385951046,-17,-11,1,-2,-3,-2,7,-5
1570180385951046,54,12,2,1,-2,-4,-1,14
1570180385965803,97,69,11,4,2,0,5,32
1570180385965803,-76,-84,-20,-6,-2,-5,-3,-41
1570180385966734,90,44,3,-1,-1,0,-5,-2
1570180385966734,25,5,-1,0,1,2,0,-1
1570180385988672,-5,-10,-5,-3,-2,-1,1,-12
1570180385988672,59,37,11,3,1,-6,4,12
1570180385988781,-53,-26,-4,-1,-3,-5,-2,-9
1570180385988781,-21,-5,0,0,6,6,-1,1
1570180386002701,-24,-15,-4,-2,-1,-3,-3,-4
1570180386002701,16,16,5,1,1,-4,3,4
1570180386010712,-20,-6,-2,-3,-1,26,2,-3
1570180386010712,7,8,3,1,3,-3,4,5
1570180386026130,-23,-23,-4,-1,-2,-3,-9,-10
1570180386026130,34,27,3,-2,-1,1,3,4
1570180386026680,-10,-2,0,3,3,1,11,1
1570180386026680,15,0,-1,-2,-7,-6,-9,-7
1570180386048515,-54,-34,-8,-4,-3,1,-32,-21
1570180386048515,37,26,6,0,0,-1,0,-12
1570180386048948,-24,-8,-2,0,0,-6,-3,-5
1570180386048948,-8,-7,0,1,3,18,10,3
1570180386062483,14,0,-1,-1,-5,-9,7,0
1570180386062483,21,18,3,2,0,6,1,5
1570180386070454,-8,-6,-1,-1,2,-7,-4,-4
1570180386070454,-4,-1,-3,-3,-4,-1,-6,-4
1570180386085414,1,-2,-1,-1,-2,-1,4,1
1570180386085414,8,5,0,1,0,3,7,6
1570180386086411,-3,-2,0,-2,-3,-4,-9,1
1570180386086411,-2,-2,0,0,-3,-11,-4,-1
1570180386108356,4,-2,0,0,2,1,-1,-2
1570180386108356,3,2,0,-1,-5,-9,-6,1
1570180386109434,-3,-3,-1,-2,1,3,7,1
1570180386109434,-2,2,0,-1,-3,-1,-2,-8
1570180386131344,1,-4,-2,1,1,0,2,-3
1570180386131344,9,4,0,-1,0,4,4,2
1570180386132294,-3,0,0,1,-2,6,-5,4
1570180386132294,-4,-6,-2,-1,-1,-7,-7,-11
1570180386146304,0,-1,-2,-2,-3,-5,3,-3
1570180386146304,12,8,1,-1,-2,2,0,4
1570180386146304,-1,0,-1,-2,-1,-1,-2,1
1570180386146304,-5,-2,-1,-1,-1,0,2,2
1570180386168336,-2,-1,-2,-1,1,1,-1,-6
1570180386168336,3,1,-2,-2,-1,-2,-3,-2
1570180386169193,-4,-3,-1,-2,-1,-5,0,2
1570180386169193,3,0,-1,0,-1,0,0,3
1570180386191131,-3,-2,-3,-3,-2,3,9,-8
1570180386191131,-9,-2,0,0,-2,-11,-19,-29
1570180386192129,2,-1,-1,0,1,-2,0,1
1570180386192129,-1,-2,-1,-2,-2,-5,-1,4
1570180386206097,1,0,-2,-1,-4,-5,-7,7
1570180386206097,-5,-1,-1,-2,0,-2,10,-22
1570180386206097,0,-2,-1,-1,-1,-4,-2,-2
1570180386206097,0,1,2,-1,-2,-5,-8,3
1570180386228351,0,1,0,-2,1,6,-1,-1
1570180386228351,1,0,-2,-1,1,4,3,8
1570180386229039,-1,0,0,-1,-2,-6,-7,-2
1570180386229039,-2,-2,-3,-1,2,4,7,-2
1570180386252009,0,1,2,0,2,2,1,2
1570180386252009,3,1,1,0,-1,-2,0,11
1570180386252009,2,1,-2,-1,-2,1,5,0
1570180386252009,-3,-2,1,-3,-1,0,0,-3
1570180386266072,2,0,0,2,1,-1,-5,0
1570180386266072,-1,-2,-2,0,-2,0,-4,2
1570180386266931,4,1,-2,-1,0,0,-1,5
1570180386266931,-3,-1,-1,-1,1,-1,-1,0
1570180386288043,0,-1,0,-1,1,-4,-1,3
1570180386288043,2,-1,-1,1,2,4,8,6
1570180386289049,-2,0,-1,0,-1,0,0,-4
1570180386289049,-2,1,-1,0,-2,-2,0,-1
1570180386311853,0,1,-1,-2,-1,2,2,0
1570180386311853,2,-1,0,-1,1,1,1,4
1570180386311853,-2,-1,0,-1,0,-1,-2,-6
1570180386311853,2,1,-2,0,0,-2,-2,3
1570180386325772,-1,-1,0,-1,1,-1,0,-1
1570180386325772,-4,2,0,-1,-2,1,-4,2
1570180386326776,6,0,0,-1,-1,-1,-1,1
1570180386326776,-4,0,-2,-1,-1,0,0,-1
1570180386348714,5,0,0,0,2,1,2,0
1570180386348714,4,0,0,0,-1,-1,0,5
1570180386348714,-2,1,0,0,-1,-4,1,3
1570180386348714,0,-2,-2,1,1,3,3,-2
1570180386371854,-1,-2,-1,-1,0,0,1,-3
1570180386371854,-1,0,-2,-3,-1,0,-4,-1
1570180386372648,-1,-1,1,-2,-3,-3,-3,-6
1570180386372648,0,-2,1,-1,-2,-1,-3,-1
1570180386385766,-3,-1,0,1,0,1,2,1
1570180386385766,1,-2,-2,-1,1,14,7,-2
1570180386386892,-3,-1,-4,-3,-5,-23,-22,-7
1570180386386892,3,1,1,3,0,-2,4,3
1570180386408927,-3,-2,-1,-1,0,-2,-4,-4
1570180386408927,3,0,0,1,5,11,12,13
1570180386408927,-7,0,-1,-1,-3,-2,-2,-23
1570180386408927,11,1,0,-3,-1,-2,-2,26
1570180386431790,0,1,0,2,2,2,-7,-2
1570180386431790,-5,-2,-2,-4,-7,-20,-4,-3
1570180386432556,-1,-1,0,2,3,15,10,5
1570180386432556,-2,0,2,0,3,-5,1,-7
1570180386445457,1,0,0,2,9,18,2,9
1570180386445457,3,0,0,2,12,13,-4,0
1570180386446450,-3,-1,-2,2,10,-3,5,-11
1570180386446450,-6,-1,-1,0,2,-8,1,-12
1570180386468393,7,0,-3,-10,-29,8,14,9
1570180386468393,-4,-1,0,4,3,-3,-22,-4
1570180386469387,-1,-2,-3,-11,-42,-25,-13,-2
1570180386469387,-3,-1,-7,-13,-17,-13,-12,-9
1570180386491400,-12,-1,1,2,11,-12,-9,-20
1570180386491400,5,0,1,4,17,7,12,0
1570180386492384,4,2,5,8,18,24,10,5
1570180386492384,-7,-4,0,6,9,20,2,5
1570180386506292,2,1,0,-1,4,0,10,5
1570180386506292,-7,-3,-2,-1,-5,-2,1,-3
1570180386506360,10,4,0,2,7,1,-8,18
1570180386506360,3,0,1,-1,-6,2,-1,-7
1570180386528229,-2,-1,-3,-3,-4,-11,-15,-6
1570180386528229,3,1,2,2,-3,-6,-5,0
1570180386529227,-7,-5,-3,-3,-9,-4,15,1
1570180386529227,0,-2,-1,-1,1,7,10,6
1570180386551294,-1,-1,0,1,1,-5,-17,0
1570180386551294,-3,-2,1,-2,-11,-14,-2,-1
1570180386552165,4,1,-1,-1,2,3,1,9
1570180386552165,2,1,0,1,-1,3,-2,-15
1570180386566131,-4,1,1,4,-2,-12,4,7
1570180386566131,33,9,-4,-3,-4,7,2,9
1570180386566161,-17,-4,0,-1,5,2,-4,-11
1570180386566161,-19,-9,-1,2,3,-3,-1,-5
1570180386596047,-4,-7,1,0,-3,-3,4,5
1570180386596047,4,11,-2,-4,-4,4,5,-1
1570180386597150,14,8,0,-2,0,-1,-1,1
1570180386597150,-5,-4,1,-1,-4,-12,-8,2
1570180386610280,-12,-6,-2,-2,0,2,-8,-13
1570180386610280,6,3,3,1,-1,1,7,0
1570180386618025,-8,-3,-3,-1,1,4,2,5
1570180386618025,15,11,2,0,-1,-3,-2,-4
1570180386626208,-16,-12,-2,1,-2,2,8,6
1570180386626208,-12,-7,1,1,0,-4,-4,-6
1570180386626208,26,9,-1,-2,-1,3,1,7
1570180386626208,-34,-18,-2,1,2,0,-4,-5
1570180386647910,11,8,-2,-1,3,3,7,2
1570180386647910,-10,-7,-2,-3,-4,-7,-1,1
1570180386648907,-2,-1,1,1,2,-3,-5,-10
1570180386648907,6,3,-4,-3,0,3,0,4
1570180386671848,14,-2,-1,-3,2,16,2,4
1570180386671848,-6,-4,-8,-6,-7,-17,18,-21
1570180386671848,19,8,3,-1,1,6,-1,-6
1570180386671848,-3,-16,-4,-1,0,-9,-5,-8
1570180386685960,19,4,1,-1,-2,-5,-4,2
1570180386685960,-11,-15,-2,2,2,6,-2,0
1570180386686808,11,9,0,-3,-4,-1,0,5
1570180386686808,14,8,3,-1,-2,-7,3,7
1570180386708717,-5,-12,0,0,1,3,4,-8
1570180386708717,-8,21,0,-3,-5,-18,-20,-5
1570180386708746,-19,-19,-5,0,1,-2,2,-1
1570180386708746,25,19,1,-1,0,10,-2,5
1570180386731687,-47,-14,7,4,2,-10,4,10
1570180386731687,-27,-10,-12,-7,-2,-7,-13,-10
1570180386731687,-13,-9,1,-1,-4,-17,0,2
1570180386731687,-4,-5,-2,0,2,13,6,-5
1570180386745821,39,20,4,2,0,1,1,6
1570180386745821,4,-1,5,3,-1,7,3,7
1570180386753745,-18,-8,-2,-2,1,2,2,-4
1570180386753745,6,4,-1,-1,-3,1,0,-11
1570180386768640,3,2,-1,0,-4,-13,-4,6
1570180386768640,8,-3,0,-2,-2,5,-12,15
1570180386768640,11,-5,-5,0,-1,-2,-3,-2
1570180386768640,46,21,4,-2,-1,2,6,7
1570180386791530,-4,-3,-5,0,1,-1,-2,-14
1570180386791530,8,2,3,-3,-3,-1,5,-4
1570180386792523,-13,-6,2,2,5,13,1,4
1570180386792523,21,4,-2,-3,-4,-16,-4,10
1570180386805489,-17,-2,-6,-5,-1,7,1,-15
1570180386805489,20,7,3,2,0,-10,1,16
1570180386813675,15,13,7,3,2,10,5,2
1570180386813675,-15,-11,-5,-2,-3,-4,-3,-5
1570180386828436,5,1,-3,-4,-4,-3,-3,0
1570180386828436,7,-1,2,2,1,1,3,-10
1570180386829425,6,4,-1,-1,-1,-2,-2,-3
1570180386829425,-20,-7,-1,2,-1,-2,1,1
1570180386851580,4,3,1,-1,-2,-2,-2,4
1570180386851580,12,3,2,0,0,8,3,6
1570180386852367,-9,-6,-2,-3,-4,-6,-3,5
1570180386852367,-14,-4,-2,1,2,2,1,-2
1570180386865356,9,4,-2,-1,-1,0,0,11
1570180386865356,-15,-5,0,0,1,0,0,-29
1570180386873309,6,-5,-4,-3,-3,-2,0,24
1570180386873309,-7,-2,1,1,0,-2,-1,-5
1570180386888403,2,1,-3,-2,-1,-1,-4,-15
1570180386888403,-3,-2,1,1,1,16,6,7
1570180386889266,-5,0,-1,0,-2,-12,-8,-15
1570180386889266,3,1,-1,-1,1,5,3,8
1570180386911595,-2,-2,2,-2,-1,-3,-3,-7
1570180386911595,-4,-4,-1,-2,0,3,-1,5
1570180386912212,0,1,0,2,0,0,-5,-8
1570180386912212,-6,-2,0,0,-2,0,-1,6
1570180386925395,-1,0,-1,-1,-1,0,-3,-10
1570180386925395,0,-3,-1,0,-2,-4,2,10
1570180386933368,2,1,1,0,0,0,0,-7
1570180386933368,-6,-1,0,-2,0,1,-2,-8
1570180386948109,-2,0,1,-1,0,4,4,2
1570180386948109,6,1,-4,-2,-1,-6,-4,3
1570180386949104,-5,-1,-1,-1,1,6,0,-3
1570180386949104,-1,1,3,3,2,-3,1,13
1570180386971389,5,0,-2,0,-3,0,1,-4
1570180386971389,-20,-8,0,0,1,0,2,-2
1570180386972051,1,3,1,0,-1,7,5,-14
1570180386972051,4,1,-3,-2,-3,-13,-8,2
1570180386985016,-7,-4,0,0,0,0,-1,-13
1570180386985016,36,12,-1,1,0,0,2,3
1570180386993059,-49,-16,-4,-3,-2,6,0,-12
1570180386993059,12,4,0,0,0,0,0,-1
1570180387008116,-8,2,-4,-3,0,-5,-4,4
1570180387008116,-20,-16,-2,-1,-2,2,-4,-8
1570180387008954,26,9,2,0,0,-1,-2,3
1570180387008954,-27,-14,-3,-2,0,19,5,-2
1570180387031891,23,5,4,1,-7,-39,0,1
1570180387031891,11,6,2,1,-3,-7,-15,7
1570180387031891,-7,-2,-1,0,5,7,-13,14
1570180387031891,1,0,0,0,-2,-2,5,8
1570180387045073,33,12,-2,-1,4,16,8,9
1570180387045073,-54,-20,-2,-1,-3,1,1,-8
1570180387053016,-9,-7,0,2,-1,-8,-2,-7
1570180387053016,26,11,-1,0,0,3,-4,2
1570180387068787,-13,-5,-3,-3,1,3,-1,-14
1570180387068787,5,7,4,0,-1,-1,5,3
1570180387068787,3,3,-3,-4,-2,-2,1,4
1570180387068787,-8,-5,-1,0,1,0,1,-4
1570180387091733,-8,-3,0,0,-4,-3,-2,2
1570180387091733,1,0,-2,0,2,6,2,-5
1570180387092722,8,-2,-1,0,3,1,7,8
1570180387092722,-5,3,1,-2,-7,-22,-5,-13
1570180387113665,2,-6,0,3,6,13,-2,6
1570180387113665,4,-3,-4,-1,3,0,0,1
1570180387114897,16,9,1,0,0,5,6,4
1570180387114897,-18,-8,0,2,12,2,1,-1
1570180387128624,45,17,0,-6,-20,-9,0,12
1570180387128624,-68,-19,-4,-2,7,13,0,-14
1570180387128624,2,1,-1,0,1,3,-2,-6
1570180387128624,4,-1,0,1,0,-2,-1,2
1570180387151902,-23,-7,-1,2,0,1,-1,0
1570180387151902,19,4,2,1,-2,4,5,8
1570180387152563,4,3,-2,-2,0,-6,0,-1
1570180387152563,-18,-9,-3,-1,-3,3,-4,-9
1570180387174537,-9,-1,0,0,4,-2,1,6
1570180387174537,26,9,0,-3,-6,-7,-5,-8
1570180387174537,-17,-6,-1,-1,-2,0,-3,1
1570180387174537,19,5,2,0,-2,-6,-1,2
1570180387188478,-38,-22,-4,-2,2,7,1,-5
1570180387188478,25,13,1,0,0,-4,1,6
1570180387189469,5,3,-1,0,-3,3,1,-4
1570180387189469,2,5,0,-2,-3,5,2,0
1570180387211590,4,4,0,0,7,3,-2,2
1570180387211590,-12,-11,-4,-4,-8,-9,-4,-1
1570180387212402,-14,-6,4,3,0,0,3,2
1570180387212402,16,3,-7,-6,-2,-5,-5,-3
1570180387234395,-11,-4,-1,1,4,7,-3,-8
1570180387234395,13,1,0,-3,-6,-5,1,6
1570180387235344,4,-1,-2,-1,1,-3,-16,34
1570180387235344,-4,0,0,-1,-3,0,-3,0
1570180387248313,14,6,0,-3,-2,-8,-3,-11
1570180387248313,-1,-2,-1,0,2,1,-1,1
1570180387249304,-11,-12,-1,0,-3,-7,3,-9
1570180387249304,-8,2,4,2,0,3,4,5
1570180387271410,24,5,-3,-3,-3,0,-6,6
1570180387271410,-1,3,2,2,2,-2,-1,-9
1570180387272249,-1,-2,0,0,6,14,4,-6
1570180387272249,-5,-4,2,3,-1,-9,0,-4
1570180387294518,-14,-7,-1,1,0,3,3,-7
1570180387294518,17,16,0,3,1,-6,-3,8
1570180387295182,-7,-5,-2,-5,-10,-4,2,-10
1570180387295182,0,-4,-2,-2,-1,4,-1,2
1570180387308145,3,3,-1,-3,7,5,-1,4
1570180387308145,-5,-4,0,3,-2,-10,-4,-7
1570180387316213,3,6,1,0,2,-5,0,-2
1570180387316213,-4,-6,-1,0,-1,3,-1,-6
1570180387331094,-7,1,-2,-1,-7,-8,-4,2
1570180387331094,5,-2,-2,-3,0,2,1,1
1570180387333083,8,1,-4,-2,-2,-2,3,-3
1570180387333083,-3,1,0,-1,-1,-4,-2,-1
1570180387354089,1,-3,-1,1,2,-1,1,0
1570180387354089,-7,-2,-1,0,1,3,2,2
1570180387355203,-11,-7,-3,1,-2,-5,-3,-4
1570180387355203,19,9,-1,-1,2,5,0,0
1570180387368038,-6,-5,-1,0,-1,-1,0,5
1570180387368038,2,1,1,0,-1,3,1,1
1570180387376962,5,1,1,1,4,-6,-2,-7
1570180387376962,-3,-2,-1,-3,-4,-3,-5,-1
1570180387391945,-7,-1,2,1,-1,2,7,13
1570180387391945,-3,-4,-1,-2,0,-2,4,-1
1570180387393076,2,3,0,1,1,-1,2,-1
1570180387393076,-6,-5,-1,0,0,-1,-1,-2
1570180387413862,3,3,0,-1,-7,-10,-4,5
1570180387413862,-6,-8,-3,0,12,7,3,-4
1570180387415866,2,1,-2,-3,-14,4,0,-1
1570180387415866,-10,-7,0,-2,-3,-2,-1,1
1570180387428035,0,-1,-1,0,-3,1,1,1
1570180387428035,17,10,1,0,0,-2,1,2
1570180387436800,3,0,-1,1,1,-5,-5,-9
1570180387436800,3,0,-2,-2,0,3,3,4
1570180387451863,-11,-5,-1,-1,-2,0,-1,-10
1570180387451863,1,1,-2,1,-3,-1,-3,-1
1570180387453062,0,0,-1,-2,2,-2,-3,0
1570180387453062,-6,-3,-3,-1,-3,1,0,-1
1570180387473907,-5,-1,-1,-1,2,-1,-2,-31
1570180387473907,4,-1,1,-1,-3,-5,-12,21
1570180387475868,-4,-2,0,0,-3,-4,6,-5
1570180387475868,-4,-1,0,-1,0,2,0,3
1570180387487852,-1,1,-2,-1,2,-6,-7,-11
1570180387487852,3,-1,1,-1,-7,-3,2,11
1570180387496787,1,1,-1,0,-1,0,-2,2
1570180387496787,2,1,0,3,0,-14,-5,-6
1570180387511805,1,0,0,-1,-1,6,7,4
1570180387511805,-6,-2,0,0,1,4,1,-8
1570180387512603,3,2,-3,-3,0,-5,-1,6
1570180387512603,2,1,1,1,1,0,1,-1
1570180387533745,-1,-3,-2,-3,-2,2,-1,4
1570180387533745,-2,-2,-3,-3,2,0,2,0
1570180387540525,4,1,2,1,-1,0,1,0
1570180387540525,-1,-1,-2,0,2,3,-1,-3
1570180387547515,1,-1,2,1,1,0,-2,2
1570180387547515,-3,-1,-2,-2,-1,0,-1,-9
1570180387556631,-2,-1,-3,1,0,-3,5,-6
1570180387556631,-3,-1,0,1,3,6,-9,8
1570180387571551,4,1,1,3,-2,-1,-2,8
1570180387571551,-2,-1,0,-1,-3,-1,0,-7
1570180387573435,1,-1,1,-1,1,-1,-1,1
1570180387573435,-3,-1,-2,-3,-1,-5,5,-7
1570180387594429,-1,0,-1,-1,0,3,0,0
1570180387594429,0,-3,1,-3,0,1,-3,2
1570180387595383,-1,0,0,0,1,6,0,-1
1570180387595383,1,2,1,-1,-5,-26,-9,-1
1570180387607711,7,1,0,0,2,18,9,23
1570180387607711,-4,-1,-2,0,-3,-2,1,-5
1570180387616323,-3,0,-1,0,0,-2,-3,-6
1570180387616323,1,-1,1,1,0,5,2,8
1570180387631488,-1,-1,-1,0,1,-7,-3,-4
1570180387631488,-1,0,-1,-2,-1,-4,-1,-3
1570180387633275,1,-1,-1,-1,1,1,-1,2
1570180387633275,-1,-1,-2,-2,-1,6,1,-2
1570180387654219,0,0,0,-1,-2,-5,-1,-7
1570180387654219,0,-1,0,3,-1,4,3,2
1570180387655216,-5,-1,-1,-3,-5,-9,-4,-35
1570180387655216,2,-3,-1,0,2,14,1,10
1570180387667392,3,0,-2,0,0,-6,-7,4
1570180387667392,-1,0,0,0,0,-2,-1,-5
1570180387676436,1,-1,-2,0,-2,0,1,2
1570180387676436,-2,-1,-1,0,-2,-1,1,-12
1570180387691144,-1,-1,-1,-1,0,0,-1,-3
1570180387691144,-1,-2,-2,-1,0,11,-3,-1
1570180387693166,0,-1,-2,1,-1,-15,-2,12
1570180387693166,3,-1,-1,1,3,15,7,-1
1570180387714065,0,0,0,1,1,-6,1,2
1570180387714065,-2,-3,-2,-5,-4,-1,1,-3
1570180387715363,1,0,2,-1,-1,0,1,6
1570180387715363,-2,-1,-2,1,-2,-5,-2,-5
1570180387728072,0,0,0,-1,-2,0,-1,-4
1570180387728072,1,0,0,1,0,0,-1,-2
1570180387736998,0,-2,-2,0,4,5,0,7
1570180387736998,-1,0,-1,-4,-15,-5,1,3
1570180387751960,-6,-2,0,0,-14,4,-4,-21
1570180387751960,0,-3,-4,-3,16,-5,1,3
1570180387753067,1,0,0,-4,1,-2,-2,5
1570180387753067,-2,0,0,0,3,0,0,-2
1570180387773913,0,-1,-2,-3,-1,-2,0,1
1570180387773913,0,-1,-1,0,-8,-2,0,-2
1570180387775902,-2,0,0,3,8,11,1,1
1570180387775902,-6,-1,-1,1,-5,-1,11,-24
1570180387787865,0,-2,-1,-3,-4,-2,-2,6
1570180387787865,2,4,3,1,-3,-3,-3,16
1570180387796946,1,-3,-3,-2,-2,2,1,3
1570180387796946,2,-3,-3,-4,0,-1,0,9
1570180387811801,0,-2,-1,-1,4,-2,3,6
1570180387811801,-1,-1,-1,0,-3,0,0,-7
1570180387812853,-1,-1,-1,-2,-3,-3,-2,-2
1570180387812853,0,-1,-2,1,0,6,-1,4
1570180387833930,0,0,0,0,2,-4,2,2
1570180387833930,-7,-3,0,0,-3,-11,2,-19
1570180387835736,2,-1,1,-2,-3,6,-2,4
1570180387835736,0,-1,1,-1,1,-6,-5,4
1570180387847865,-3,0,-2,-3,-1,4,-3,1
1570180387847865,0,2,1,1,0,2,3,-7
1570180387856685,0,1,-2,-3,-6,-3,0,4
1570180387856685,0,0,0,-1,1,10,-1,-3
1570180387871685,2,-3,-2,1,2,-13,-1,1
1570180387871685,1,-1,-1,-1,1,3,0,9
1570180387872636,-7,1,5,3,-4,-10,-9,-26
1570180387872636,0,1,-1,-1,2,-2,-3,4
1570180387893577,-7,-2,2,1,1,8,-1,-15
1570180387893577,1,0,-3,0,-1,1,0,-2
1570180387895572,4,0,0,0,2,-3,3,20
1570180387895572,-3,-1,-1,0,-1,-3,-1,-7
1570180387907795,-1,1,0,0,-2,-3,0,-2
1570180387907795,1,-1,0,-2,6,-4,-9,-1
1570180387916524,7,1,2,1,-12,0,6,16
1570180387916524,3,1,2,0,-4,-7,-3,0
1570180387931715,1,0,-3,2,3,1,0,6
1570180387931715,-1,-1,-1,1,-1,2,2,-4
1570180387933472,-4,-3,-4,-4,1,-3,3,-4
1570180387933472,-2,-1,-2,-2,5,8,0,-1
1570180387953434,1,1,1,-2,-1,-2,-1,5
1570180387953434,-2,-1,0,-2,-4,0,-2,1
1570180387955414,-1,-2,-1,0,-1,-4,-3,-6
1570180387955414,1,-1,1,1,2,3,1,8
1570180387967622,-3,-1,-1,-1,4,6,1,-11
1570180387967622,3,0,-1,0,-6,-18,-20,14
1570180387976404,0,2,-1,0,1,-1,-4,0
1570180387976404,-2,-1,-2,-2,0,-6,-1,-7
1570180387991507,2,-1,0,-1,2,5,1,3
1570180387991507,-13,-4,-3,-2,-2,4,9,-39
1570180387993317,4,1,0,3,1,1,-3,12
1570180387993317,1,0,1,-1,-2,-9,-4,2
1570180388014451,1,0,-1,1,-1,-6,-3,2
1570180388014451,-1,-2,0,0,-2,11,9,-3
1570180388015655,-3,-3,-3,-3,0,1,-3,-4
1570180388015655,-3,-1,0,-1,-1,1,2,-2
1570180388036365,-2,-2,0,-2,-1,-5,-1,-3
1570180388036365,3,-1,-2,-2,0,2,4,11
1570180388038194,-7,-1,-2,0,-2,-5,-4,-11
1570180388038194,0,-1,-1,2,1,3,-1,3
1570180388051309,2,-2,0,1,-1,-1,0,-2
1570180388051309,1,0,-2,-1,-1,-2,-2,12
1570180388057191,0,-1,1,-2,0,3,1,1
1570180388057191,-4,-1,-3,-1,-2,-3,-1,-8
1570180388074298,-1,0,-1,-1,-2,-1,0,0
1570180388074298,-5,-2,-2,1,1,3,7,-15
1570180388075233,-2,0,-1,0,0,-5,0,-4
1570180388075233,4,-1,-2,-4,1,4,2,13
1570180388097206,0,0,0,-1,-1,-2,-3,1
1570180388097206,1,-1,2,1,-2,-2,1,6
1570180388098305,-2,-3,-1,-1,1,5,-1,-5
1570180388098305,0,-1,-3,0,-1,-4,-2,-2
1570180388111997,-2,-2,0,1,0,-2,2,0
1570180388111997,1,0,1,-1,0,-1,-3,2
1570180388112995,0,-1,-3,-1,0,1,0,-6
1570180388112995,3,3,3,1,0,-3,1,5
1570180388134133,4,4,1,1,-4,-4,-10,4
1570180388134133,0,-1,-3,1,1,-3,-2,3
1570180388135190,1,-1,1,-1,-1,3,0,3
1570180388135190,-1,-2,-3,0,-2,0,1,-4
1570180388156919,-2,-2,-1,-2,0,1,1,-4
1570180388156919,1,1,1,-1,-1,-2,-3,3
1570180388157877,0,1,-1,-1,-1,-1,0,0
1570180388157877,-4,-3,-2,-3,-1,-1,-2,-7
1570180388170887,0,-1,0,1,-1,1,8,2
1570180388170887,8,1,0,2,1,-1,-8,31
1570180388178008,-2,-2,-1,-1,1,1,-1,-5
1570180388178008,1,0,1,0,-2,-3,0,-3
1570180388193059,-3,-2,-2,-1,1,4,3,0
1570180388193059,-1,0,0,-1,-1,0,2,-7
1570180388201757,2,0,-1,-2,0,-2,2,3
1570180388201757,-1,-1,-1,-2,0,0,-4,3
1570180388216860,-2,-1,-2,0,-2,5,-2,-4
1570180388216860,-5,0,2,1,-1,-13,-8,-5
1570180388217717,4,-1,0,1,0,5,-1,4
1570180388217717,0,-1,-1,0,-1,-3,0,-6
1570180388230909,-2,1,-1,-2,2,2,-1,1
1570180388230909,-2,0,0,-3,-1,0,2,-6
1570180388237664,-5,-3,-2,-1,-1,-2,-2,-9
1570180388237664,-1,0,-2,-1,-1,1,-2,2
1570180388261876,-2,-1,-2,1,0,-6,-1,-2
1570180388261876,-9,-5,-1,-3,-4,4,21,-27
1570180388263431,-1,1,-1,-2,0,-8,-10,-1
1570180388263431,-3,-2,-3,-2,-3,1,-1,-4
1570180388276777,1,-2,-1,-1,-2,-4,-2,4
1570180388276777,-1,0,-2,-1,-2,1,0,-9
1570180388277564,0,0,-2,0,-1,3,4,0
1570180388277564,0,0,2,0,0,-6,-3,-1
1570180388290892,-6,-1,-1,-2,0,-1,-1,-11
1570180388290892,2,-1,0,-1,1,3,-7,-6
1570180388297608,1,0,-2,-2,0,-3,1,5
1570180388297608,-1,1,1,-1,0,-6,-5,3
1570180388314504,1,-1,1,-2,0,-1,0,0
1570180388314504,2,1,-2,0,-1,3,-2,10
1570180388315455,-3,-2,-1,0,-1,-3,0,2
1570180388315455,-4,-2,-1,-1,0,2,-1,-18
1570180388336566,1,1,-1,-1,-1,2,0,2
1570180388336566,0,1,-2,-1,-1,-4,-4,4
1570180388338394,1,-1,0,1,0,3,2,1
1570180388338394,-2,-1,0,-1,-2,0,1,1
1570180388351356,2,0,0,0,-1,-4,-2,-1
1570180388351356,1,0,0,-1,-5,-14,-8,9
1570180388357480,-3,-1,1,-1,1,10,-2,-6
1570180388357480,2,0,0,-1,-1,0,3,1
1570180388374293,4,2,2,0,0,-1,1,9
1570180388374293,-5,-5,-1,-1,-3,-3,8,-21
1570180388375291,2,-1,-2,0,0,1,6,8
1570180388375291,2,0,-2,1,-2,-4,-1,4
1570180388396294,-2,-1,0,-1,-1,3,2,-4
1570180388396294,5,4,-1,0,4,13,-1,13
1570180388398232,-1,-1,0,0,1,-7,-1,0
1570180388398232,0,-1,0,-2,0,5,3,-1
1570180388411363,-4,-4,-1,-2,-3,-6,1,-11
1570180388411363,0,-1,-2,0,2,5,1,2
1570180388417394,-1,-1,-1,0,1,2,-2,-2
1570180388417394,3,1,-2,1,1,0,-1,15
1570180388434347,0,0,-1,-1,-2,2,1,1
1570180388434347,-1,1,-1,0,-2,-2,-2,0
1570180388435539,2,-1,-2,-2,-2,1,-1,1
1570180388435539,-2,-3,-2,0,-1,-3,0,-5
1570180388456223,-1,-4,-1,-1,-1,-1,-2,0
1570180388456223,-1,1,1,1,0,0,-1,3
1570180388458075,-1,1,-1,-2,-2,-4,1,3
1570180388458075,0,0,-2,-1,1,3,4,12
1570180388471072,0,1,1,0,2,-1,-4,-3
1570180388471072,8,0,1,0,-2,-3,-21,31
1570180388478066,-3,0,1,0,-3,-3,-2,-3
1570180388478066,-1,1,0,-2,-3,-5,-2,-2
1570180388494178,1,0,-2,0,3,10,3,7
1570180388494178,-2,-4,-3,-3,-1,1,3,-6
1570180388495970,-2,0,0,0,0,-1,-1,-8
1570180388495970,0,-1,-1,-1,1,1,-5,3
1570180388516966,2,-1,-3,-1,-3,-5,4,10
1570180388516966,-3,0,0,-1,-2,-1,3,-10
1570180388518494,-1,0,-1,-1,0,0,-1,-3
1570180388518494,0,-1,-1,-2,-1,0,4,-3
1570180388529886,0,1,1,1,0,10,-1,-6
1570180388529886,-4,-2,-2,-1,1,-8,0,-8
1570180388538862,3,-1,0,0,-1,-3,-3,10
1570180388538862,-2,1,0,0,0,0,-2,-4
1570180388553867,-3,-1,-1,1,0,-3,-1,-4
1570180388553867,1,0,0,-2,1,3,-1,-2
1570180388559991,-2,-1,-2,-1,1,0,1,-7
1570180388559991,1,-1,-2,-1,-1,-1,-1,-3
1570180388576906,-5,-2,-1,-1,-1,0,14,-4
1570180388576906,0,1,3,2,0,-1,-10,9
1570180388578289,-3,0,1,1,-5,-16,-2,-6
1570180388578289,2,-1,-2,0,4,19,6,5
1570180388590716,-1,-1,1,-2,0,-5,-2,-5
1570180388590716,-3,-1,1,0,0,3,7,-3
1570180388598789,-1,-1,-1,0,0,-3,0,-9
1570180388598789,-1,-1,0,0,-1,-5,-5,-5
1570180388614063,1,-1,-3,0,-4,-3,-4,5
1570180388614063,2,0,-2,0,-1,0,2,0
1570180388615647,-1,-2,0,0,2,12,3,7
1570180388615647,-1,-4,-1,-2,-8,-14,0,-5
1570180388636596,0,0,-2,0,2,0,-3,-2
1570180388636596,0,-1,-1,-2,0,-2,0,-2
1570180388637590,1,0,-2,-2,0,5,2,1
1570180388637590,-2,-2,0,-1,0,-1,-2,-4
1570180388650629,1,0,1,0,-2,-5,-5,3
1570180388650629,-2,-1,0,-1,-1,-1,2,-3
1570180388659543,0,-2,-2,-1,-1,-1,0,-1
1570180388659543,-4,0,1,-2,0,-1,-3,-18
1570180388674535,1,0,0,1,-2,-4,-7,1
1570180388674535,-3,-3,-2,-3,-2,-1,-1,-6
1570180388675489,2,-1,-1,0,-1,-1,-1,3
1570180388675489,-1,-1,0,0,0,-2,0,1
1570180388696688,-3,-3,-1,-1,0,1,8,-7
1570180388696688,1,-1,0,0,-2,-2,0,-1
1570180388698428,-2,-1,-1,-3,0,1,-1,-2
1570180388698428,0,0,-1,-1,0,1,-2,6
1570180388710400,-6,-1,0,-1,-1,-5,7,-13
1570180388710400,0,-1,0,-1,-1,-1,0,7
1570180388719368,-2,-1,-2,0,-1,-2,-4,-6
1570180388719368,2,1,0,2,0,2,7,6
1570180388734330,0,-1,-1,-2,-1,2,-4,-1
1570180388734330,-1,-1,1,0,0,-1,2,-4
1570180388735353,-1,0,1,0,-2,1,0,1
1570180388735353,-1,-1,-1,0,0,-1,0,-6
1570180388756407,1,1,0,0,-1,-1,-7,2
1570180388756407,0,1,1,0,-1,-3,-2,6
1570180388758472,0,-1,-1,-1,-3,-14,0,9
1570180388758472,2,0,0,1,3,3,-1,8
1570180388770436,2,0,-1,-1,-1,-2,-6,1
1570180388770436,-1,-1,-1,-1,-2,0,2,3
1570180388779213,-2,0,1,0,0,1,-2,-8
1570180388779213,0,-2,-2,-1,-2,-1,1,5
1570180388794491,0,-1,0,-2,1,1,-1,6
1570180388794491,0,0,-3,-1,1,3,0,-6
1570180388795172,1,-1,-1,-2,-1,1,0,1
1570180388795172,2,1,2,1,0,-8,-22,14
1570180388817305,2,0,0,-1,2,6,-1,5
1570180388817305,-2,-2,-1,-1,-1,0,3,4
1570180388818110,-1,-2,-2,-1,0,3,-6,-11
1570180388818110,-2,-2,1,1,-2,-2,7,0
1570180388830313,0,0,0,0,-3,-5,-2,-4
1570180388830313,1,0,-2,0,0,-1,-2,0
1570180388839060,0,0,-1,0,1,2,2,-1
1570180388839060,-3,-2,-2,-3,1,-2,0,-8
1570180388854241,-5,-3,-2,-1,-4,-9,-3,-10
1570180388854241,-4,0,-1,0,-2,6,2,-7
1570180388856005,2,0,-1,0,3,15,2,0
1570180388856005,0,0,-1,-1,-4,-14,-2,-3
1570180388877000,0,1,-3,-1,2,5,-4,6
1570180388877000,-2,-2,-1,0,-1,-1,2,-8
1570180388877958,1,-1,0,0,1,-2,-6,-1
1570180388877958,1,2,0,-1,-2,3,2,-6
1570180388889951,-5,-3,-3,-2,0,0,0,-2
1570180388889951,-1,0,1,-2,-1,-2,-3,-2
1570180388898893,-2,-3,-1,-2,-1,1,8,-4
1570180388898893,-2,0,-1,0,-1,4,1,-5
1570180388914078,2,0,1,-1,-3,-3,-1,-1
1570180388914078,4,-2,0,-1,1,0,-1,5
1570180388915845,-1,0,-2,1,-5,-8,2,8
1570180388915845,-1,-3,-2,0,2,4,2,6
1570180388936849,2,0,-1,0,-1,-1,1,2
1570180388936849,2,0,-1,0,3,-1,5,10
1570180388937787,-2,-2,0,-2,-1,-4,0,-2
1570180388937787,-1,-1,-2,0,-1,0,-1,-1
1570180388950243,0,-1,0,2,0,6,-1,5
1570180388950243,-1,-1,-1,-2,-5,-8,-4,-3
1570180388958730,-2,-1,1,-2,-1,-1,-2,0
1570180388958730,-2,-1,-1,-1,-1,5,4,-5
1570180388973694,1,3,1,1,-2,-5,-5,7
1570180388973694,-1,-1,-2,0,-1,0,-3,-8
1570180388975685,0,0,-1,0,3,5,-1,2
1570180388975685,-2,-3,-2,-3,-1,0,1,-7
1570180388996679,-4,-1,-1,-1,-1,-1,6,-9
1570180388996679,1,2,1,2,-1,-2,-3,0
1570180389002619,0,0,-1,0,-1,0,-2,4
1570180389002619,0,1,0,-1,0,-2,-4,0
1570180389018736,-1,-1,-2,0,-4,-10,-10,2
1570180389018736,-5,-4,-3,-1,1,10,0,-5
1570180389020570,1,0,-1,-1,-1,-3,2,2
1570180389020570,-1,1,0,1,0,-2,-3,3
1570180389033730,1,-1,0,0,0,4,1,-2
1570180389033730,-4,-1,-1,0,-3,-4,-1,-9
1570180389035528,1,1,-1,-2,0,-2,1,11
1570180389035528,1,0,1,1,1,2,3,-5
1570180389056823,0,-2,-3,-4,-1,-1,1,3
1570180389056823,4,1,2,2,0,-1,-3,-4
1570180389058472,1,-2,-3,-1,1,13,0,8
1570180389058472,-2,-2,0,0,-3,-10,-6,-3
1570180389079583,0,-1,-1,-1,-5,-7,1,0
1570180389079583,2,1,1,-1,0,-2,-1,4
1570180389085400,-3,0,0,2,-1,-1,-1,-7
1570180389085400,0,-1,-2,-3,-1,1,0,1
1570180389094391,-1,0,1,-1,0,2,-2,-6
1570180389094391,-2,-1,-3,-2,0,-2,-7,10
1570180389095369,-7,0,-1,-1,-6,-17,2,-22
1570180389095369,1,-1,-2,-2,6,18,-3,-6
1570180389116562,0,0,0,0,3,-1,-2,2
1570180389116562,1,-1,-1,-2,-3,-1,0,2
1570180389119303,-2,-3,1,-1,-1,-2,-3,-13
1570180389119303,0,0,0,0,-2,-4,2,7
1570180389146266,-1,-1,0,-1,0,3,2,-6
1570180389146266,-4,-1,0,-2,0,-1,1,-4
1570180389148225,-1,1,1,0,-1,-5,-6,-2
1570180389148225,-2,2,1,-1,0,-2,1,-4
1570180389153217,-2,1,1,1,-2,-8,-2,-5
1570180389153217,3,-2,0,1,-1,-5,3,5
1570180389160394,2,-1,0,0,0,1,-2,8
1570180389160394,-1,-1,0,-1,-2,-3,-2,0
1570180389176316,1,0,-1,0,0,3,-1,2
1570180389176316,-2,0,0,-1,-2,2,-1,-1
1570180389178147,-1,0,-1,-1,-2,-1,2,-4
1570180389178147,-2,-3,-3,-3,-3,0,4,-3
1570180389199255,8,2,2,3,1,-12,-22,18
1570180389199255,-4,-1,-1,-1,0,15,4,-1
1570180389201082,1,0,1,-1,1,2,1,5
1570180389201082,-2,-1,-1,-1,-1,-3,1,2
1570180389213296,-1,-1,0,0,0,3,3,-7
1570180389213296,-1,0,0,0,-2,-7,-2,-3
1570180389220032,1,0,0,0,0,0,-3,6
1570180389220032,-5,-4,-2,-3,-1,3,8,-13
1570180389235989,-2,0,3,-2,-1,-3,-5,-5
1570180389235989,0,-1,0,0,-1,-2,1,-2
1570180389237986,-1,-3,-1,-1,0,-1,0,-3
1570180389237986,1,0,0,0,-3,-6,-3,-4
1570180389258976,-1,-2,-2,0,-1,5,4,1
1570180389258976,-1,1,1,-2,-1,-2,2,2
1570180389260926,0,1,-2,-1,0,-2,0,-2
1570180389260926,-1,0,-1,1,0,0,-4,2
1570180389272891,1,-1,-5,-3,-2,4,5,15
1570180389272891,-2,-3,-2,0,-1,-1,-2,-20
1570180389279872,7,2,-1,1,1,0,-1,16
1570180389279872,-3,0,0,-1,-5,-16,-8,-9
1570180389296889,-1,-1,0,-1,0,-3,4,4
1570180389296889,-1,0,-2,-2,-1,2,1,-3
1570180389297826,-2,-1,0,-2,-1,1,0,0
1570180389297826,0,-1,1,0,0,1,-3,2
1570180389319767,-3,-2,0,-1,-2,1,4,-12
1570180389319767,-2,0,-1,-2,-2,-3,-2,1
1570180389320762,-2,0,1,1,-1,-1,-1,-7
1570180389320762,0,-1,0,-1,1,2,1,2
1570180389332779,1,0,-3,0,-1,-1,-4,2
1570180389332779,1,-1,-2,2,2,-1,-2,4
1570180389339713,-1,-1,-2,0,-1,-1,-2,-2
1570180389339713,1,-2,1,2,2,3,-1,5
1570180389362758,-1,-2,-1,-1,0,5,1,-5
1570180389362758,0,-1,-1,-1,-2,-3,-1,1
1570180389371628,-6,-3,-2,-3,-2,-1,-4,-24
1570180389371628,-2,0,-1,-1,0,-1,1,0
1570180389378671,-4,0,0,1,-2,0,8,-10
1570180389378671,2,2,-2,0,4,13,4,8
1570180389381005,-2,0,1,0,-1,-2,-2,-5
1570180389381005,0,0,1,0,0,-1,-4,4
1570180389393746,-2,-2,-1,-3,-1,-2,1,-3
1570180389393746,-3,-1,-2,-1,-1,-4,-2,-3
1570180389400443,0,0,-1,-2,-1,3,3,4
1570180389400443,0,0,-3,-2,-1,3,6,0
1570180389416609,-1,0,2,1,2,13,-2,5
1570180389416609,3,2,3,1,0,-12,-2,1
1570180389418501,1,-1,-1,1,-2,-1,-1,3
1570180389418501,0,2,0,0,-3,-1,-1,-3
1570180389438449,-1,-2,-2,0,-1,-1,0,-6
1570180389438449,-2,-2,1,0,-3,0,-2,0
1570180389440444,0,-2,-2,-1,-1,-1,-2,0
1570180389440444,0,-1,-1,1,0,3,1,6
1570180389453721,-1,-3,-2,-2,-2,-2,2,-12
1570180389453721,-6,0,1,0,1,-2,-4,-16
1570180389460390,3,0,-3,-2,-1,-3,3,13
1570180389460390,2,-1,-1,-1,1,3,-2,6
1570180389484368,-1,-3,-2,-4,-1,-4,1,4
1570180389484368,2,-1,-1,-1,-1,1,3,4
1570180389485323,-6,-1,0,0,-2,-2,-4,-11
1570180389485323,-3,-1,-3,-1,0,6,2,-10
1570180389499059,0,0,-1,2,1,-4,-1,1
1570180389499059,1,-1,0,-2,-5,-9,-11,5
1570180389505269,-1,-1,-2,0,-1,-4,1,3
1570180389505269,-1,-1,-1,0,-1,-1,0,3
1570180389512732,0,-2,-2,-1,0,-1,-2,-1
1570180389512732,0,-1,1,-1,0,-2,1,6
1570180389521291,-2,1,0,-1,-1,2,1,0
1570180389521291,0,2,4,-1,0,-2,-1,0
1570180389536184,-2,-1,-3,-2,0,-3,-3,-2
1570180389536184,6,2,1,1,1,5,4,27
1570180389538181,2,1,2,1,0,-2,-5,1
1570180389538181,2,0,1,2,0,-2,-6,6
1570180389559124,-1,-1,0,-1,-1,1,-2,0
1570180389559124,-2,-2,-3,-2,-1,-1,3,-7
1570180389560121,-1,-2,-3,-2,-1,1,2,-4
1570180389560121,1,1,1,0,-2,-6,-2,5
1570180389572127,-4,-2,-1,-1,-3,-1,0,-6
1570180389572127,-2,0,0,1,0,-1,-1,-6
1570180389596565,-1,0,1,2,-1,0,-2,1
1570180389596565,-4,-1,-1,-1,3,4,0,-14
1570180389597561,0,0,-1,-1,-3,-3,0,5
1570180389597561,-2,-1,-1,-1,-2,0,1,-5
1570180389599557,1,-2,-1,-1,2,1,0,4
1570180389599557,-3,-1,-2,-1,-1,-1,1,-3
1570180389618279,2,0,0,-1,0,-4,-2,2
1570180389618279,-2,-2,-2,-1,2,5,1,-4
1570180389620279,-4,-2,-2,-3,-1,2,-2,-18
1570180389620279,11,3,3,3,0,-4,-21,36
1570180389632917,2,3,1,1,1,2,2,4
1570180389632917,-1,-2,-3,-2,-7,-17,-2,-6
1570180389649057,0,0,1,1,2,2,-3,1
1570180389649057,-4,-4,-4,-2,-2,0,8,-9
1570180389655966,1,0,1,0,-1,-1,-1,3
1570180389655966,-2,2,1,-1,2,2,-1,-2
1570180389658051,-6,-4,-2,-1,-3,-4,10,-8
1570180389658051,-1,-2,0,-1,0,3,4,-2
1570180389679090,-3,-2,0,1,1,0,-1,1
1570180389679090,-2,-2,0,0,0,1,0,-8
1570180389680862,0,-1,-2,-2,-1,-4,-2,5
1570180389680862,-2,-1,0,-2,-1,4,2,-6
1570180389692019,-1,-1,-1,1,-2,-2,-4,-4
1570180389692019,0,-1,-2,-2,-1,3,4,-2
1570180389700991,0,-2,-1,0,-1,0,0,5
1570180389700991,-2,-1,1,-1,-2,-5,-1,-9
1570180389715950,5,2,-2,-1,1,3,-2,36
1570180389715950,4,3,4,2,1,-2,-10,-4
1570180389717945,-1,-1,-1,-2,-5,-10,-4,3
1570180389717945,-2,0,-2,-3,-3,-1,2,0
1570180389738894,-3,-2,-2,-3,0,0,1,-14
1570180389738894,-1,-1,-3,0,-1,3,3,2
1570180389740886,1,1,0,0,1,1,-4,2
1570180389740886,-2,-1,-1,0,-1,-3,4,-8
1570180389752091,-1,0,0,1,-1,-2,-1,-5
1570180389752091,-1,-1,-1,-1,-1,-4,0,-1
1570180389762016,3,1,0,-1,2,8,-7,1
1570180389762016,-1,-4,-2,0,0,3,5,7
1570180389776138,0,1,1,0,2,9,2,-4
1570180389776138,0,-2,-1,-3,1,-9,-5,3
1570180389781965,-2,-2,0,-2,0,2,3,-20
1570180389781965,0,1,0,-1,-3,-7,-20,-5
1570180389799208,1,-2,-1,-3,-2,-2,-2,7
1570180389799208,-5,0,1,1,-1,6,4,-8
1570180389800300,3,0,0,-1,-1,-1,3,8
1570180389800300,-4,1,1,0,0,-1,5,-11
1570180389812097,-3,0,0,0,-2,-10,0,-7
1570180389812097,1,0,-2,0,3,10,0,7
1570180389821076,-1,-1,0,0,0,-1,-1,1
1570180389821076,-2,-1,-2,0,-2,-1,3,0
1570180389836096,-2,-1,-1,-2,-1,-2,-1,-4
1570180389836096,-1,-2,-1,-1,-4,-3,3,3
1570180389838676,-1,1,1,2,0,0,-1,2
1570180389838676,-3,-3,-1,-2,-1,0,4,-3
1570180389858860,-3,-2,-1,-1,1,3,-1,-6
1570180389858860,0,-1,-1,0,0,1,-1,1
1570180389860680,-14,-5,-3,-3,-1,2,21,-28
1570180389860680,4,0,-2,1,-1,-1,2,14
1570180389872944,3,1,-2,-1,-1,-1,2,0
1570180389872944,-1,0,1,-2,1,-1,-6,-4
1570180389881624,0,-2,-1,0,0,-3,-1,6
1570180389881624,-3,-1,0,-1,-2,-2,1,-6
1570180389896585,-3,-3,-3,-1,-1,0,-2,-3
1570180389896585,-1,-2,-1,-2,-6,-10,5,-3
1570180389897583,4,2,1,0,0,7,-3,4
1570180389897583,0,0,-1,-2,1,-8,-4,-3
1570180389926505,2,2,4,2,0,-7,-11,-1
1570180389926505,0,1,-3,-4,-1,1,1,7
1570180389927598,-1,1,0,1,-2,-7,-5,5
1570180389927598,2,-2,-3,-1,-3,3,-4,-10
1570180389941628,-6,-1,0,1,1,4,2,-16
1570180389941628,3,-3,-2,-1,-3,0,-2,6
1570180389943459,2,0,1,-2,2,2,-3,5
1570180389943459,-3,-1,1,1,-1,0,3,-5
1570180389956427,1,-2,0,-1,-1,-4,-1,-2
1570180389956427,-3,0,-1,-1,1,4,1,-2
1570180389957426,8,4,1,1,0,-1,-15,28
1570180389957426,-2,-2,-1,-2,0,1,5,-6
1570180389978368,-2,0,0,-2,-1,-3,1,-1
1570180389978368,-2,-1,1,0,1,3,0,-3
1570180389980360,-3,-1,-1,0,-2,-2,3,-12
1570180389980360,-2,0,-3,-1,-1,3,5,0
1570180390001357,0,0,0,0,0,2,-5,6
1570180390001357,-3,-1,-2,0,-1,-1,4,-3
1570180390003299,-1,-1,-1,0,4,2,-1,-8
1570180390003299,3,1,0,-1,-6,-3,0,9
1570180390016263,1,-1,-1,-2,-4,-2,3,2
1570180390016263,0,1,-1,1,1,4,-2,0
1570180390018261,-2,-3,-2,-3,-6,-13,-2,-3
1570180390018261,0,1,1,2,2,-6,-3,0
1570180390039206,0,-2,1,1,2,7,3,1
1570180390039206,-1,-2,0,-1,-2,-5,-1,-4
1570180390040883,0,-1,1,0,1,4,0,2
1570180390040883,0,-1,-1,1,0,1,-4,-1
1570180390061230,-1,1,-2,-3,0,-5,2,1
1570180390061230,1,-1,-1,0,-1,1,0,-2
1570180390063234,-1,-1,-2,-1,0,2,2,-2
1570180390063234,-2,-1,1,-2,1,0,-2,-3
1570180390075200,-1,-2,0,1,-1,0,0,5
1570180390075200,-5,-4,-4,-2,0,2,11,-17
1570180390082182,-3,-1,1,0,-1,-3,-7,-13
1570180390082182,1,0,0,0,0,-1,-2,-1
1570180390099138,1,-1,-2,-1,-2,2,-1,3
1570180390099138,-1,0,1,0,-3,-5,-2,-2
1570180390101130,0,-1,-3,-2,0,3,5,3
1570180390101130,5,2,3,2,2,1,-11,10
1570180390121078,-2,1,1,-1,0,-2,-3,-8
1570180390121078,0,1,0,-1,-2,-4,-5,7
1570180390123076,-1,1,-1,0,-1,0,0,2
1570180390123076,-5,-3,-3,-2,-3,-2,-4,-11
1570180390136102,-2,-4,-1,-1,-3,2,-3,0
1570180390136102,1,0,0,-1,1,-3,-4,2
1570180390142150,0,1,-1,-2,0,0,-1,6
1570180390142150,-2,-1,-1,-2,0,0,2,-6
1570180390159167,-3,-2,-1,-3,0,0,-3,-10
1570180390159167,1,1,2,1,-2,3,0,4
1570180390160169,-2,-2,-1,0,1,16,4,-6
1570180390160169,-1,-2,-1,-1,1,-10,1,2
1570180390181110,-3,2,-1,0,0,-3,-1,-3
1570180390181110,1,0,0,-1,-1,-1,-4,2
1570180390183104,1,-1,-2,0,0,-1,1,0
1570180390183104,0,-1,0,-1,-3,-3,1,0
1570180390204255,0,0,-2,0,-1,8,-1,-2
1570180390204255,0,-2,0,-1,0,3,-3,9
1570180390206041,0,0,-1,0,-2,-6,-1,0
1570180390206041,-1,-2,-1,1,-1,4,2,-1
1570180390219007,2,0,1,1,-2,-6,-5,0
1570180390219007,-2,-2,-3,0,-1,-1,0,-5
1570180390220025,-1,-1,0,-2,0,-4,-6,3
1570180390220025,0,1,0,1,-1,-2,-2,3
1570180390241006,-6,-3,-1,-2,0,-10,3,-8
1570180390241006,-1,0,0,1,1,5,-4,-3
1570180390242947,-1,0,0,0,-1,-7,-1,6
1570180390242947,4,0,-3,-2,1,5,1,11
1570180390255907,-1,-1,-1,-1,-3,-5,1,2
1570180390255907,-1,-1,-2,-1,4,6,2,-3
1570180390262888,-1,-2,-1,1,-4,-2,1,-5
1570180390262888,-2,0,1,1,-1,1,-1,-6
1570180390278846,0,-1,0,-1,-3,-4,0,1
1570180390278846,0,-1,-2,-1,1,4,-1,7
1570180390280843,0,1,0,0,-3,0,1,0
1570180390280843,0,-1,-2,-3,-2,2,1,0
1570180390300789,0,0,-2,0,0,0,-3,3
1570180390300789,-1,1,1,-1,-3,-6,-3,-3
1570180390302783,0,-1,0,-1,0,1,0,-7
1570180390302783,0,0,0,0,1,-2,-1,0
1570180390315861,2,1,0,-1,2,4,2,8
1570180390315861,-5,-4,-1,-1,-3,-2,12,-19
1570180390322733,1,-1,-1,-1,2,9,-2,-7
1570180390322733,-1,-1,-1,1,3,-4,1,2
1570180390339685,-1,-3,-1,0,2,4,1,-1
1570180390339685,3,0,0,1,-3,-5,1,2
1570180390340684,1,1,2,0,0,-3,1,4
1570180390340684,4,0,0,0,2,5,-1,6
1570180390361631,2,0,2,1,-1,-1,-3,0
1570180390361631,0,-2,0,-1,-1,-2,-2,-3
1570180390362626,-2,1,0,0,0,2,-4,-1
1570180390362626,5,2,1,2,-2,-4,-12,8
1570180390375633,-1,-1,-2,-1,1,7,2,2
1570180390375633,1,1,0,0,-1,-4,-4,1
1570180390382572,-1,1,0,-1,-2,-4,1,3
1570180390382572,-4,-2,-2,-3,1,2,6,-7
1570180390399096,2,2,1,1,-2,-7,-4,3
1570180390399096,-1,-2,-2,0,-2,0,-3,3
1570180390400850,-1,-3,-2,-2,-1,-3,0,-13
1570180390400850,-3,-1,0,-2,-2,0,1,-3
1570180390421533,-1,-1,-1,-2,0,-1,0,-5
1570180390421533,0,-1,1,-1,0,0,0,4
1570180390422465,-1,-1,-1,-2,-2,-1,0,5
1570180390422465,-6,-4,-3,-1,-4,-11,1,-32
1570180390435430,-1,-1,-1,-1,-2,-1,-11,6
1570180390435430,-3,2,1,0,-1,-2,-3,-7
1570180390444406,1,0,-2,-1,1,-1,2,5
1570180390444406,-1,-2,-1,-2,0,6,3,1
1570180390458370,-1,1,0,-1,0,0,1,-7
1570180390458370,2,1,-1,-1,0,-3,-1,2
1570180390460371,0,-2,-2,0,-1,-1,-4,-1
1570180390460371,-1,1,0,-1,0,2,1,1
1570180390481307,-2,0,-2,-1,-2,-1,2,-3
1570180390481307,1,-1,0,-2,-1,2,4,9
1570180390483303,-1,2,0,2,-2,-4,-1,-2
1570180390483303,0,1,-1,-1,1,-2,-1,4
1570180390495273,-1,-1,0,2,4,10,2,-3
1570180390495273,-2,0,-2,0,1,0,0,0
1570180390504245,1,-2,-2,0,-1,-2,0,1
1570180390504245,0,0,0,1,-1,0,0,5
1570180390519207,-1,0,-1,-3,-1,-1,0,-1
1570180390519207,-2,0,-2,-1,-1,1,-3,-4
1570180390520203,0,1,0,-2,-1,-2,0,3
1570180390520203,-1,0,2,3,0,1,-4,4
1570180390541238,1,-1,-1,-1,-1,-1,2,0
1570180390541238,-3,-2,-2,-1,-3,1,7,-9
1570180390543142,0,-2,-2,-1,0,-2,-2,3
1570180390543142,-1,0,0,0,4,14,2,-1
1570180390555113,0,-1,0,0,-2,-6,3,2
1570180390555113,-1,-1,2,-2,-1,-4,-5,-3
1570180390564086,-1,-2,-2,-2,-1,0,3,0
1570180390564086,0,-1,1,1,1,3,-1,4
1570180390579047,0,-2,-1,1,-2,-5,-2,-9
1570180390579047,1,1,0,1,2,7,-1,2
1570180390580043,-1,-2,-1,-1,1,4,1,-1
1570180390580043,3,2,1,1,-3,-6,0,17
1570180390601060,0,-1,0,1,-1,-2,0,3
1570180390601060,-2,-2,-1,-2,-2,-3,5,-8
1570180390603023,2,0,0,1,0,-3,-15,7
1570180390603023,-5,1,-2,-1,-2,-5,-1,-12
1570180390614949,4,1,-2,-3,-1,9,3,13
1570180390614949,1,-1,1,1,1,-5,-4,-1
1570180390623926,-2,1,1,0,0,-1,4,-7
1570180390623926,2,-1,-2,-1,-1,-3,-1,0
1570180390638884,-2,-1,-1,1,1,2,-5,-2
1570180390638884,1,0,-2,0,2,1,-3,4
1570180390640879,-1,-1,0,2,-1,1,6,3
1570180390640879,2,-2,-2,-1,-2,-3,-1,-2
1570180390661824,-4,-2,-2,-1,-3,-6,1,-8
1570180390661824,0,0,2,2,1,3,-3,5
1570180390662827,-1,-2,0,-2,-1,-4,-1,0
1570180390662827,-2,-1,-2,-2,-1,3,1,-2
1570180390674792,-1,-1,-2,0,2,-2,-1,-4
1570180390674792,0,0,-3,-1,-3,-7,-2,5
1570180390683768,-3,-1,0,1,2,10,1,-4
1570180390683768,-3,-1,0,-2,-2,-5,-2,-7
1570180390698727,0,2,-1,0,0,7,6,10
1570180390698727,0,-2,-1,0,-3,-5,-4,2
1570180390700720,-2,-1,-1,-2,-2,-3,1,-2
1570180390700720,0,-1,-1,-1,1,10,-1,-2
1570180390721755,-1,-1,2,0,0,-11,-1,-2
1570180390721755,0,0,-1,-2,0,1,0,-1
1570180390722660,1,0,-2,0,0,-6,-2,2
1570180390722660,-4,-2,-4,-3,-2,3,12,-17
1570180390734786,-1,-1,0,0,-3,-1,-12,3
1570180390734786,0,0,-2,-2,0,1,-1,-9
1570180390743606,-1,0,1,1,-1,-2,-6,-5
1570180390743606,-2,-1,1,2,-1,-5,-2,1
1570180390759562,-1,-2,-1,-4,0,3,3,-4
1570180390759562,-3,-2,-1,-2,-1,0,5,-10
1570180390760563,-2,-2,-2,-3,-2,-1,-1,-4
1570180390760563,-3,-3,-3,-3,0,0,-5,-1
1570180390781503,3,0,-1,-3,-3,-6,-3,4
1570180390781503,0,-1,1,-1,-2,-4,-3,2
1570180390782836,1,2,-1,1,1,4,2,-3
1570180390782836,3,-3,-3,0,-1,-4,-5,10
1570180390795465,-3,-2,-1,1,-1,2,-1,-7
1570180390795465,-2,0,-1,-1,-2,-5,0,2
1570180390804442,-2,0,0,-3,-2,-8,0,-4
1570180390804442,-2,0,0,0,2,6,-3,-13
1570180390818405,-2,1,4,3,3,12,13,-9
1570180390818405,2,0,1,2,-1,-7,-12,12
1570180390820399,-1,-2,-2,-1,0,-1,2,4
1570180390820399,0,-1,-2,-2,-2,-4,-1,3
1570180390841343,-1,-2,-2,-1,0,0,1,-2
1570180390841343,-1,0,0,0,1,4,2,1
1570180390843336,-2,0,0,-1,-1,0,0,-3
1570180390843336,0,1,1,-1,-2,-2,-3,7
1570180390864282,-2,-1,-3,-2,-3,-2,-3,-3
1570180390864282,1,-2,-1,-1,-2,1,2,0
1570180390866275,3,0,-1,-2,-2,-1,-6,9
1570180390866275,0,-1,0,-1,0,-2,1,0
1570180390878245,1,-1,0,0,-1,-4,-4,6
1570180390878245,0,-1,-2,0,-1,-2,0,-3
1570180390885225,-2,-2,0,0,-2,0,1,-1
1570180390885225,-1,0,0,0,0,4,3,3
1570180390901241,0,-1,0,-1,-1,-6,-5,0
1570180390901241,-1,-1,-1,-2,4,13,2,-3
1570180390903178,-1,-2,-2,0,-2,-1,0,-6
1570180390903178,1,0,-1,-1,-2,-4,-1,3
1570180390924275,-2,-2,-2,-3,-1,7,-4,-10
1570180390924275,-3,0,-2,0,-3,-14,-3,-10
1570180390925119,1,-1,-2,0,-1,0,0,2
1570180390925119,1,0,-1,-1,-1,-3,-1,1
1570180390939154,-1,-1,-2,0,-1,1,2,-1
1570180390939154,3,0,-2,-1,-1,2,-15,24
1570180390945070,-6,-3,-1,-2,0,1,6,-12
1570180390945070,-2,0,1,0,-2,-4,-2,-1
1570180390961035,2,0,-1,1,1,0,5,17
1570180390961035,-5,-2,-1,0,-2,1,3,-11
1570180390963017,1,0,1,1,0,-1,1,-1
1570180390963017,3,1,2,0,0,0,-3,5
1570180390983961,-1,-1,-2,-1,-1,-4,-3,1
1570180390983961,-1,-1,0,-1,-1,1,4,-3
1570180390984961,0,-1,-3,-2,-1,0,-1,-2
1570180390984961,-4,-4,-2,-3,-3,-6,2,-12
1570180390998924,1,1,-1,0,4,5,1,10
1570180390998924,2,1,1,0,1,-2,1,-7
1570180391001008,0,0,0,0,2,-1,-2,2
1570180391001008,-2,0,-1,0,1,-3,-4,-7
1570180391021862,0,0,-1,1,2,2,3,8
1570180391021862,0,2,-1,-1,1,1,1,6
1570180391022859,0,-1,-2,-1,0,3,2,1
1570180391022859,0,-2,-2,0,-3,6,2,0
1570180391043802,-5,-2,-1,-3,-6,-19,-7,-17
1570180391043802,-2,0,2,2,-2,0,0,-4
1570180391045797,0,1,-1,0,0,0,3,-1
1570180391045797,4,1,0,2,1,1,-14,18
1570180391057770,-1,1,1,0,-2,2,-2,-5
1570180391057770,-2,-1,-3,-2,1,2,4,2
1570180391064748,-2,-2,-2,0,-1,-4,-1,-2
1570180391064748,-5,-2,-2,-2,-2,0,-1,-14
1570180391081701,2,1,1,1,0,1,5,-1
1570180391081701,4,1,2,0,0,-6,-8,7
1570180391082700,2,0,0,-1,1,1,0,5
1570180391082700,-5,-2,0,-1,0,-1,5,-8
1570180391103642,-1,-3,-1,-2,-1,-2,-2,-1
1570180391103642,0,-2,0,-1,-1,3,-1,-4
1570180391105636,2,1,0,-1,-2,0,-1,16
1570180391105636,1,-1,0,1,-2,-3,4,6
1570180391118693,-2,-2,-3,-1,1,1,0,-4
1570180391118693,0,-1,-1,0,0,-1,0,1
1570180391125584,-1,0,-1,-1,0,0,-4,-4
1570180391125584,0,0,0,-1,-1,-3,0,-2
1570180391141541,-1,-1,0,0,-2,-1,0,3
1570180391141541,-1,0,1,-1,-2,-2,0,0
1570180391143536,-2,-2,-1,0,-3,-1,-1,-3
1570180391143536,-4,-3,-2,-2,0,2,14,-20
1570180391163691,-2,-2,0,-3,-2,-1,-8,-5
1570180391163691,0,-1,-2,-1,-2,-3,2,-1
1570180391165479,-2,-1,1,-1,0,3,1,4
1570180391165479,0,0,1,-2,0,-1,0,-6
1570180391178447,3,0,0,0,1,11,6,12
1570180391178447,2,-1,0,2,-1,-8,-2,-2
1570180391185428,-1,-1,-1,-1,-2,-7,-4,-2
1570180391185428,1,-1,-1,0,2,8,-1,7
1570180391201453,-2,0,-1,-1,-2,-2,-3,-3
1570180391201453,-3,-2,-2,-4,-1,4,3,-9
1570180391203376,0,2,-1,0,-1,-2,9,0
1570180391203376,5,4,3,1,1,1,-6,13
1570180391224320,0,1,-1,0,-1,-9,-4,-3
1570180391224320,-3,-1,-1,-2,0,0,1,-4
1570180391225358,-3,-2,-1,-2,-1,-4,-5,-9
1570180391225358,-2,0,-2,-2,-3,-1,0,3
1570180391238287,-2,1,1,1,0,7,1,-1
1570180391238287,0,-1,-1,0,-1,-2,0,7
1570180391252245,-7,-3,-2,-1,2,6,9,-22
1570180391252245,4,-1,-3,-2,-3,-4,-1,13
1570180391261300,4,-2,-4,-1,0,-4,-2,-3
1570180391261300,1,-2,-1,-2,-1,3,3,12
1570180391263216,0,0,0,0,-2,-2,-2,-1
1570180391263216,-3,0,-1,-2,0,0,-2,-1
1570180391284165,-2,-1,0,-1,-2,-1,-2,-7
1570180391284165,-2,-2,-1,-1,0,1,4,-5
1570180391285157,3,0,-1,0,1,-1,-3,5
1570180391285157,-1,1,1,0,-1,-3,-3,-1
1570180391298124,0,0,1,0,0,-2,-2,1
1570180391298124,-3,-3,-1,-1,0,-1,-2,-3
1570180391312269,1,-1,-1,0,-2,0,-4,4
1570180391312269,-3,-2,-2,-1,-1,-5,-9,-19
1570180391321061,0,0,1,-2,0,-1,1,-3
1570180391321061,-1,1,0,-1,0,-1,-2,-4
1570180391323144,-1,-1,-2,-3,-2,-2,-7,3
1570180391323144,-4,-1,-1,-1,-1,0,9,-15
1570180391344000,-3,-1,-2,0,-2,-1,4,6
1570180391344000,-5,-1,-1,-2,-2,-2,9,-23
1570180391349984,5,1,0,-1,-1,-2,-9,15
1570180391349984,0,-1,-1,1,0,-3,0,3
1570180391358019,-2,0,0,-2,-1,-5,-2,-1
1570180391358019,-2,-1,-1,-1,-2,4,-1,-5
1570180391366939,3,1,-1,0,5,9,8,6
1570180391366939,-1,0,-1,-1,-12,-21,-2,-1
1570180391380900,2,-1,-1,1,2,3,-2,1
1570180391380900,4,1,-2,-1,-2,-5,-5,8
1570180391387882,-3,0,0,0,1,-2,-2,-8
1570180391387882,1,-1,-1,-1,3,7,-1,10
1570180391403897,-1,-1,0,-1,-2,-2,0,-1
1570180391403897,-1,-1,-1,0,-2,-7,-5,1
1570180391405837,-4,-3,1,-2,-4,-1,-3,-20
1570180391405837,-1,1,0,1,3,4,-1,1
1570180391417805,-3,-1,-1,-1,-2,-3,-2,-4
1570180391417805,2,1,-1,0,3,5,-2,13
1570180391426781,-2,-3,0,-2,-3,-5,-4,-8
1570180391426781,-1,-1,-1,-1,0,0,-2,1
1570180391441737,0,1,-1,-1,0,0,1,1
1570180391441737,-1,1,0,0,-2,-2,-4,-2
1570180391442737,-3,-1,-2,-2,-2,-1,5,-1
1570180391442737,-2,-2,0,0,-2,0,7,-9
1570180391463679,1,1,1,1,-3,-7,-11,1
1570180391463679,0,0,0,-1,3,8,-6,6
1570180391465679,-1,-1,1,-1,0,-2,0,-7
1570180391465679,1,-2,-2,0,0,3,1,2
1570180391477644,-2,0,-1,-2,0,-4,0,-3
1570180391477644,-3,-1,-2,0,-1,-3,0,-1
1570180391486619,-2,-1,-1,-2,1,11,-2,1
1570180391486619,1,-1,0,1,2,-7,-7,-6
1570180391501656,0,0,-1,-1,0,2,3,4
1570180391501656,0,0,-1,0,-3,-2,-1,-1
1570180391503103,0,-1,-1,0,1,2,0,0
1570180391503103,1,0,1,0,-1,-3,-4,5
1570180391530499,0,-2,-1,0,1,1,2,0
1570180391530499,0,-1,0,1,1,1,2,-1
1570180391539476,-1,1,0,2,-3,-6,-1,7
1570180391539476,-6,-2,-2,-3,-1,5,12,-18
1570180391540580,-1,-2,0,-1,-1,-3,-3,2
1570180391540580,-2,0,-2,-2,0,-1,0,2
1570180391546457,0,0,-1,1,0,-3,0,0
1570180391546457,2,2,0,-1,0,0,-2,12
1570180391561446,2,0,1,1,1,2,7,11
1570180391561446,-2,-1,-1,-1,-1,2,-6,-23
1570180391562414,-1,-4,-1,-1,0,-4,-3,2
1570180391562414,-3,1,2,0,-2,-2,-7,1
1570180391583358,5,-1,-3,-2,1,11,2,-1
1570180391583358,1,-1,0,-1,-1,-6,-8,6
1570180391585354,-2,0,-3,1,0,-4,5,0
1570180391585354,1,0,1,0,2,-3,-6,7
1570180391597482,-1,-1,0,1,0,-3,-4,-3
1570180391597482,0,-2,0,-3,-2,-3,7,7
1570180391606297,-1,-2,-1,-1,-3,2,1,-2
1570180391606297,-2,-2,-1,-1,0,0,0,1
1570180391621258,-4,0,-1,-1,-2,-4,-2,-7
1570180391621258,2,1,0,0,0,5,5,4
1570180391623252,7,0,2,0,0,-7,-18,26
1570180391623252,2,0,-1,-2,1,1,-4,4
1570180391644195,-1,-2,-1,-1,-2,-3,0,-1
1570180391644195,0,0,-2,0,1,3,0,9
1570180391645192,-8,-3,-1,-3,-1,0,1,-27
1570180391645192,4,1,-1,-1,0,0,2,6
1570180391657163,-2,1,-1,0,-2,0,-1,3
1570180391657163,-2,-1,-2,-1,-1,-3,2,-6
1570180391666139,1,0,-2,0,-2,-6,-1,-3
1570180391666139,1,-3,-3,-1,0,8,3,4
1570180391681142,-2,-3,-1,0,-4,-3,2,-6
1570180391681142,-4,-1,-2,-1,-3,-5,3,-11
1570180391683095,1,-2,-1,0,-2,3,1,5
1570180391683095,-2,-1,0,0,0,-3,-4,-4
1570180391704037,3,-1,-1,0,1,8,2,7
1570180391704037,-4,-3,-3,-2,-4,-17,-3,-9
1570180391705034,1,1,0,0,0,-5,4,8
1570180391705034,-1,-1,2,2,3,14,1,-5
1570180391717314,3,1,2,-2,0,-1,-16,15
1570180391717314,0,1,0,1,-1,4,-3,4
1570180391726977,1,1,1,1,0,-1,1,1
1570180391726977,-1,0,-3,1,-1,-4,-3,-3
1570180391741945,-2,-3,-1,-2,-1,-2,3,-7
1570180391741945,-1,-1,-1,-1,2,4,-2,-1
1570180391742932,1,-1,-1,-2,-2,-2,-2,2
1570180391742932,-4,-2,-2,0,-2,-2,8,0
1570180391764318,-1,0,-1,1,2,3,-2,-4
1570180391764318,2,-3,1,2,-1,-4,-4,0
1570180391765872,-4,-1,-2,-1,-3,5,5,-3
1570180391765872,-2,-1,-2,-3,-1,-3,-1,-1
1570180391777935,-3,0,-2,-1,-3,-5,1,-11
1570180391777935,4,0,0,-2,0,1,3,12
1570180391787026,0,1,0,0,1,0,-4,-5
1570180391787026,1,0,-1,-1,-1,-5,-4,2
1570180391801775,0,-2,-2,-2,0,4,2,2
1570180391801775,-8,-4,-2,-4,1,12,12,-17
1570180391802774,1,-1,0,-1,-12,-23,-17,12
1570180391802774,2,0,0,1,-1,-3,1,3
1570180391823766,-3,-1,-1,1,0,-4,1,-7
1570180391823766,-2,0,0,0,0,3,0,-6
1570180391825711,-1,-1,1,0,3,7,5,-2
1570180391825711,-3,-1,0,-2,-1,-2,-3,-1
1570180391846654,-1,0,0,0,-1,-3,1,-4
1570180391846654,4,0,-1,-1,-1,-1,-2,30
1570180391847654,1,1,-1,-1,1,1,-5,-11
1570180391847654,2,1,2,1,-2,-2,-2,4
1570180391861867,0,0,0,0,0,0,1,-2
1570180391861867,-1,0,-1,0,0,2,-3,-1
1570180391862612,-2,-1,-1,-2,1,2,4,-2
1570180391862612,-4,-3,-3,-4,-2,1,1,-3
1570180391883561,0,-2,0,0,-2,-1,0,-4
1570180391883561,1,0,-1,-1,-2,-4,-2,-5
1570180391885552,1,-1,0,0,1,1,1,1
1570180391885552,-9,-3,-2,0,-4,-11,8,-28
1570180391906494,5,1,2,1,4,15,2,9
1570180391906494,0,0,0,3,-2,-4,-2,-3
1570180391909487,1,-3,-1,-1,0,5,2,4
1570180391909487,3,2,0,0,2,1,7,22
1570180391921455,-5,-3,-3,-3,-2,-6,4,-8
1570180391921455,1,0,-1,0,0,1,-5,3
1570180391923452,-1,3,3,0,5,0,2,-4
1570180391923452,2,-2,-1,-1,-3,2,-3,-9
1570180391944406,-2,1,1,0,-1,-7,-4,4
1570180391944406,0,-2,-1,-2,0,4,0,-1
1570180391945398,0,-1,-1,0,-1,-1,0,1
1570180391945398,2,-1,0,-1,2,3,-6,2
1570180391966582,0,0,0,0,0,2,-1,0
1570180391966582,-1,-1,-1,0,-2,-7,1,-5
1570180391968331,3,0,0,1,-1,0,-16,17
1570180391968331,-1,1,0,0,1,-1,-2,0
1570180391981301,-5,-2,-3,-2,-1,-6,-3,-8
1570180391981301,2,-1,-1,-1,0,-8,-4,0
1570180391987289,-3,-2,-4,0,-1,0,7,-3
1570180391987289,1,0,0,0,3,10,-2,2
1570180392004239,2,0,-1,0,0,-1,-2,14
1570180392004239,2,-2,0,-1,-1,-2,0,11
1570180392005235,0,0,-1,-1,1,0,2,-2
1570180392005235,-1,-3,-1,-1,-1,-4,-3,-5
1570180392026179,0,-2,-2,-1,-1,1,4,-4
1570180392026179,1,2,1,3,0,0,-13,-1
1570180392028175,3,1,0,1,-3,1,2,3
1570180392028175,0,-1,-2,1,-1,0,-4,-2
1570180392041138,-1,-2,0,-2,-1,-3,1,-1
1570180392041138,-3,-1,1,-1,-2,1,4,-7
1570180392047118,-1,-1,-1,0,-1,-3,-5,-5
1570180392047118,2,1,1,-1,-1,-3,-5,5
1570180392064126,-2,0,0,0,-1,-2,0,-2
1570180392064126,1,1,0,-1,-3,-2,-11,3
1570180392065267,-1,-1,0,-3,-1,-1,6,4
1570180392065267,-1,-2,-1,0,-1,-2,2,1
1570180392086016,2,1,1,0,-2,-1,-2,5
1570180392086016,-1,-1,-2,0,0,-1,1,-8
1570180392088010,-1,0,0,1,2,7,5,1
1570180392088010,0,0,-2,-3,-1,0,-3,4
1570180392101095,-2,0,-2,-3,-1,-2,1,-2
1570180392101095,1,-1,0,-1,-1,2,6,10
1570180392115073,-3,-1,0,-1,-1,-2,-3,-4
1570180392115073,-3,-2,-1,-2,-1,-2,2,-10
1570180392123915,-2,-1,-3,1,0,2,-1,-5
1570180392123915,2,-1,-1,-1,-2,-2,2,-1
1570180392125910,-2,-3,-2,-3,-3,0,0,-6
1570180392125910,1,0,0,0,0,-1,0,2
1570180392146853,-2,0,-1,-1,0,-3,-2,2
1570180392146853,0,0,-2,-1,0,-3,-7,4
1570180392147850,-2,-1,-1,1,1,5,0,-3
1570180392147850,-2,0,0,0,0,0,-1,-3
1570180392160848,7,1,0,0,0,2,0,29
1570180392160848,-3,0,0,-1,-1,-3,6,-14
1570180392167898,-1,-1,-1,-2,0,2,0,1
1570180392167898,0,0,0,-1,-1,-4,-4,1
1570180392183753,-4,-2,-1,-1,-2,-1,1,-15
1570180392183753,-3,-2,-2,-2,-1,0,0,-3
1570180392185778,-1,0,1,0,-1,-8,3,-5
1570180392185778,-2,-1,-1,-2,-6,-8,-1,0
1570180392206692,5,0,1,1,0,-3,-1,3
1570180392206692,-2,0,0,0,-1,4,-1,-9
1570180392207788,0,0,-2,-1,-2,0,-4,4
1570180392207788,1,1,-2,0,2,-1,0,4
1570180392220655,-4,-1,-1,0,0,0,-3,-11
1570180392220655,1,2,1,-1,0,-3,2,21
1570180392227670,-3,-2,-2,-1,2,3,2,-8
1570180392227670,-1,-1,0,1,0,2,2,-3
1570180392250632,3,-1,0,-1,-4,-4,-7,-1
1570180392250632,0,-2,0,0,3,4,0,-5
1570180392258698,-1,-2,0,-1,-4,-3,-1,-5
1570180392258698,-1,-2,0,0,1,4,4,4
1570180392266536,-2,-1,0,-1,-1,-3,0,-7
1570180392266536,-3,-3,-1,0,-1,-3,0,-9
1570180392268527,2,0,0,0,1,-3,-1,9
1570180392268527,-1,-2,-2,-1,0,5,1,-6
1570180392280532,0,0,0,0,2,-2,-1,-3
1570180392280532,-2,1,-2,0,0,-1,-1,0
1570180392287572,0,1,0,-2,0,0,-2,-2
1570180392287572,-4,-3,-2,-2,-3,-5,-6,-17
1570180392304042,0,0,0,0,0,-4,-1,1
1570180392304042,1,-1,-1,-1,3,24,2,3
1570180392310421,2,-2,0,-1,-2,-10,1,3
1570180392310421,0,1,0,1,0,1,-9,12
1570180392326423,-3,-1,-3,-2,-4,-5,1,-3
1570180392326423,-2,-2,0,-1,0,-2,1,-6
1570180392328373,0,-1,-2,0,0,0,-4,-1
1570180392328373,2,1,0,-2,1,2,4,5
1570180392340334,-4,-2,-2,-1,-3,-2,-2,-4
1570180392340334,1,-2,-3,-3,-2,4,1,6
1570180392349313,-1,-1,3,-1,0,4,2,-2
1570180392349313,2,0,0,-1,1,-4,-1,-1
1570180392364335,0,0,0,0,0,2,0,-1
1570180392364335,-1,0,1,0,-3,-8,-2,-7
1570180392365268,-4,-2,-2,0,-2,-1,3,-7
1570180392365268,2,1,1,0,0,0,-9,6
1570180392386219,2,2,-1,0,1,0,-5,-6
1570180392386219,1,-2,-1,-2,-2,-3,1,-3
1570180392388208,0,0,-1,-1,-1,0,1,0
1570180392388208,0,1,0,0,-1,-1,2,1
1570180392400180,-1,-1,-1,1,1,1,0,2
1570180392400180,-1,-1,1,-1,1,-5,-3,-3
1570180392409152,-3,-1,-1,-1,-1,4,12,-17
1570180392409152,0,-2,-1,1,0,7,0,-2
1570180392424226,1,-1,0,-2,1,3,-1,1
1570180392424226,-1,0,0,-1,1,-1,0,2
1570180392426107,1,-2,0,0,0,-5,-4,0
1570180392426107,-2,-1,0,0,-2,1,3,-3
1570180392447058,-1,0,-1,1,-1,-1,-1,1
1570180392447058,-6,-2,-1,-1,-1,-3,9,-11
1570180392448051,0,0,-2,0,0,3,-1,3
1570180392448051,0,-1,-2,-1,-2,-8,-5,2
1570180392460021,0,-1,-1,-2,-2,-1,-2,4
1570180392460021,-1,-1,-2,1,-1,-5,-3,-4
1570180392469181,1,-1,-1,-3,-1,-1,0,15
1570180392469181,1,-1,0,-1,1,-1,3,1
1570180392483956,-3,0,1,1,-2,-1,2,-3
1570180392483956,1,-1,-1,-1,0,2,-1,-3
1570180392485952,0,2,1,1,-2,-5,-13,-4
1570180392485952,3,0,-2,-1,-1,-2,-12,10
1570180392505892,0,-2,-1,-1,0,4,3,5
1570180392505892,4,3,1,2,1,2,-2,8
1570180392508687,-3,-2,-2,-1,-5,-6,-5,0
1570180392508687,-3,0,-1,0,-1,-2,2,-8
1570180392519860,1,-1,1,0,-1,-2,-3,-2
1570180392519860,0,0,0,-1,-2,-6,-4,7
1570180392528910,-1,0,0,1,4,13,5,-1
1570180392528910,-4,-2,0,-3,-6,-24,-1,-6
1570180392544200,6,1,1,1,3,7,-13,9
1570180392544200,-2,0,0,-1,-2,0,0,-8
1570180392545865,-2,0,-2,-2,-1,-2,-3,-1
1570180392545865,0,-2,-2,1,-2,0,4,-1
1570180392565735,-3,-2,-2,0,0,0,0,-1
1570180392565735,-1,-2,-1,0,-1,-5,-4,-2
1570180392566839,-5,-1,-1,-1,-2,-3,7,-23
1570180392566839,-1,0,0,0,3,7,-1,-2
1570180392588678,-3,-2,-2,-3,-3,-4,7,-4
1570180392588678,-2,-1,0,0,1,2,-4,3
1570180392589406,-2,-1,0,-1,0,-2,3,-6
1570180392589406,0,0,0,0,0,0,-1,-4
1570180392603643,4,2,0,2,0,-1,3,4
1570180392603643,-3,-1,-1,-1,-1,-1,2,-2
1570180392603712,1,-1,-1,-2,1,1,-2,7
1570180392603712,-1,-1,0,0,0,1,1,-2
1570180392625573,-1,-1,-1,-1,1,-3,-8,-15
1570180392625573,1,1,-1,0,0,-1,-3,4
1570180392626569,2,0,0,0,0,-2,-3,5
1570180392626569,2,1,0,2,3,3,-2,12
1570180392648649,-4,-1,-1,-3,-6,-4,-5,-6
1570180392648649,1,-1,-2,-1,0,11,5,5
1570180392648649,1,-1,0,-1,-3,-14,-7,5
1570180392648649,-1,-2,2,-1,-1,-1,4,-2
1570180392663480,-1,1,-2,-2,0,3,3,3
1570180392663480,-3,1,0,0,-2,-1,-1,-2
1570180392663480,1,1,0,0,-1,4,-2,8
1570180392663480,-4,-2,-3,-4,-2,0,2,-8
1570180392685942,0,0,-2,-1,-2,-4,2,-1
1570180392685942,0,-3,-3,-2,-2,-3,1,3
1570180392686413,-3,-2,-2,0,-1,6,2,-9
1570180392686413,0,1,0,1,1,-2,-3,0
1570180392708350,-2,-1,1,-2,0,3,2,3
1570180392708350,-3,-2,-2,-2,-2,-7,-3,-7
1570180392709357,-1,-1,-2,-2,1,-2,-3,0
1570180392709357,0,0,-2,-2,-1,2,3,8
1570180392723362,0,-1,-1,-1,-1,-2,-1,8
1570180392723362,-2,-2,0,1,0,0,0,-3
1570180392724309,1,1,1,0,-1,-5,-5,-6
1570180392724309,0,0,-1,-2,3,8,3,3
1570180392762208,-4,1,0,-1,0,-1,4,-9
1570180392762208,-3,-1,0,-1,-2,-5,11,-18
1570180392762208,3,-1,-1,-1,3,5,0,13
1570180392762208,5,1,1,2,0,-3,-11,9
1570180392769196,0,-2,0,0,0,6,-2,0
1570180392769196,0,0,0,-3,-5,-15,-1,-1
1570180392770186,2,0,0,-1,-2,-4,0,1
1570180392770186,-5,-1,1,-1,0,0,0,-17
1570180392783154,8,0,-2,-1,-1,-2,2,24
1570180392783154,0,1,0,1,-2,4,-5,7
1570180392784245,-4,-2,-3,-3,0,-4,1,7
1570180392784245,1,-1,-1,0,-5,1,2,1
1570180392806089,-3,1,0,0,0,0,-1,-8
1570180392806089,2,1,-1,-2,1,1,1,5
1570180392807087,1,-1,-1,0,0,0,0,0
1570180392807087,-4,-1,-1,0,0,1,3,-5
1570180392828075,-2,-2,-1,-1,-1,-2,-1,6
1570180392828075,-1,-1,-1,0,2,3,-4,1
1570180392836184,-1,-1,1,1,-1,0,1,-1
1570180392836184,4,2,0,0,2,1,2,9
1570180392842991,1,1,-1,0,-1,-4,-15,8
1570180392842991,1,-2,1,1,-1,-1,-3,3
1570180392844049,-1,1,-2,-2,-2,2,-1,-4
1570180392844049,-1,-2,-4,-2,-4,-6,2,2
1570180392865979,-2,0,1,-2,-1,-2,3,-8
1570180392865979,2,1,1,0,0,1,-9,6
1570180392866928,1,-1,0,-1,-1,-1,-3,1
1570180392866928,-2,-1,0,-1,-2,1,0,-6
1570180392888869,-5,1,-1,-1,0,-3,-1,-12
1570180392888869,2,-3,-2,-2,1,-1,2,4
1570180392889868,-2,-1,0,0,-2,6,7,8
1570180392889868,-3,-4,-3,-2,-4,-8,-2,-4
1570180392903454,-1,0,-2,2,2,18,8,-4
1570180392903454,-5,-2,-1,-1,-2,-8,11,-9
1570180392903830,-1,-1,-1,-2,0,0,-4,-2
1570180392903830,-3,0,-1,-1,2,-2,2,-3
1570180392925769,0,-1,0,0,-1,-2,1,1
1570180392925769,-3,-1,0,0,-3,-1,-1,-10
1570180392926861,-2,-1,-2,-2,3,5,-1,-3
1570180392926861,1,-1,-2,-1,-1,2,5,-5
1570180392948748,-1,-3,-1,0,0,-5,1,-3
1570180392948748,-2,0,1,0,1,-3,-7,-2
1570180392948748,-3,-2,0,0,2,0,-1,-5
1570180392948748,0,-1,-1,-3,-6,-1,-2,2
1570180392963719,-2,-1,-1,-1,0,-3,-2,-7
1570180392963719,6,0,-1,-1,-2,-1,-5,26
1570180392963719,0,0,0,1,1,1,0,5
1570180392963719,-1,1,1,-1,2,4,0,-5
1570180392986161,-1,0,1,0,-1,-5,-2,-1
1570180392986161,1,2,0,-2,0,3,-1,-2
1570180392986940,-4,0,-1,0,-1,-3,3,-8
1570180392986940,-1,-1,-1,-1,1,1,-1,0
1570180393008771,-2,-1,-2,-1,-3,-3,1,-2
1570180393008771,-1,-1,-1,1,-1,-10,-3,0
1570180393008873,-1,-1,-2,-2,-1,4,-2,-9
1570180393008873,-1,1,1,1,-1,-3,-3,-7
1570180393031459,5,1,1,1,0,-1,-11,13
1570180393031459,-3,-4,-3,-1,0,5,0,-5
1570180393032368,0,-1,0,0,-3,-5,-4,-4
1570180393032368,0,-1,-3,-2,0,-2,0,8
1570180393046294,0,-1,0,-1,0,0,4,2
1570180393046294,1,1,-1,-1,1,8,1,-2
1570180393046294,-4,0,0,-1,-2,-3,9,-18
1570180393046294,3,-1,-2,0,2,0,-6,8
1570180393068034,-4,-2,0,-2,0,-1,5,-4
1570180393068034,-4,0,-1,0,1,1,0,-7
1570180393069032,-2,-1,-3,0,-3,-2,1,-1
1570180393069032,-3,-1,0,0,-1,2,0,-7
1570180393093299,-1,0,-1,1,-2,-2,-3,-5
1570180393093299,2,2,0,-1,0,-2,-1,0
1570180393093458,-1,0,-1,-1,0,-3,-7,-7
1570180393093458,-1,1,-1,0,-1,0,3,0
1570180393106350,0,-1,-1,0,-1,-4,-4,-1
1570180393106350,-1,-1,0,-1,0,3,1,-1
1570180393106350,2,0,0,-1,0,-3,-3,5
1570180393106350,-5,-2,0,0,-1,-3,1,-11
1570180393129232,-2,-1,-1,1,-1,9,-3,-8
1570180393129232,-3,-1,0,-1,-1,-4,8,-6
1570180393130065,4,0,2,3,1,-3,-7,12
1570180393130065,-1,0,-1,0,-1,-3,-4,-3
1570180393143542,-1,-2,-1,-1,1,0,1,0
1570180393143542,-1,-2,-1,-1,-1,2,0,0
1570180393144435,5,2,0,0,-1,-2,-16,19
1570180393144435,1,0,0,-1,0,-1,-2,6
1570180393165385,-1,-1,-1,-1,1,-2,0,-4
1570180393165385,1,0,-1,-1,0,3,-3,1
1570180393166436,-2,0,0,-3,-1,-1,8,-1
1570180393166436,-3,-3,-4,-1,-3,0,-4,-2
1570180393189075,1,-1,0,-1,0,-2,1,4
1570180393189075,-3,-2,0,-1,-1,0,-1,0
1570180393196207,0,-1,-2,-2,-2,0,1,0
1570180393196207,0,-1,0,1,0,-2,-3,-1
1570180393203307,-1,-2,-1,-2,-3,-1,3,-5
1570180393203307,2,-1,0,-2,-1,-3,-4,4
1570180393204160,-2,0,-4,-1,-2,-1,0,-6
1570180393204160,0,0,0,-1,0,-5,0,2
1570180393226030,-5,-1,1,-1,1,5,5,2
1570180393226030,0,-1,-1,-1,0,0,-1,-1
1570180393226333,-2,-2,-2,-1,0,-3,-1,-3
1570180393226333,0,-1,-1,0,-1,1,0,8
1570180393247973,-1,0,-1,0,-3,-5,-1,1
1570180393247973,-1,-1,-3,-2,-1,3,-2,-1
1570180393255999,0,-2,-1,-1,0,-9,2,-1
1570180393255999,1,1,2,2,0,3,4,0
1570180393262932,3,-1,0,-2,-1,-4,-1,3
1570180393262932,1,-1,1,0,-2,-2,-3,-8
1570180393263927,1,-1,-2,0,0,6,0,0
1570180393263927,-3,-3,-3,-3,-2,2,-3,-4
1570180393285875,1,2,0,0,-3,-6,-2,1
1570180393285875,1,3,3,4,4,1,-1,2
1570180393286868,-1,-1,-1,0,-1,2,0,-10
1570180393286868,-2,-2,-2,-1,0,1,-3,-13
1570180393307812,-3,-3,-2,-3,7,5,0,-6
1570180393307812,-5,1,-4,0,-5,-5,-2,-2
1570180393308809,1,-2,-2,-4,-19,-5,0,8
1570180393308809,1,0,16,-1,-3,-4,2,-5
1570180393324772,0,0,-19,-6,-1,-1,-4,-1
1570180393324772,7,-2,-6,-3,6,4,-2,7
1570180393331032,35,26,2,-1,2,0,3,0
1570180393331032,-28,-9,2,-4,-8,0,0,9
1570180393345710,-8,13,15,6,4,0,3,-9
1570180393345710,-3,-7,4,2,-6,-4,-6,-6
1570180393346711,-50,-41,-11,3,2,2,-3,-8
1570180393346711,-48,-12,-9,-7,-1,-3,-1,-6
1570180393367651,48,-5,6,5,1,0,2,9
1570180393367651,-29,14,-7,-4,-5,-7,-1,-3
1570180393375638,32,36,11,1,5,4,4,9
1570180393375638,-49,-27,3,-4,2,-2,-6,-11
1570180393382735,-23,-29,3,7,-6,-4,-1,-6
1570180393382735,46,9,14,14,4,2,6,17
1570180393391589,-18,8,-26,-15,0,0,-3,5
1570180393391589,4,39,4,-1,4,-1,-7,-5
1570180393406564,15,-9,-2,-6,-13,-3,-2,5
1570180393406564,-42,-20,44,6,0,2,-1,-8
1570180393406564,28,-22,-32,9,11,3,1,11
1570180393406564,113,42,6,20,14,7,11,34
1570180393428494,-128,-54,26,2,-6,-2,-5,-23
1570180393428494,50,17,-22,-10,-14,-5,1,-2
1570180393429488,-18,-21,12,-10,-16,-8,-8,-40
1570180393429488,-5,-5,-18,-14,-11,-3,-3,-42
1570180393442169,61,26,-23,-1,10,4,4,-15
1570180393442169,6,5,2,1,8,5,1,-26
1570180393451142,-22,0,8,-4,-2,1,0,-9
1570180393451142,14,-11,1,12,8,0,1,5
1570180393466101,4,7,7,-3,-2,2,1,5
1570180393466101,-3,19,-6,-6,-3,-4,-5,5
1570180393466101,22,-6,-5,2,3,1,-1,14
1570180393466101,-27,-14,15,7,2,3,2,2
1570180393488046,-22,-11,-18,-10,-5,-4,-3,5
1570180393488046,-6,-10,-1,-7,2,2,2,15
1570180393489042,15,35,14,15,4,0,2,16
1570180393489042,0,-21,-13,-7,-6,-4,-3,5
1570180393502051,-11,-5,-10,-3,-1,-2,-2,12
1570180393502051,20,14,6,-1,11,0,0,7
1570180393510984,14,-3,-6,-11,-16,-4,1,9
1570180393510984,24,10,3,4,8,3,3,15
1570180393525942,6,23,2,1,2,2,3,11
1570180393525942,-6,-24,-4,-3,1,0,-1,3
1570180393525942,-24,-22,8,0,-2,0,2,6
1570180393525942,81,46,-4,0,-1,-5,-5,5
1570180393547783,-86,-77,-3,-3,-1,-2,-5,-16
1570180393547783,64,35,-5,-3,-6,-5,-6,-1
1570180393556269,-20,14,2,-1,2,-1,0,-4
1570180393556269,27,4,21,5,-1,1,-1,1
1570180393562742,66,43,7,0,2,1,4,15
1570180393562742,-61,-11,-3,1,-2,0,-1,-6
1570180393570724,-30,-69,-12,-4,4,3,-1,-9
1570180393570724,27,-2,-15,-12,-22,-7,-6,-7
1570180393585846,23,29,15,7,-1,8,3,14
1570180393585846,27,7,-18,-8,5,-1,-4,-6
1570180393586684,9,23,14,6,2,-1,-1,1
1570180393586684,-4,0,-3,-2,-3,2,5,13
1570180393608695,105,33,-4,-5,6,-2,0,16
1570180393608695,-15,-34,-4,-3,-12,-1,-4,-21
1570180393608695,8,2,13,5,9,5,5,2
1570180393608695,-29,-8,-1,-4,-5,-9,-10,-19
1570180393622655,8,-8,0,4,-2,-2,2,3
1570180393622655,-12,19,4,1,4,3,9,11
1570180393630563,21,-25,-11,6,5,-2,-3,-4
1570180393630563,-21,4,-5,-8,-5,3,4,3
1570180393645822,-66,-19,-12,-4,-3,-7,-8,-20
1570180393645822,-32,-9,-4,1,-8,-1,1,2
1570180393646557,49,27,12,3,-7,-1,4,9
1570180393646557,50,34,7,5,7,-2,3,10
1570180393668464,-74,-48,-34,-19,0,10,2,-7
1570180393668464,32,8,37,17,8,-1,-3,-5
1570180393668464,-10,-6,-15,-12,-9,-5,-9,-13
1570180393668464,-7,-9,23,15,6,7,12,23
1570180393682533,125,43,-12,-8,-7,-7,10,-11
1570180393682533,2,-22,-17,-2,-1,-2,-6,2
1570180393690512,5,-2,10,-4,-3,-2,3,-7
1570180393690512,-74,-22,-20,-11,-3,-4,21,-82
1570180393706358,-51,-9,10,5,-1,0,-15,11
1570180393706358,80,16,0,2,1,2,1,24
1570180393706358,28,67,22,14,5,-4,-1,-5
1570180393706358,31,-5,-16,-11,-2,-2,-6,2
1570180393728355,-53,-19,-3,0,-16,-10,9,-29
1570180393728355,-45,-16,0,5,5,4,-5,9
1570180393729408,-59,-30,-13,-7,-2,-1,-7,-23
1570180393729408,15,1,5,5,-2,-9,-9,14
1570180393751242,37,21,6,6,28,5,5,0
1570180393751242,8,6,-5,-8,3,22,5,3
1570180393752237,2,-3,-3,4,6,-3,2,5
1570180393752237,-34,-22,3,-2,-9,8,21,6
1570180393774177,50,30,6,1,-13,-13,-32,4
1570180393774177,-25,-4,-12,-6,-6,-12,2,-23
1570180393775088,68,19,3,-6,-1,3,-1,17
1570180393775088,-25,-15,-17,-7,3,-4,-8,-3
1570180393788139,5,-7,4,2,0,4,7,11
1570180393788139,-5,4,9,10,6,-2,-2,-9
1570180393789212,-5,-13,1,1,-6,-1,-3,1
1570180393789212,4,2,-6,-3,-3,-2,-5,38
1570180393811382,-3,9,5,16,20,3,8,19
1570180393811382,-14,22,6,-8,-9,-4,-7,-20
1570180393812081,3,-27,-17,-3,-3,-4,5,-8
1570180393812081,-19,-18,-7,-7,2,-5,-14,-4
1570180393834020,-35,5,-14,-7,-10,5,1,16
1570180393834020,31,-5,19,9,5,-2,2,60
1570180393835018,-65,-5,19,11,5,-1,-7,-59
1570180393835018,5,-14,-5,-8,-7,0,-9,-43
1570180393847985,10,0,-1,-1,0,-2,1,-54
1570180393847985,5,8,-9,-7,-4,-5,7,-3
1570180393848977,7,-13,-10,-9,-11,1,0,1
1570180393848977,12,0,4,5,8,4,-4,8
1570180393870918,-57,-16,2,1,2,-2,-2,-23
1570180393870918,18,5,-10,-7,4,-4,-4,5
1570180393872620,23,13,1,-4,1,-5,-7,9
1570180393872620,8,19,2,1,-6,9,1,9
1570180393885877,1,-10,-10,-22,-35,-6,-7,1
1570180393885877,-22,-16,-2,-2,19,3,7,1
1570180393885877,1,12,1,3,-2,2,-2,1
1570180393885877,34,-1,-21,-6,-1,1,3,34
1570180393907820,12,36,35,17,11,1,-4,-26
1570180393907820,-6,-39,-6,-3,-18,0,2,-18
1570180393908821,-13,-4,-6,-5,0,1,5,-1
1570180393908821,-54,-7,-4,4,11,0,-1,16
1570180393931756,-21,-31,-8,-5,-6,3,6,-17
1570180393931756,22,-7,-17,-7,-6,-7,-12,-51
1570180393931756,4,6,1,-7,-1,-1,-3,-17
1570180393931756,-7,6,4,5,3,0,-2,-29
1570180393945720,27,7,-2,0,0,-2,3,-14
1570180393945720,4,13,10,6,1,4,4,-57
1570180393946719,-39,-6,-2,-1,2,-2,1,-14
1570180393946719,-48,-48,-12,-14,-11,1,3,-8
1570180393968664,-8,8,6,7,7,8,11,39
1570180393968664,49,15,-4,-2,-6,-9,-10,-15
1570180393968664,16,9,-1,4,1,8,-22,6
1570180393968664,0,19,12,11,4,-2,0,21
1570180393990600,13,5,-3,-3,5,5,-4,6
1570180393990600,-44,-21,-13,0,-1,1,10,26
1570180393998575,8,12,-2,-2,-2,-3,6,30
1570180393998575,-13,4,7,2,2,-3,0,16
1570180394015532,7,1,5,3,2,-1,5,58
1570180394015532,-6,20,0,1,-3,-2,-8,36
1570180394016588,-50,-45,-11,-7,-3,0,2,26
1570180394016588,67,30,7,4,4,-2,-5,9
1570180394028500,-10,-5,-9,-3,-8,-7,0,20
1570180394028500,-51,-6,2,0,-1,0,5,19
1570180394028724,-20,-4,-3,4,6,5,5,-2
1570180394028724,36,5,9,-1,-5,-3,-2,13
1570180394051439,-17,-13,-3,-2,-2,-3,-8,-10
1570180394051439,-37,-10,-3,0,-2,-6,-1,-8
1570180394052433,-15,11,7,3,2,1,-8,-1
1570180394052433,32,4,15,6,10,6,-9,-8
1570180394065398,15,-10,-2,1,0,-2,3,7
1570180394065398,18,-8,-6,-2,-3,-1,-4,-15
1570180394066752,20,13,-8,-4,-3,-2,9,-4
1570180394066752,-23,4,4,-3,-2,-2,4,-17
1570180394088345,41,5,1,-3,-1,-3,-5,6
1570180394088345,-18,-16,1,2,-1,5,7,2
1570180394089333,90,41,8,8,5,-3,-1,-4
1570180394089333,28,11,-4,-9,-8,-1,1,-12
1570180394119256,-5,6,3,-2,3,-1,-5,-18
1570180394119256,-19,-16,-10,-8,0,-1,-1,-6
1570180394120618,-12,-21,-12,-11,-12,-3,2,7
1570180394120618,-16,-9,1,4,-1,0,-5,-26
1570180394126235,16,7,0,-2,-11,-4,-4,-21
1570180394126235,11,-3,-7,-8,9,1,9,8
1570180394126235,-40,-13,6,8,6,3,1,-3
1570180394126235,12,2,-2,7,-2,-3,4,12
1570180394148183,18,14,4,5,9,6,0,17
1570180394148183,-59,-41,-9,-6,-1,-1,-3,-14
1570180394149173,43,9,4,1,-4,-7,3,10
1570180394149173,-53,-12,-12,-12,-11,-3,13,-13
1570180394171117,2,5,-1,10,2,-10,-17,-12
1570180394171117,45,28,10,0,-7,-2,-5,31
1570180394172112,-15,-19,0,-7,-2,7,-2,11
1570180394172112,-1,13,-3,1,-2,-10,-23,-25
1570180394186078,3,-16,-8,-6,-4,1,4,20
1570180394186078,-15,-11,-5,-5,-10,-3,0,-12
1570180394186078,-11,-6,-9,-8,2,-1,5,8
1570180394186078,13,2,7,0,1,0,0,11
1570180394208140,6,4,-2,1,7,0,4,-11
1570180394208140,33,9,-10,-5,-7,3,-1,4
1570180394209016,16,11,14,10,10,1,7,-13
1570180394209016,2,-1,0,4,-3,1,4,0
1570180394231027,-11,-5,1,-2,4,6,3,-13
1570180394231027,-24,-2,1,0,4,-1,2,-8
1570180394232952,18,3,-13,-13,-14,-3,-5,-2
1570180394232952,-27,-10,2,5,10,2,0,-3
1570180394245914,17,5,4,-2,-12,-2,1,-4
1570180394245914,-8,5,2,7,7,-1,-4,0
1570180394246913,4,2,5,3,14,15,6,2
1570180394246913,3,1,0,6,13,2,-4,2
1570180394267859,-14,-3,-2,2,-3,-2,1,-11
1570180394267859,31,-6,-3,-4,1,0,2,8
1570180394268854,-16,15,2,1,-2,-7,-4,-6
1570180394268854,27,-10,0,-1,-5,1,0,-2
1570180394291792,-14,-13,-10,-10,0,2,2,1
1570180394291792,-4,7,2,4,-2,4,2,-5
1570180394292027,41,14,-9,-7,-6,-4,-5,-3
1570180394292027,26,10,-4,-5,-5,4,2,11
1570180394313739,-33,-21,-3,3,2,-3,-2,-7
1570180394313739,26,11,2,2,19,2,-1,-1
1570180394315000,-15,-11,0,0,-9,-1,1,-3
1570180394315000,-14,-3,-1,-7,-1,-2,-2,-6
1570180394328699,36,14,4,1,-2,-2,0,10
1570180394328699,13,13,9,8,-5,-4,-4,1
1570180394328699,-14,-6,-1,2,4,-3,-3,-8
1570180394328699,-22,-11,2,3,-3,-5,0,3
1570180394351805,16,5,0,-2,17,7,1,2
1570180394351805,-58,-13,-6,-6,-14,-3,-3,-15
1570180394351805,-1,-4,-8,-3,-7,-2,0,4
1570180394351805,-23,-18,0,5,2,1,2,0
1570180394364602,32,7,-5,-7,-10,-6,-5,-13
1570180394364602,34,10,-3,-5,-5,-3,-4,7
1570180394373573,-93,-27,0,3,-3,-5,-4,-20
1570180394373573,52,16,-6,-8,-3,3,-3,-1
1570180394388535,-20,-3,-1,1,1,-5,1,8
1570180394388535,-5,-20,-6,-4,2,12,5,-9
1570180394388535,6,-1,-2,1,-7,-7,-1,7
1570180394388535,-11,1,0,-6,-1,4,0,-2
1570180394411475,-15,6,4,1,-4,-4,1,-14
1570180394411475,3,11,7,5,4,-5,-3,-26
1570180394412475,12,4,10,4,7,3,0,6
1570180394412475,-23,-8,-8,-4,-8,-11,-3,9
1570180394425476,39,9,5,6,-3,8,4,35
1570180394425476,-23,-5,4,11,8,4,-7,-6
1570180394433421,17,15,12,-5,-4,11,11,-12
1570180394433421,-18,-1,8,9,5,3,3,-6
1570180394448374,-10,-2,2,1,12,-4,-3,-11
1570180394448374,-12,-20,-14,-11,-25,-15,-10,-10
1570180394449535,-8,2,3,10,14,-2,-4,-11
1570180394449535,1,-8,-13,-14,-12,3,13,29
1570180394471325,-48,-6,-1,0,6,0,2,-19
1570180394471325,1,9,-4,-5,1,-4,4,-47
1570180394472309,29,8,-5,-8,-12,-6,-1,-26
1570180394472309,-15,1,7,8,-5,-7,-2,-49
1570180394485279,11,23,4,0,-3,0,-1,-44
1570180394485279,-24,-42,-6,-6,-4,-5,8,-1
1570180394493254,-40,-6,-8,-4,-3,6,-2,25
1570180394493254,6,-15,-10,-4,5,-4,-5,4
1570180394508215,2,2,-1,-4,-2,2,0,-7
1570180394508215,16,23,12,6,3,0,-5,6
1570180394509212,1,-17,-4,1,1,-5,-2,20
1570180394509212,25,5,5,10,10,7,5,28
1570180394531155,-38,-18,-5,-3,-9,-2,0,7
1570180394531155,-5,9,0,-1,-2,-1,1,32
1570180394532275,5,6,-4,-3,4,0,-4,-10
1570180394532275,-10,-7,-4,-6,-6,-6,-11,-5
1570180394545151,-2,1,2,1,-3,-5,0,2
1570180394545151,6,-3,3,4,6,8,9,17
1570180394553431,-8,-5,-7,-1,-1,0,-12,-11
1570180394553431,0,14,13,9,7,0,2,5
1570180394568601,6,-4,3,-1,-3,0,-5,-34
1570180394568601,2,-7,-4,-2,-1,-7,-4,4
1570180394569057,8,-1,4,0,-1,8,7,-2
1570180394569057,-8,-12,-18,-12,-12,-6,-4,-2
1570180394593044,-1,1,0,6,-1,-7,1,4
1570180394593044,35,26,5,-1,1,7,-3,14
1570180394594047,16,-5,-2,-4,-1,-2,2,3
1570180394594047,9,20,1,4,3,-1,-1,4
1570180394604960,-3,-7,-3,-3,0,0,-3,3
1570180394604960,15,4,3,3,-3,-2,-1,9
1570180394612936,-2,0,-9,-7,-4,-8,-1,1
1570180394612936,-21,-13,8,4,4,12,2,0
1570180394627978,40,2,-14,-5,-1,-5,-5,-7
1570180394627978,2,10,1,3,5,2,0,-2
1570180394628890,13,11,1,2,2,-3,-3,-2
1570180394628890,6,2,-4,-9,-3,-2,-2,-20
1570180394651931,6,-5,10,6,4,5,3,25
1570180394651931,-20,-20,-10,-8,-7,-2,-1,7
1570180394652827,19,-7,-6,-7,-1,0,5,19
1570180394652827,-11,13,4,6,9,-3,-7,-19
1570180394673777,11,3,-1,-2,-6,3,2,-2
1570180394673777,10,-2,1,0,1,-8,-6,-7
1570180394674768,-42,-8,-3,-3,-1,0,2,-8
1570180394674768,1,-1,5,8,1,1,1,-6
1570180394688286,-9,4,1,-5,3,3,-9,-15
1570180394688286,-6,-10,2,3,-2,0,-3,-4
1570180394688730,10,14,-8,-7,-6,-5,-6,-9
1570180394688730,-13,-17,-12,-7,-3,-8,0,-6
1570180394711731,7,-5,4,6,-2,-4,3,10
1570180394711731,-33,1,-6,-7,-1,-1,-6,-23
1570180394711731,-1,1,5,0,-3,1,-1,-8
1570180394711731,14,15,8,5,5,0,0,9
1570180394733610,6,-17,-13,-11,-9,1,1,10
1570180394733610,31,11,4,3,-1,1,3,19
1570180394734608,-9,-7,2,1,-6,1,1,9
1570180394734608,-9,-1,1,4,3,-3,-2,-4
1570180394756549,1,2,-3,-5,9,6,0,5
1570180394756549,12,11,10,8,5,4,11,17
1570180394757552,-18,-19,-8,7,7,-2,-4,-5
1570180394757552,14,7,8,-6,0,0,2,4
1570180394771668,19,29,11,16,5,-1,2,15
1570180394771668,-17,-20,-8,-6,-3,-1,-3,4
1570180394772507,12,8,8,4,0,0,4,15
1570180394772507,-18,-1,-5,2,-6,1,-1,-1
1570180394794450,-5,-3,8,3,-1,-3,-3,-9
1570180394794450,9,9,3,-5,-8,0,-3,12
1570180394795449,22,5,1,-4,-3,-2,-1,2
1570180394795449,-55,-17,-5,-6,-8,4,3,-11
1570180394808421,-11,4,4,0,3,-10,-3,15
1570180394808421,29,8,-7,1,-2,5,0,7
1570180394809489,5,-5,2,-2,-11,6,-1,-5
1570180394809489,18,6,-2,-6,11,2,0,6
1570180394839327,-4,-5,-10,-7,-10,1,-1,-8
1570180394839327,-4,-7,2,9,5,-2,-2,3
1570180394839327,36,33,13,8,3,0,3,10
1570180394839327,14,-3,-13,-9,-12,-7,-2,7
1570180394854318,-26,-20,-12,-9,6,4,1,0
1570180394854318,5,9,2,0,0,-10,-9,-8
1570180394854467,8,5,3,0,-6,2,4,-2
1570180394854467,17,0,3,2,4,4,1,3
1570180394868251,-41,-14,-5,-4,-6,-4,-2,-1
1570180394868251,-3,-6,-6,-8,-4,8,9,12
1570180394869252,-30,-2,2,3,3,-8,-10,-30
1570180394869252,0,5,-1,1,3,-4,-6,-8
1570180394891255,3,-4,-1,1,-1,3,4,-7
1570180394891255,-17,-3,-1,0,-5,0,2,3
1570180394892248,5,-4,0,-2,-4,-4,2,2
1570180394892248,-20,-10,1,1,9,-9,-1,2
1570180394922107,39,12,-3,-6,-12,0,-2,-12
1570180394922107,5,5,9,9,6,3,1,-1
1570180394923107,1,2,-3,2,5,0,-2,3
1570180394923107,-27,-1,-4,-3,-12,-2,-2,-26
1570180394928094,-6,-9,-8,-6,-3,-6,-7,5
1570180394928094,10,13,3,0,1,-3,-4,-5
1570180394929370,-15,-14,-4,0,-1,-4,-5,4
1570180394929370,-3,-7,-3,-5,-5,4,1,-3
1570180394951034,-18,-1,-1,1,2,3,1,3
1570180394951034,3,-6,-4,-3,-6,-3,0,35
1570180394952029,-20,5,9,9,19,12,3,104
1570180394952029,39,13,1,9,7,0,1,120
1570180394974093,-21,-18,-1,4,1,3,1,54
1570180394974093,-6,-4,-6,-9,-7,-1,3,16
1570180394974965,17,9,2,1,6,-3,0,-23
1570180394974965,11,11,-3,-10,-6,-4,-2,-37
1570180394987941,21,11,2,0,-4,-4,-1,-21
1570180394987941,-25,-18,-4,1,5,8,0,-44
1570180394988928,-16,-10,-1,-4,-4,2,6,-38
1570180394988928,27,13,1,-3,-2,1,3,-26
1570180395010875,-22,0,0,-1,0,3,-6,-56
1570180395010875,22,9,1,-1,-4,-10,-2,-7
1570180395012027,-9,-9,-6,-2,0,5,4,-7
1570180395012027,-7,0,3,3,-1,-5,-14,-13
1570180395033808,-28,-9,-3,-2,-2,2,0,-8
1570180395033808,-6,4,-1,-3,2,-2,-7,-22
1570180395034810,-7,-7,-4,0,-2,-6,-4,-31
1570180395034810,1,-1,2,0,1,8,7,-16
1570180395047775,18,3,-6,-5,-3,-6,-3,-18
1570180395047775,-20,-10,-5,-5,-3,1,-5,-26
1570180395048923,13,8,-2,-2,-4,-5,0,-12
1570180395048923,7,-8,-4,-3,-6,0,-1,-6
1570180395071712,-16,2,2,1,0,-4,5,4
1570180395071712,-13,-18,-4,3,-2,3,2,1
1570180395072211,32,11,-6,-7,-5,-2,12,21
1570180395072211,-31,-26,-2,0,0,0,-15,-37
1570180395093650,12,12,2,2,0,-5,-4,11
1570180395093650,38,25,4,2,14,3,1,9
1570180395099632,-23,-14,-7,-1,-3,2,-1,1
1570180395099632,5,-5,-2,-1,0,2,4,11
1570180395107614,6,13,0,-6,-13,3,1,4
1570180395107614,4,-22,-11,-10,0,-7,2,18
1570180395116593,0,5,16,14,8,3,-8,1
1570180395116593,-6,1,0,5,6,-3,1,-2
1570180395131552,28,5,2,4,5,12,8,21
1570180395131552,-17,3,-1,-3,-9,-13,-9,-5
1570180395133280,2,-8,-5,-4,-2,-1,-4,-10
1570180395133280,-13,-2,-3,-6,-15,-5,6,-10
1570180395153670,18,7,10,5,6,1,-4,-12
1570180395153670,-21,-9,-3,-1,-12,-4,0,-15
1570180395155482,0,-7,-9,-9,6,-1,2,3
1570180395155482,-27,-10,-3,-4,-7,0,-6,1
1570180395167457,-27,-1,7,4,9,6,3,4
1570180395167457,8,-3,-8,-3,-1,-5,-11,8
1570180395176428,-15,-11,4,2,-6,-1,-8,14
1570180395176428,6,-10,-9,-7,2,4,4,17
1570180395190395,-19,-8,5,6,1,-3,-15,-7
1570180395190395,3,14,8,4,-2,1,-20,8
1570180395199365,6,-1,-7,-9,-4,2,-14,6
1570180395199365,27,19,10,9,4,2,-10,3
1570180395214326,7,-22,-14,-6,0,-5,-4,3
1570180395214326,-3,3,-5,-1,4,1,20,11
1570180395215324,5,21,13,9,5,-2,17,8
1570180395215324,-5,-10,6,0,-10,-9,6,-7
1570180395227467,35,17,5,6,14,7,9,4
1570180395227467,-32,-8,1,1,0,2,4,-9
1570180395236859,12,1,-4,-1,4,-4,1,0
1570180395236859,-13,4,-1,-1,-2,-5,2,-3
1570180395251321,0,-14,-12,-12,-18,-1,0,6
1570180395251321,7,7,6,3,9,-1,1,-5
1570180395253428,6,1,-5,-1,1,6,-1,-3
1570180395253428,-31,0,1,2,2,3,-1,-12
1570180395274167,-20,-35,-11,-10,-1,-7,-8,-22
1570180395274167,2,7,1,1,-16,8,3,5
1570180395275163,-2,0,-2,-7,-2,0,-2,-1
1570180395275163,15,-6,-1,5,16,-5,-9,-9
1570180395287137,-12,1,3,2,-2,1,5,4
1570180395287137,15,4,0,-8,-13,-4,-1,-3
1570180395296111,-3,-7,-5,-7,-3,0,0,5
1570180395296111,9,1,-2,-5,-7,-5,-1,6
1570180395312070,-4,1,6,7,4,-5,4,-5
1570180395312070,-1,-2,3,6,11,1,-3,-5
1570180395313083,34,9,-5,-7,-14,-7,-1,10
1570180395313083,-59,-25,10,10,8,9,2,-18
1570180395334008,53,41,-8,-6,-10,-7,-3,9
1570180395334008,-3,8,9,5,4,0,-3,-5
1570180395335003,-4,-17,-4,-4,-3,-3,2,4
1570180395335003,30,8,-6,-6,1,11,9,13
1570180395347968,-26,-9,7,2,-2,-3,-8,3
1570180395347968,8,6,-2,-1,13,2,-2,-1
1570180395356944,-4,7,3,8,0,-3,-5,-8
1570180395356944,0,-4,-6,-9,-12,-1,2,16
1570180395370922,1,-5,2,12,23,7,0,0
1570180395370922,-43,-8,-5,-4,-4,1,2,-17
1570180395372902,17,3,10,6,2,-2,-3,-8
1570180395372902,19,9,-1,3,4,-5,-3,-2
1570180395394231,-4,-4,-5,-10,-16,-3,-4,9
1570180395394231,-2,-10,-3,-3,-4,-3,2,3
1570180395395839,-21,-5,2,3,-1,2,-2,-14
1570180395395839,11,10,0,1,5,0,-7,5
1570180395407956,-31,6,1,-3,-3,0,2,-8
1570180395407956,-5,-35,-18,-12,-5,3,-3,12
1570180395422772,-11,-8,-2,2,-6,-18,-2,-8
1570180395422772,29,8,-4,-13,-11,5,7,5
1570180395430770,-17,-2,8,6,-10,0,3,2
1570180395430770,-6,5,6,13,28,5,3,-9
1570180395437728,36,13,-7,-7,-7,2,-1,15
1570180395437728,-9,10,7,12,4,-1,8,22
1570180395453690,3,-16,-14,-8,-3,-1,5,19
1570180395453690,40,22,6,-4,-19,-11,-1,14
1570180395456140,-6,-3,1,-2,5,15,6,17
1570180395456140,3,7,5,5,14,-2,-2,-1
1570180395476625,7,13,-4,-3,-2,-1,-1,11
1570180395476625,2,-17,-4,-2,-4,-4,3,18
1570180395478620,-19,-2,-4,-2,-5,-2,-4,-6
1570180395478620,-2,-5,-11,-11,-3,-1,-4,8
1570180395490590,14,0,7,10,15,1,-3,2
1570180395490590,-12,9,12,12,3,0,-9,-1
1570180395497573,30,18,-3,-6,-9,-2,-7,2
1570180395497573,-16,-26,-4,4,2,-4,-7,-7
1570180395513529,7,-1,-5,-11,-4,-3,-1,8
1570180395513529,8,4,-4,-10,-6,4,6,2
1570180395515749,-4,-5,4,-5,-4,1,2,-3
1570180395515749,8,8,-5,-7,8,1,-3,6
1570180395527532,-4,0,9,-5,-3,-1,-6,-6
1570180395527532,11,-32,-13,-1,0,-5,-8,1
1570180395537463,-18,-1,1,6,5,4,11,0
1570180395537463,-11,-12,-1,-1,-6,0,-3,-3
1570180395550427,3,1,-5,-4,-7,-4,-5,7
1570180395550427,1,12,6,7,6,5,14,9
1570180395557412,-92,-24,0,2,7,-3,-16,-27
1570180395557412,-15,6,8,6,1,1,13,4
1570180395581350,40,4,-9,-11,-11,-8,-2,17
1570180395581350,-9,1,5,3,2,3,-8,-6
1570180395583338,-2,-7,-3,0,7,0,1,11
1570180395583338,2,6,6,5,-5,0,3,2
1570180395587327,-21,-2,-1,-2,-3,-1,1,1
1570180395587327,4,2,-7,-9,-2,-6,-1,0
1570180395596304,9,-4,0,1,0,1,-4,-2
1570180395596304,3,-9,-13,-8,-4,-1,-6,-7
1570180395610493,8,8,9,12,6,1,0,2
1570180395610493,-4,1,2,4,8,1,-5,-2
1570180395617250,4,-1,0,3,2,-1,3,1
1570180395617250,5,1,-4,-5,-8,-2,1,-5
1570180395642189,-20,-11,-10,-6,-4,1,3,-2
1570180395642189,11,17,14,9,2,1,0,-9
1570180395643373,0,-3,-6,-3,-1,-3,-6,4
1570180395643373,47,9,2,1,-3,-1,3,3
1570180395656144,-34,-7,0,2,1,-1,-8,-5
1570180395656144,-10,3,-2,-4,-3,-1,-4,-9
1570180395658139,11,-2,-1,-3,-3,-1,-1,6
1570180395658139,6,-1,-1,-2,-3,0,-3,0
1570180395671104,8,2,-2,1,4,2,-5,4
1570180395671104,-6,2,8,3,-1,2,1,4
1570180395677235,-1,3,-1,0,1,-5,-11,-18
1570180395677235,-15,-3,2,2,-2,-2,0,2
1570180395702030,-13,-2,3,3,2,-1,3,-3
1570180395702030,0,-2,-6,-3,-3,-3,-12,5
1570180395703021,7,-3,-1,-1,-1,3,9,-3
1570180395703021,-4,0,-2,-4,0,0,-5,-3
1570180395715983,2,-4,-2,0,-3,1,8,3
1570180395715983,8,1,-5,3,2,0,9,-2
1570180395717977,4,7,-8,0,-1,-1,-30,6
1570180395717977,-4,-6,2,2,0,-1,-34,-5
1570180395729945,-3,-4,0,2,0,1,-4,2
1570180395729945,5,-7,-2,-4,-4,-1,-5,12
1570180395738922,4,9,-10,-4,-3,-1,14,14
1570180395738922,-7,-9,0,1,0,-1,6,-1
1570180395753885,25,5,-3,0,1,-2,-64,5
1570180395753885,-27,10,-11,-8,-3,2,-43,-4
1570180395755879,6,-28,-1,0,1,2,-2,-31
1570180395755879,6,21,10,1,1,2,6,-56
1570180395776821,14,0,-7,-5,-4,-4,46,-113
1570180395776821,-10,6,1,-1,-1,-3,13,-92
1570180395777823,10,-38,-13,-9,-5,-7,25,48
1570180395777823,-12,5,-5,0,0,6,53,117
1570180395789798,-14,-25,3,2,-1,2,40,127
1570180395789798,17,17,-9,-2,0,2,11,127
1570180395798763,-22,-7,-11,-4,-7,-16,-33,127
1570180395798763,36,8,-3,1,2,1,10,93
1570180395813723,-76,-23,-1,-2,-6,-9,11,38
1570180395813723,9,-1,-6,-6,-3,5,39,17
1570180395815719,11,11,8,4,3,6,13,-72
1570180395815719,5,10,9,2,2,-2,4,-56
1570180395836661,14,24,17,7,0,4,5,-10
1570180395836661,1,-15,6,7,-2,-3,8,-19
1570180395837660,-3,26,14,4,3,3,3,3
1570180395837660,-9,-29,-11,-1,0,0,-21,-34
1570180395850339,11,4,-13,-5,1,2,-10,-2
1570180395850339,5,3,5,-1,-1,-2,-12,-25
1570180395858607,8,9,7,6,1,1,-5,-57
1570180395858607,-11,-12,-5,-1,0,1,-4,-71
1570180395873562,13,5,3,1,0,1,-5,-72
1570180395873562,-3,-11,-4,-4,-5,-2,2,-53
1570180395875619,0,10,-5,-5,-1,4,12,-24
1570180395875619,-17,4,4,-1,1,-4,3,-28
1570180395896501,1,-7,-3,-3,-2,-3,-2,-28
1570180395896501,7,6,1,-3,-2,-2,-2,-18
1570180395897498,-12,-9,3,0,0,0,8,-8
1570180395897498,4,-4,-8,-9,-7,-4,-18,-25
1570180395918443,14,8,-4,-2,2,3,3,34
1570180395918443,0,-5,7,3,2,0,7,-7
1570180395920812,3,4,4,1,0,4,47,-11
1570180395920812,-12,-9,-5,-3,-3,-8,-62,-29
1570180395933403,-3,0,-3,-5,-2,-4,-17,-50
1570180395933403,18,3,-2,-2,-1,-1,4,16
1570180395935399,-10,-8,6,6,4,0,-3,-2
1570180395935399,7,5,-3,-3,-5,-4,14,-8
1570180395956344,-9,2,7,3,3,-1,-9,-14
1570180395956344,-12,-11,-5,-4,-2,-1,-12,-12
1570180395958337,16,7,-1,-5,-3,-2,-10,-12
1570180395958337,-13,3,4,7,0,1,7,-1
1570180395970311,4,-3,1,2,1,-3,-10,-12
1570180395970311,12,1,-1,-2,0,4,5,5
1570180395979280,0,3,1,0,2,2,-5,-1
1570180395979280,-16,-1,-2,-4,-3,-1,-2,-24
1570180395994247,24,6,3,6,4,0,-5,31
1570180395994247,-26,-16,-8,-4,-2,-1,1,9
1570180395995238,-5,23,0,-5,0,-3,-12,-11
1570180395995238,-13,-11,2,6,1,0,6,28
1570180396016181,-38,-22,-5,-5,-2,4,8,-3
1570180396016181,-3,-2,-1,-1,0,-3,-8,-18
1570180396018274,23,3,3,4,0,0,-11,3
1570180396018274,30,23,4,-3,0,2,13,20
1570180396030145,11,-8,-4,-7,-4,-2,-1,2
1570180396030145,-18,-1,2,7,6,-2,-10,-10
1570180396039125,-39,-25,-10,-10,-9,-6,-5,-17
1570180396039125,8,5,-3,1,2,0,-1,0
1570180396054081,4,6,4,5,2,1,6,-6
1570180396054081,23,7,0,-2,-5,-5,-4,12
1570180396055961,-9,-4,3,3,4,3,-4,-10
1570180396055961,-4,0,-2,-4,-1,0,3,7
1570180396076029,9,-2,-5,-3,0,9,1,-3
1570180396076029,15,8,1,-1,-3,-6,3,-3
1570180396078016,7,0,1,4,0,-1,-2,6
1570180396078016,-24,-13,0,-2,-5,-1,0,2
1570180396089989,-13,-5,-6,-8,-6,-4,-3,-16
1570180396089989,-25,2,7,13,17,5,1,6
1570180396099163,28,10,0,-6,-6,-3,-1,5
1570180396099163,21,-4,-1,-2,-6,-3,-1,-2
1570180396113921,19,7,-3,4,-4,-3,-4,-10
1570180396113921,-21,-7,0,-6,5,0,-1,-11
1570180396115916,-13,-8,-3,1,6,-1,-4,11
1570180396115916,6,9,3,-2,1,1,-12,23
1570180396135865,0,3,1,1,-1,-3,3,0
1570180396135865,1,-7,-3,-2,-10,-1,0,-4
1570180396137856,16,7,1,4,2,0,1,11
1570180396137856,-16,-8,-7,-5,0,4,0,-28
1570180396149828,0,-3,0,-1,-2,-3,5,21
1570180396149828,6,7,6,5,-1,-1,-4,16
1570180396158844,-3,-5,0,-3,-3,0,3,5
1570180396158844,9,2,-1,-1,-2,-2,2,35
1570180396173764,-1,0,-1,1,5,-2,-1,16
1570180396173764,8,3,1,-5,-5,-1,12,15
1570180396175769,-8,-3,0,2,2,-2,-4,2
1570180396175769,-4,-2,-3,-2,-1,-7,1,-5
1570180396196697,4,6,2,0,0,1,-1,-22
1570180396196697,6,2,1,0,0,8,-14,27
1570180396198040,-13,-9,-5,-1,3,-12,0,-48
1570180396198040,11,2,-1,1,3,4,4,3
1570180396209666,-10,-3,-2,-2,-1,1,-2,-17
1570180396209666,-2,-2,0,-1,-1,7,-2,3
1570180396218716,-4,-4,-4,-5,-6,-4,-1,26
1570180396218716,-6,-5,-2,-3,-4,-4,13,35
1570180396233599,22,10,7,7,3,9,7,76
1570180396233599,2,-2,-1,2,1,10,12,-32
1570180396235714,-2,4,3,2,3,8,-1,-63
1570180396235714,-2,5,-1,-2,-1,-13,-11,-94
1570180396256546,-11,-8,-3,-3,-6,-5,-4,-79
1570180396256546,5,4,2,1,6,3,-2,-50
1570180396257536,18,9,-4,-1,-5,1,7,-25
1570180396257536,-6,-2,1,2,2,10,-5,-20
1570180396269750,-14,3,2,0,-4,-10,-7,43
1570180396269750,0,-9,-5,-2,-1,-5,-2,113
1570180396278481,-10,-8,-3,1,-7,-1,-7,123
1570180396278481,6,4,-3,-2,-4,-9,-6,111
1570180396293485,-10,-6,-3,-3,2,6,3,-34
1570180396293485,-12,-14,-1,0,-2,-4,1,23
1570180396295435,-27,-9,5,1,2,4,3,-26
1570180396295435,72,30,-6,-7,-5,-5,-5,-35
1570180396316384,-5,3,-1,-1,-1,-3,3,-46
1570180396316384,-14,-9,-3,-1,-1,14,6,-52
1570180396318399,-4,-8,3,3,4,-5,-2,-35
1570180396318399,-42,-21,3,3,3,0,7,-50
1570180396330351,30,19,-4,-5,-4,-6,-4,-29
1570180396330351,12,5,-4,-4,-7,-17,-1,-15
1570180396339317,4,1,3,0,8,23,10,6
1570180396339317,-16,-12,2,1,1,5,2,-10
1570180396361262,8,2,1,0,1,0,1,8
1570180396361262,-1,5,1,-2,-2,-6,-4,-26
1570180396363252,7,2,-2,-3,-5,-9,-4,-6
1570180396363252,-16,-9,0,1,3,6,4,0
1570180396376232,8,10,0,-1,-4,-4,-9,-16
1570180396376232,-4,-4,-3,-2,-5,-8,-3,-7
1570180396378219,-4,4,-3,-2,0,3,5,-60
1570180396378219,-12,-7,-1,-2,-5,-6,-5,2
1570180396390186,0,-6,-1,-1,3,1,0,19
1570180396390186,0,-1,-5,-3,-3,-6,-1,8
1570180396399157,-16,-12,-1,1,0,1,-2,10
1570180396399157,13,14,1,2,0,0,-6,5
1570180396413131,-10,-13,-3,1,-1,-2,-2,12
1570180396413131,1,-6,-2,0,1,9,6,3
1570180396420104,-25,-18,-2,0,-4,-18,-8,12
1570180396420104,58,38,-4,-6,-3,4,4,2
1570180396436202,-11,-5,3,2,-1,-6,-4,15
1570180396436202,-8,-2,-3,-5,-6,-9,-15,-14
1570180396438063,0,-3,0,0,-1,-2,-1,8
1570180396438063,-11,-10,1,2,0,-4,-2,7
1570180396450132,3,1,-1,-1,-4,5,4,11
1570180396450132,-3,-2,0,0,-1,-3,0,-7
1570180396458998,1,1,0,0,-2,0,-4,13
1570180396458998,-2,-3,-2,-3,-1,-1,0,4
1570180396472961,-2,-1,-1,-1,1,-4,-4,-10
1570180396472961,-3,1,1,0,1,-1,2,-1
1570180396479998,11,8,-2,-2,-1,1,-5,6
1570180396479998,-13,-8,0,2,1,-1,-1,-5
1570180396495898,-10,-9,1,1,1,2,-3,3
1570180396495898,10,7,2,-1,0,0,-1,-2
1570180396497896,11,6,-2,-3,-2,-1,5,4
1570180396497896,-12,-7,-2,-1,-1,1,-2,-2
1570180396509863,-7,-4,-3,-2,2,2,7,-4
1570180396509863,6,6,1,0,-1,0,4,1
1570180396518836,-4,0,-2,-2,-3,3,11,-14
1570180396518836,-7,-7,1,3,2,0,-5,-5
1570180396533473,5,1,-2,0,0,-1,3,12
1570180396533473,-11,-5,0,-1,0,-1,1,-6
1570180396539803,5,1,-2,0,-1,2,-5,3
1570180396539803,0,1,-1,0,1,12,2,3
1570180396556737,1,-1,-1,-3,-4,-8,0,7
1570180396556737,-14,-4,-1,1,0,-4,-10,-27
1570180396557740,26,9,1,-1,1,1,5,40
1570180396557740,-6,-2,-1,-2,-2,-2,-2,7
1570180396586655,0,0,2,2,-1,-1,-4,3
1570180396586655,-2,1,-2,0,0,1,2,0
1570180396587653,0,1,0,-1,1,-2,-5,-5
1570180396587653,-2,-2,0,1,-1,-3,0,-5
1570180396593739,-8,-3,0,-1,0,2,3,-4
1570180396593739,7,2,0,0,0,-2,3,7
1570180396595634,-1,1,0,0,-2,-1,-6,-9
1570180396595634,-1,-3,-1,-1,-2,-4,0,9
1570180396616579,-13,-3,-3,-1,0,3,-3,-21
1570180396616579,7,2,0,-1,-1,2,2,3
1570180396617735,-2,-1,-1,1,0,1,-5,0
1570180396617735,-2,-1,-1,0,0,-2,2,0
1570180396638525,13,3,-1,-1,2,-2,-2,-4
1570180396638525,3,-1,-2,-1,0,-4,-5,-1
1570180396640512,-4,-4,-1,-4,-2,0,3,-4
1570180396640512,-10,-4,2,1,-1,-1,7,-12
1570180396653477,-9,1,3,2,0,-1,-4,-17
1570180396653477,8,0,0,-1,-3,-1,-4,10
1570180396655473,-3,-1,-3,-1,-1,-1,-2,-2
1570180396655473,0,-1,-2,-2,-2,1,0,-3
1570180396676417,4,1,0,-1,-3,-11,-3,14
1570180396676417,-7,0,0,-1,2,1,0,-16
1570180396678411,-1,-1,1,2,0,-1,-2,-7
1570180396678411,2,-1,-2,0,1,0,2,3
1570180396698357,-2,-4,-2,-2,-1,4,1,11
1570180396698357,2,2,-1,-1,-1,-2,-4,-3
1570180396700351,2,0,-3,-2,0,-2,-2,3
1570180396700351,-2,-1,-1,-2,2,2,0,-3
1570180396712367,3,-1,-1,-1,-1,0,1,4
1570180396712367,-6,2,2,1,1,1,0,-13
1570180396720334,4,0,2,0,1,1,-4,7
1570180396720334,-6,-3,0,0,-1,-3,-4,-6
1570180396736707,-7,-6,-3,-3,-1,1,0,-5
1570180396736707,14,7,-1,0,-1,-1,1,3
1570180396738260,0,1,-1,0,0,0,2,4
1570180396738260,-2,0,-1,-1,1,0,-3,0
1570180396758871,-3,-3,0,-1,-1,2,-1,-5
1570180396758871,-8,-4,-3,-1,-2,2,7,-3
1570180396760192,-4,0,0,-1,-3,-2,-5,-9
1570180396760192,5,1,-2,-1,0,-2,5,16
1570180396773160,-2,1,-2,0,-1,2,-3,-6
1570180396773160,0,-2,-2,-3,-1,0,2,6
1570180396780138,1,1,-1,-1,0,1,0,1
1570180396780138,3,-1,0,0,0,0,-1,-2
1570180396796209,1,0,-1,-1,-1,0,0,2
1570180396796209,1,0,1,-1,-1,-1,-2,10
1570180396798096,-6,-2,-2,0,0,-1,-2,-9
1570180396798096,9,-1,1,-1,-2,-1,-4,6
1570180396819033,1,-1,-1,-2,-1,0,2,10
1570180396819033,1,-2,0,-1,-1,0,-1,6
1570180396820031,-2,-1,-1,-2,-2,0,-2,-4
1570180396820031,-5,0,-1,0,-2,1,0,-5
1570180396833040,0,1,0,1,-1,-1,0,-7
1570180396833040,0,0,-1,0,-1,0,0,-10
1570180396839977,3,-3,-1,-2,-1,-1,-1,3
1570180396839977,-4,0,-1,-1,0,-1,-1,-14
1570180396863919,-3,-1,0,-1,0,0,1,2
1570180396863919,-3,-1,-2,0,0,1,-2,4
1570180396865908,0,1,-2,0,-1,-3,0,-2
1570180396865908,-5,-1,0,0,0,-2,-1,-5
1570180396877564,3,0,1,0,0,1,0,4
1570180396877564,-7,-1,0,-3,-2,-2,0,0
1570180396886187,-2,0,1,-2,-2,-1,-4,-3
1570180396886187,-4,-1,0,-2,-1,0,0,-2
1570180396893092,3,-1,1,0,-2,-1,-1,10
1570180396893092,2,0,0,0,-1,0,-3,6
1570180396900301,-3,-1,0,1,-1,-1,0,0
1570180396900301,-5,-1,-2,0,0,-2,-4,-1
1570180396916174,5,2,-2,0,2,0,-2,-3
1570180396916174,2,-2,-1,0,-2,1,1,7
1570180396924130,0,0,0,0,0,2,1,1
1570180396924130,6,3,-1,-2,0,0,-1,10
1570180396939218,-10,-1,0,-1,-2,-2,-2,-13
1570180396939218,9,2,-1,0,-2,-1,0,9
1570180396940168,-4,-2,-1,0,0,0,1,-7
1570180396940168,6,-1,-2,-1,-1,0,1,15
1570180396953055,-3,0,-2,0,0,0,0,-4
1570180396953055,-1,-2,-2,-2,1,0,-2,0
1570180396960798,3,0,1,0,-3,0,1,5
1570180396960798,-3,-1,1,-1,0,-1,0,-1
1570180396976873,1,1,-1,0,-2,-1,0,-5
1570180396976873,0,-1,-1,0,-2,-1,-2,-3
1570180396978238,1,0,-2,0,-1,0,-1,-1
1570180396978238,-1,0,-1,-1,-1,-1,0,0
1570180396999150,1,0,-2,-3,-1,-2,1,5
1570180396999150,-2,0,-1,-1,-1,-2,-5,-1
1570180397000423,2,-2,-1,-1,-1,-2,0,10
1570180397000423,1,0,-1,-1,0,0,2,-4
1570180397013004,-1,-2,-1,-1,-2,-1,0,0
1570180397013004,-8,-2,0,2,-2,-1,-2,-13
1570180397020030,0,-1,0,-1,1,-3,-2,0
1570180397020030,10,0,-1,0,-1,1,1,10
1570180397036749,0,-1,-1,-1,1,1,-1,2
1570180397036749,-6,0,0,-1,-1,-1,-2,-4
1570180397037704,-1,1,0,0,1,0,0,-2
1570180397037704,-6,-3,-2,1,0,-3,-3,-8
1570180397058656,-2,-1,-2,0,1,0,0,5
1570180397058656,3,-1,-1,-1,-1,-1,-1,2
1570180397060652,1,1,1,0,-1,0,0,3
1570180397060652,-3,-1,1,-1,-1,-2,-1,-3
1570180397072855,2,1,2,-1,-1,-2,-1,6
1570180397072855,2,-3,-3,-1,0,0,1,2
1570180397081442,0,-1,-3,-3,-1,-3,-1,-1
1570180397081442,-5,-1,3,1,-1,0,-2,1
1570180397096396,3,1,0,0,0,-1,-1,-2
1570180397096396,0,-1,-1,0,0,0,0,1
1570180397098392,4,-2,-2,-1,0,0,0,6
1570180397098392,-2,0,-1,-1,0,0,-3,-7
1570180397118455,0,1,-1,0,-1,-2,-1,-3
1570180397118455,-1,-1,-1,-1,-1,-1,0,1
1570180397120447,2,-2,1,-2,0,0,-2,-8
1570180397120447,-1,-3,0,0,0,-1,-2,-3
1570180397132481,-2,-2,0,-3,-1,0,-1,-2
1570180397132481,7,1,0,0,-1,0,3,10
1570180397141531,-6,-1,0,0,1,0,-3,-8
1570180397141531,0,-1,-1,-1,-1,1,-1,2
1570180397164585,-1,-1,0,0,0,-2,-1,-1
1570180397164585,0,-1,-2,0,1,-1,0,2
1570180397165474,0,0,-2,0,-1,-1,-1,1
1570180397165474,-2,0,-2,-1,-2,0,1,-1
1570180397179477,0,-1,-2,0,-1,-1,-3,-3
1570180397179477,-2,0,1,-2,1,1,0,-4
1570180397180428,0,0,1,0,0,-1,0,-1
1570180397180428,-1,0,-2,0,-1,0,1,0
1570180397192631,-2,-2,1,-1,-1,0,1,-1
1570180397192631,-2,-1,0,0,1,-2,-2,-2
1570180397201391,-2,0,-1,-2,-1,0,0,-4
1570180397201391,-1,1,-2,-1,-1,0,-2,-5
1570180397216534,4,-2,-2,-2,-2,2,1,9
1570180397216534,-3,0,-1,-3,-1,-1,0,-6
1570180397218431,-1,0,0,0,0,-1,0,0
1570180397218431,-1,-2,-1,-1,0,-2,0,0
1570180397239277,-7,-1,-1,0,-2,-1,-1,-10
1570180397239277,0,-1,1,1,0,-2,0,0
1570180397240265,-1,1,-1,0,0,-1,3,7
1570180397240265,-1,-2,0,0,-2,-1,-4,-5
1570180397252239,-2,0,0,-2,-1,1,-2,-2
1570180397252239,3,0,2,0,-2,-2,-1,1
1570180397261217,-5,-2,0,0,-1,0,-2,-5
1570180397261217,1,0,-1,0,1,0,0,2
1570180397276169,-1,-1,-3,-1,0,-1,0,-3
1570180397276169,-1,-1,-2,-2,0,0,0,0
1570180397278164,1,0,0,0,-2,-3,-2,1
1570180397278164,-4,-2,0,-1,-2,-1,1,0
1570180397299115,0,-1,-1,-2,0,0,-2,-1
1570180397299115,0,-1,-1,-2,-1,1,0,4
1570180397300180,1,-2,-1,-2,-1,-1,-1,-6
1570180397300180,-2,-1,-2,-2,-1,-1,0,-3
1570180397312072,-4,-1,2,1,0,-1,-1,1
1570180397312072,1,0,-2,-1,-1,-2,-3,-7
1570180397321051,1,0,-1,-2,1,0,-1,2
1570180397321051,-3,-1,0,-2,-1,-1,-2,-5
1570180397336009,5,-1,-1,1,1,-1,1,5
1570180397336009,-5,-1,0,-1,-2,-1,0,-6
1570180397338455,-1,1,-1,0,0,0,0,0
1570180397338455,7,-2,0,0,-2,-2,0,4
1570180397358948,-4,0,-1,-1,0,0,-1,-5
1570180397358948,1,-2,1,0,-1,0,0,2
1570180397360464,1,-1,0,0,-1,-1,0,1
1570180397360464,-1,-1,-1,-1,-1,0,1,3
1570180397372910,0,0,1,-1,-1,0,1,-3
1570180397372910,-1,0,1,0,0,-1,-3,-2
1570180397381888,3,1,-1,0,-2,-1,1,10
1570180397381888,-8,-3,-2,-2,0,-2,-5,-13
1570180397396846,5,1,-1,0,-2,-1,0,5
1570180397396846,-3,0,0,-1,0,1,1,-1
1570180397397845,-2,-2,-1,0,-2,0,-3,0
1570180397397845,-2,0,-1,1,0,-1,1,-2
1570180397418787,-6,-1,-1,-1,0,-3,-2,-11
1570180397418787,12,0,0,0,-2,-1,2,20
1570180397420782,-4,-1,0,-1,-2,-2,-2,-10
1570180397420782,2,1,-1,1,-1,0,1,4
1570180397432901,1,-1,-1,1,-1,0,-2,-1
1570180397432901,-3,-1,-1,-1,-2,-1,-1,-3
1570180397441726,-1,-3,-1,-1,1,0,-3,-2
1570180397441726,1,0,-2,-2,1,0,2,8
1570180397456799,-1,-1,0,-1,0,-2,-2,-4
1570180397456799,-4,0,-2,-1,-1,-2,-3,-7
1570180397457683,0,-1,0,-1,-2,-1,1,1
1570180397457683,0,0,0,-1,-1,1,-1,-2
1570180397478629,-1,-2,-1,-2,0,-1,-2,1
1570180397478629,0,0,-1,0,0,0,1,3
1570180397480623,-2,0,1,0,0,-1,-1,-8
1570180397480623,2,0,0,0,-2,-1,0,2
1570180397492589,-3,-1,-1,-1,-2,0,-1,-1
1570180397492589,-1,-2,-1,0,0,0,-1,-3
1570180397501585,-1,-1,-1,0,1,1,-1,3
1570180397501585,-3,-1,0,0,1,-1,-2,-3
1570180397523513,4,1,-2,1,0,0,2,5
1570180397523513,-4,-1,-1,-1,-2,-1,-4,-11
1570180397525502,0,-1,-1,0,0,-2,0,1
1570180397525502,-4,-2,0,0,0,-1,-2,-9
1570180397538470,1,-1,0,0,0,-1,-1,3
1570180397538470,-4,0,0,-1,-1,0,-3,-11
1570180397540463,2,-2,-1,-3,-1,0,2,7
1570180397540463,2,0,0,-2,0,-1,1,1
1570180397561407,-2,-1,-1,-1,0,-1,-2,3
1570180397561407,0,0,0,1,1,-1,-1,-1
1570180397563405,-4,-1,0,0,-1,0,-3,-8
1570180397563405,5,1,-1,1,-1,1,1,9
1570180397576368,-2,-2,0,-2,-1,-2,0,-3
1570180397576368,0,-2,-1,-2,0,-3,-1,-5
1570180397578360,-1,1,0,0,0,0,2,-1
1570180397578360,1,0,-2,0,-2,0,1,2
1570180397599304,0,0,0,-1,-1,-1,-1,2
1570180397599304,2,0,1,0,0,0,-1,-2
1570180397600302,-5,-1,-1,0,0,-1,0,-6
1570180397600302,-3,-2,-1,0,-1,-1,-1,-4
1570180397621320,-1,-1,-1,0,-1,-1,-1,3
1570180397621320,-1,0,-1,-2,-1,1,1,3
1570180397623332,4,0,-1,-1,2,-1,1,3
1570180397623332,0,-1,0,-1,1,0,-2,-2
1570180397636205,-1,0,0,1,2,-1,0,-4
1570180397636205,0,-3,-1,-1,0,0,2,4
1570180397638201,-1,-1,-2,1,0,-1,0,-4
1570180397638201,6,0,0,-1,-3,-2,1,6
1570180397659144,1,-1,-1,0,-2,0,-1,1
1570180397659144,-1,1,0,1,-1,-2,-1,0
1570180397660143,0,-1,-1,-2,-1,1,-2,-1
1570180397660143,-5,-1,1,-2,-1,-1,-1,-4
1570180397681167,-2,0,1,0,-1,0,-1,-3
1570180397681167,0,0,-2,-1,-2,-1,1,2
1570180397683081,-2,0,-1,-1,-1,-2,-4,-1
1570180397683081,-2,0,-2,1,-1,0,-1,-2
1570180397696052,-4,-3,-1,-3,-2,-2,-1,-2
1570180397696052,0,-1,-1,-2,0,0,-1,2
1570180397703036,2,-2,0,-1,-2,0,-1,2
1570180397703036,-3,0,-2,-2,0,-1,-1,-2
1570180397718985,-1,1,-2,1,-1,1,1,-2
1570180397718985,0,-1,-2,0,0,-2,-1,0
1570180397720129,-1,0,0,0,0,-1,0,-2
1570180397720129,2,-1,-1,0,-1,-1,-2,1
1570180397740929,0,0,-1,-2,-1,0,0,-3
1570180397740929,0,0,0,0,-1,0,1,6
1570180397742920,0,0,-1,-1,0,1,0,4
1570180397742920,-2,-1,-2,-1,0,0,-1,0
1570180397755912,-1,0,0,1,-1,-1,-1,-2
1570180397755912,-2,0,-2,0,-1,0,-2,-6
1570180397763003,-1,-2,0,-1,-1,-1,-2,-3
1570180397763003,1,0,-1,-2,0,-1,-1,0
1570180397778829,1,1,-1,-1,1,-2,0,2
1570180397778829,-1,-1,1,1,-1,0,-1,0
1570180397780821,-3,-1,0,-2,-1,-3,0,-3
1570180397780821,-2,-1,-1,-1,0,0,-1,-2
1570180397801765,0,-1,0,0,-1,-1,0,-3
1570180397801765,-1,0,0,0,-1,-1,0,1
1570180397802761,0,-2,-1,0,-2,0,-2,-9
1570180397802761,0,-2,-1,-1,-1,0,1,3
1570180397814824,1,-1,0,-1,0,3,0,4
1570180397814824,-1,2,-1,-2,0,0,-1,-1
1570180397823704,2,0,0,-1,0,-1,0,2
1570180397823704,0,-1,0,-1,0,-1,-1,-2
1570180397838670,0,-1,-1,0,0,-1,-1,0
1570180397838670,-1,-2,0,-1,-1,1,-3,-5
1570180397840660,3,-1,-2,-1,0,-2,1,4
1570180397840660,1,1,-1,0,-1,-1,1,6
1570180397861608,-2,-3,-2,-1,-2,-2,-2,-3
1570180397861608,0,0,0,-1,0,-1,0,0
1570180397862600,-2,-1,0,0,1,0,-1,-1
1570180397862600,-2,0,0,-1,-1,-2,-2,-2
1570180397875570,1,0,-1,-1,-2,0,1,1
1570180397875570,0,0,-1,0,0,-1,1,0
1570180397882547,-1,-1,-1,0,-2,-1,-2,4
1570180397882547,-1,-1,1,0,0,-2,-2,-4
1570180397898504,-2,0,0,-1,-1,-2,0,-3
1570180397898504,0,-2,1,-2,0,0,-1,-2
1570180397900501,0,1,-1,-2,-1,-1,-1,2
1570180397900501,-1,-1,-1,0,0,0,-1,0
1570180397921526,0,-1,1,0,-1,0,0,-2
1570180397921526,0,-1,-1,-1,0,-1,-2,0
1570180397923438,-1,-1,0,0,-1,0,-1,-2
1570180397923438,-6,-1,0,0,0,-1,-3,-7
1570180397935406,2,1,1,-2,0,1,0,8
1570180397935406,2,-2,-1,-1,-3,-2,-1,-8
1570180397942474,-2,-1,-2,-1,-2,0,0,0
1570180397942474,1,-2,0,-1,-2,-2,1,4
1570180397959344,0,1,-1,-1,2,0,-1,-2
1570180397959344,0,-2,0,0,0,0,0,0
1570180397960339,0,1,0,-1,-1,-1,0,2
1570180397960339,-2,0,-2,0,-2,-3,1,-7
1570180397981283,1,-1,-2,0,-2,-2,-2,3
1570180397981283,0,1,-2,-1,-2,0,1,4
1570180397983281,-2,0,0,2,1,0,-1,-4
1570180397983281,-1,0,-2,-2,0,0,-1,1
1570180397995247,-1,-1,-1,-1,-1,1,-2,-2
1570180397995247,-2,-1,-1,-1,0,-1,-3,-2
1570180398002227,1,-3,0,-1,-1,-1,-1,0
1570180398002227,0,1,1,1,-1,-1,-2,3
1570180398019184,-6,-1,-1,-2,0,-1,-1,-7
1570180398019184,0,1,1,-2,-2,-2,2,5
1570180398020889,-3,0,0,-1,0,-1,-1,-4
1570180398020889,0,0,1,-1,0,1,0,3
1570180398041198,0,0,-2,-1,0,0,2,-1
1570180398041198,-1,-1,-2,0,-1,-1,0,-1
1570180398044116,-1,-1,-2,-2,-2,-2,1,1
1570180398044116,3,-2,-1,-2,-2,-2,-1,2
1570180398055088,-2,0,-2,-1,-2,0,1,-5
1570180398055088,2,-3,-2,-1,-1,-1,2,7
1570180398064062,0,0,0,-1,0,0,-1,7
1570180398064062,-1,-2,0,-2,-1,1,-2,-5
1570180398079025,-2,-1,1,1,-1,0,0,-2
1570180398079025,1,-2,-1,-1,-1,0,0,0
1570180398080023,-3,0,-2,-1,-1,0,-2,-1
1570180398080023,-2,-1,-1,1,0,-1,2,6
1570180398101022,5,0,-1,-2,-2,-1,-1,7
1570180398101022,-4,0,1,0,0,1,1,-4
1570180398102958,2,-2,-2,-2,0,1,2,2
1570180398102958,-2,0,0,-1,-1,0,-1,-6
1570180398115098,-1,-3,-1,0,-1,0,0,-2
1570180398115098,-1,0,-1,-1,-2,0,-2,-1
1570180398123907,0,-1,-1,-1,0,-2,-1,-7
1570180398123907,2,0,-1,0,-1,0,3,11
1570180398138867,-3,-2,-2,-1,-2,-2,-1,-10
1570180398138867,-3,1,-1,-1,-2,0,-3,-8
1570180398140859,-4,0,1,-1,0,-1,1,-7
1570180398140859,2,-1,-1,-2,-1,-2,-2,-4
1570180398161806,-1,-1,0,0,1,-2,-1,5
1570180398161806,0,-1,0,-1,-1,2,-1,1
1570180398162799,0,0,-1,1,0,-1,-1,-1
1570180398162799,-1,-1,-2,-1,0,-2,-2,-1
1570180398174980,-4,-1,1,0,0,-2,-1,-4
1570180398174980,0,-2,-1,-1,0,-2,-3,-4
1570180398184060,0,-2,1,0,-1,0,0,5
1570180398184060,-3,-1,-1,-1,-2,0,-1,-8
1570180398199165,3,1,0,1,0,-3,-1,2
1570180398199165,-2,0,1,1,0,-2,-1,1
1570180398200696,0,-1,0,0,0,0,-1,0
1570180398200696,-2,0,-1,-1,-2,1,-1,-15
1570180398221647,0,0,-1,0,0,0,0,0
1570180398221647,1,2,0,-2,1,1,1,4
1570180398222639,-3,-2,-1,-1,-1,1,-1,-8
1570180398222639,-4,-2,-1,-1,0,0,-3,-6
1570180398234794,0,-1,0,-1,-2,2,0,5
1570180398234794,2,0,-2,-1,0,-1,2,0
1570180398251562,-2,0,0,1,-1,-2,-1,1
1570180398251562,2,0,-1,0,-1,0,0,3
1570180398258552,1,1,0,1,1,0,1,12
1570180398258552,-1,-1,0,-2,-2,-1,1,1
1570180398260537,0,-1,-3,0,-2,0,-1,4
1570180398260537,5,0,1,0,0,-2,-1,3
1570180398281486,-3,0,-1,-1,0,0,-4,-7
1570180398281486,-2,-2,0,-1,-1,1,0,1
1570180398282477,0,0,-2,0,0,0,0,5
1570180398282477,-2,-1,0,1,0,0,0,0
1570180398295447,-4,-1,-2,-2,-1,-1,-1,-9
1570180398295447,2,0,0,1,-1,-1,1,9
1570180398304420,-3,0,2,1,-1,-1,-2,-7
1570180398304420,1,-2,0,0,-1,0,0,4
1570180398318771,0,-2,-1,-3,-1,-3,-3,-13
1570180398318771,-4,0,-1,1,0,1,0,0
1570180398320377,-1,-2,-2,-2,-2,-1,-2,-3
1570180398320377,-3,-1,-1,0,-1,0,0,-1
1570180398341327,2,-1,-1,0,-3,-1,0,4
1570180398341327,-1,0,0,0,-1,-1,-1,-5
1570180398343315,-1,0,0,0,-1,-2,-2,-4
1570180398343315,2,-2,-2,-1,0,-3,0,6
1570180398355393,-2,-2,-1,0,1,-1,-1,-1
1570180398355393,0,0,-1,0,-1,-1,-2,-6
1570180398364541,1,-1,-1,-2,-1,0,1,5
1570180398364541,-2,0,-1,-2,-1,-2,-1,-3
1570180398379224,2,0,-1,1,-1,-2,-1,2
1570180398379224,-1,-3,-2,-1,-1,-2,1,-4
1570180398380223,2,0,2,-1,0,1,-2,-3
1570180398380223,-5,-1,0,1,0,-1,-3,-13
1570180398401170,2,0,-1,-1,-2,0,-1,3
1570180398401170,-2,-2,-1,-1,0,-1,-1,0
1570180398403159,-3,-2,0,0,0,0,-1,-15
1570180398403159,6,0,-2,0,0,1,3,13
1570180398415122,-2,1,-1,0,1,2,-2,0
1570180398415122,0,0,0,-1,-1,1,-2,-2
1570180398424331,1,-1,0,-1,0,-2,-1,3
1570180398424331,1,0,0,-1,1,0,1,-3
1570180398439064,-2,-1,1,0,0,-2,0,-6
1570180398439064,-3,-1,-1,-1,-1,0,-1,2
1570180398440386,2,0,-1,-1,0,-1,0,-3
1570180398440386,-2,-1,1,0,-1,-2,-2,-4
1570180398461000,-3,0,-2,-1,-1,1,-1,1
1570180398461000,-1,-2,-1,-1,-2,0,1,-2
1570180398462996,0,0,0,-1,-1,-1,1,3
1570180398462996,-2,-1,-2,-2,-2,1,0,-1
1570180398483944,-4,-1,0,-1,1,0,0,-7
1570180398483944,1,-2,-2,0,0,0,-1,3
1570180398485453,-1,-1,0,1,-1,0,-2,1
1570180398485453,1,0,-1,1,1,0,4,12
1570180398499144,-1,0,1,1,0,0,-1,3
1570180398499144,-1,0,-2,0,-1,0,-2,-1
1570180398500893,-1,0,0,-1,-1,1,-1,0
1570180398500893,-2,-3,-1,-2,-1,-2,-3,-4
1570180398520841,1,-2,-1,0,0,-2,2,1
1570180398520841,-3,0,-1,0,0,-1,-2,-1
1570180398529047,1,-1,0,1,-1,-2,-1,7
1570180398529047,-3,0,-1,-2,-1,-2,-2,-6
1570180398543786,3,-1,0,-2,-1,-1,1,2
1570180398543786,1,-2,0,0,1,-1,-2,2
1570180398545775,-1,-1,-1,1,1,-2,2,4
1570180398545775,2,0,-1,-1,-1,1,0,1
1570180398558816,-3,-3,-1,-1,-1,-1,-1,-8
1570180398558816,0,0,3,-1,0,-2,-1,0
1570180398560733,-3,1,-1,-1,-3,-1,0,0
1570180398560733,-1,-1,0,0,-1,-1,0,-5
1570180398581680,1,0,-1,-1,-2,-1,-1,-3
1570180398581680,2,0,0,0,1,-1,5,10
1570180398583260,-5,-1,-1,0,1,0,-3,-7
1570180398583260,-1,0,0,-2,-2,1,-2,-10
1570180398603632,0,1,1,1,-2,-1,1,3
1570180398603632,-1,-3,-1,-1,-1,0,-3,-7
1570180398605618,1,-1,-1,-2,-1,0,0,0
1570180398605618,-2,0,1,0,1,-1,0,4
1570180398618580,-2,-1,-1,-2,-1,0,0,-1
1570180398618580,3,2,0,0,-1,-3,-11,5
1570180398625563,5,1,2,-1,0,-3,-11,5
1570180398625563,-3,-1,-2,1,-1,0,-3,-4
1570180398641524,0,-2,-1,1,1,-2,0,5
1570180398641524,-1,0,0,0,-1,0,4,-7
1570180398642687,1,0,-1,0,0,1,4,14
1570180398642687,-2,1,1,1,-1,-1,-3,2
1570180398663462,3,-1,1,0,1,0,-3,7
1570180398663462,-4,-1,-1,-1,0,0,1,3
1570180398665548,-7,-5,-3,-3,-1,0,6,-18
1570180398665548,3,0,-2,-1,-1,2,7,8
1570180398678429,-4,-1,0,-1,-1,-2,-2,1
1570180398678429,0,-1,-1,0,-1,-1,1,-2
1570180398685401,2,-1,-2,-2,0,0,0,2
1570180398685401,1,1,0,1,-1,0,1,2
1570180398701365,-9,-2,-2,-1,-1,-1,-2,-15
1570180398701365,1,1,-1,-3,-2,2,0,-4
1570180398703354,-2,0,-1,0,-2,0,-3,-5
1570180398703354,-4,-2,-1,-2,-1,-3,-4,-12
1570180398724296,4,0,-1,-1,-3,-1,1,6
1570180398724296,-2,-1,0,-1,0,-2,-1,-6
1570180398725294,-1,-1,-1,-1,-1,0,4,1
1570180398725294,0,0,-1,0,0,-1,-4,2
1570180398738419,2,0,-4,-1,-1,0,0,7
1570180398738419,-7,-3,0,-3,0,0,6,-10
1570180398745247,4,1,0,1,1,-2,-10,5
1570180398745247,1,-3,-2,0,1,-1,1,4
1570180398761200,-1,-2,2,-1,2,-1,1,-4
1570180398761200,-2,0,-1,2,-1,-3,-6,-12
1570180398763194,-3,0,-1,0,0,-1,1,-4
1570180398763194,1,0,-1,-1,-2,-2,-1,2
1570180398784139,0,-2,-1,0,-1,-1,-3,-9
1570180398784139,-1,1,0,0,0,1,-3,1
1570180398785138,0,1,-1,-2,-1,0,-1,-3
1570180398785138,-2,-1,0,-2,0,0,-2,0
1570180398806082,-3,-1,-1,1,-2,0,2,0
1570180398806082,-2,-2,0,-3,-1,-1,5,2
1570180398808074,-2,-1,-2,0,-2,-1,-2,-6
1570180398808074,2,-1,2,1,-1,1,1,-4
1570180398821038,0,-3,-3,-3,1,2,3,10
1570180398821038,3,0,-1,1,-1,-1,-5,1
1570180398823035,2,1,1,-1,0,-1,-1,2
1570180398823035,-1,-1,1,0,-1,0,-2,0
1570180398844360,-4,-3,-2,-2,-2,-2,-2,-15
1570180398844360,1,0,-1,0,0,0,-1,2
1570180398845211,-3,-1,0,0,1,0,2,0
1570180398845211,-2,0,-1,-2,-1,-1,-3,2
1570180398858145,-1,1,1,0,-2,0,1,2
1570180398858145,-1,-1,0,-1,-1,-1,2,-9
1570180398864976,5,0,1,1,-1,-2,-6,8
1570180398864976,0,-2,1,0,-1,0,1,-4
1570180398880880,1,-1,-1,-1,-1,0,-2,2
1570180398880880,6,2,-1,-1,0,0,4,12
1570180398883600,6,2,2,1,1,-1,-7,20
1570180398883600,-2,-1,0,0,-1,-1,0,-1
1570180398903977,1,2,1,0,0,-1,0,0
1570180398903977,4,1,0,1,0,-2,-8,4
1570180398905811,-11,-5,-2,0,0,0,5,-17
1570180398905811,0,-1,-3,-1,0,-2,1,4
1570180398917779,-2,0,1,-1,0,-2,-1,-2
1570180398917779,-2,-1,1,0,-1,1,1,-3
1570180398924760,1,-1,-1,0,-2,1,2,-3
1570180398924760,0,1,-1,-1,0,-1,0,-2
1570180398941716,4,4,2,2,0,-1,-7,-3
1570180398941716,-6,-2,-1,-3,-2,0,-4,-6
1570180398942753,-1,-1,-1,-2,-1,0,1,-5
1570180398942753,4,0,-2,1,1,2,4,21
1570180398963656,8,2,0,2,1,-2,-11,14
1570180398963656,-2,-2,-1,0,0,0,0,0
1570180398965651,1,0,-2,0,-2,-2,0,1
1570180398965651,-1,0,-1,-2,0,-3,-1,-2
1570180398977748,-6,-3,0,-2,-1,0,4,-3
1570180398977748,0,-2,-3,-3,-1,-1,0,-1
1570180398993582,-5,-3,-3,-2,0,-1,-1,-8
1570180398993582,3,-1,-1,-2,-3,0,1,0
1570180399001555,-3,-2,-1,-2,-2,1,5,-4
1570180399001555,-1,-1,-2,0,-1,-2,0,5
1570180399003557,-1,-1,-2,0,0,1,1,-8
1570180399003557,-5,-2,0,-2,1,0,-1,-7
1570180399023826,3,1,0,0,-1,-2,1,15
1570180399023826,-4,-2,-1,1,1,1,5,3
1570180399025504,3,2,1,0,0,-2,-7,0
1570180399025504,0,1,-1,1,1,-1,-8,-3
1570180399037478,-2,-2,-1,0,0,-1,-4,-6
1570180399037478,0,-1,-2,-2,-2,-1,-1,-2
1570180399046436,4,0,-2,-1,-2,-1,0,11
1570180399046436,-2,-1,-2,0,-1,-2,0,-3
1570180399061401,-3,-1,0,-1,0,-1,2,-5
1570180399061401,2,0,-1,0,-1,-2,-2,-2
1570180399063501,-2,-1,0,-3,0,2,1,-7
1570180399063501,-2,-3,0,-1,-1,0,1,4
1570180399084488,-2,-1,-3,0,-1,2,9,-13
1570180399084488,-8,-1,-1,-1,0,-3,-2,-41
1570180399085338,2,1,1,0,1,1,-1,13
1570180399085338,-4,-1,0,-1,0,-1,-3,-6
1570180399106279,10,2,2,-1,-1,0,-1,-3
1570180399106279,3,-2,-1,0,0,2,2,22
1570180399108270,8,2,0,0,2,-2,-16,17
1570180399108270,-5,-2,0,1,-3,-1,3,-30
1570180399121240,-13,-4,-4,-1,-4,-2,7,-36
1570180399121240,0,0,2,1,0,-1,0,3
1570180399123231,-3,-2,-1,-3,-3,0,4,-4
1570180399123231,1,-2,0,0,2,2,-1,10
1570180399144179,-1,1,-1,-3,0,-3,-10,5
1570180399144179,-2,1,-1,-1,-2,-1,-3,-1
1570180399145278,-2,-1,0,1,-2,-1,7,4
1570180399145278,2,-1,-3,-1,-1,-1,-1,-3
1570180399157150,-3,-1,2,-1,-1,0,0,4
1570180399157150,1,-1,-1,0,0,1,0,6
1570180399166119,-3,-2,-1,0,-2,0,3,-3
1570180399166119,-2,-1,0,-2,-1,-1,-6,-32
1570180399181218,5,1,-1,1,1,-1,-1,19
1570180399181218,8,2,1,1,0,-1,-6,20
1570180399183190,-3,-2,1,1,-1,-2,0,-11
1570180399183190,-6,-3,0,-3,0,-1,7,-6
1570180399204020,1,-2,-1,-1,-1,1,-6,8
1570180399204020,0,1,0,-1,-2,-2,-3,-5
1570180399205053,-2,0,-1,-1,-1,-1,-1,-5
1570180399205053,0,1,-1,0,-2,-1,2,11
1570180399217133,3,2,0,3,0,0,2,15
1570180399217133,-3,-4,-1,-1,-2,1,3,2
1570180399226954,-2,-1,-1,0,-2,-1,-1,-4
1570180399226954,0,1,0,0,1,-1,-2,11
1570180399240917,-1,0,1,-1,-2,-1,0,-6
1570180399240917,1,1,-1,-1,-1,-2,0,8
1570180399242912,-1,0,1,0,0,0,4,-3
1570180399242912,0,0,1,0,-2,0,-8,-6
1570180399263868,1,-2,-3,-1,-1,0,-1,6
1570180399263868,-3,0,-1,-1,0,-1,3,-7
1570180399265849,-7,-5,-3,-4,-1,1,15,-11
1570180399265849,3,3,0,0,0,-2,-6,15
1570180399277977,-2,-4,-1,0,0,-2,-1,-5
1570180399277977,0,-1,-2,0,-1,-1,1,2
1570180399286796,0,0,-1,0,-1,-1,0,-1
1570180399286796,-5,-3,-2,-2,-1,1,4,-5
1570180399301753,2,-1,-1,-2,-2,-1,-3,3
1570180399301753,0,-1,-1,-1,-2,-1,2,-6
1570180399302752,2,1,0,0,-1,0,-2,1
1570180399302752,1,0,-1,0,-1,-1,0,0
1570180399323744,-2,-1,0,-1,0,0,-3,-7
1570180399323744,-2,-1,0,-1,-2,-1,-7,-11
1570180399325689,1,-1,0,-2,-1,0,-4,3
1570180399325689,2,0,-2,0,1,0,-1,10
1570180399337972,0,-1,-2,1,0,-1,2,6
1570180399337972,0,-1,-2,0,1,0,-1,-3
1570180399346641,0,0,-1,-1,0,-4,-4,-2
1570180399346641,0,-3,1,1,-1,-4,-5,6
1570180399361669,-2,2,0,-2,0,1,-1,0
1570180399361669,-7,-1,1,-1,0,1,0,-4
1570180399362590,7,-1,-1,2,0,-1,-10,14
1570180399362590,-1,-2,-2,-3,-1,-2,2,-5
1570180399383612,0,-1,-2,0,-1,0,1,-5
1570180399383612,-3,0,0,2,-1,-1,-3,-1
1570180399385528,-3,-1,-2,-1,0,-1,2,-6
1570180399385528,-1,0,-1,-2,-1,-2,1,-1
1570180399413457,1,0,2,0,1,-1,-6,-1
1570180399413457,-2,-1,-1,-3,-1,0,0,-10
1570180399415448,-5,-2,-2,-1,0,0,-1,-13
1570180399415448,1,-1,-3,0,-1,-1,-1,5
1570180399420436,-2,0,-1,-2,0,-2,-2,-6
1570180399420436,0,-1,0,1,-1,-2,-2,4
1570180399427424,-2,-1,-2,-3,-2,-2,-4,-7
1570180399427424,2,2,0,1,-1,0,0,2
1570180399444168,-3,0,-1,0,-3,1,4,-6
1570180399444168,-1,-1,-1,0,1,-2,-4,-1
1570180399445977,-7,-3,0,-1,0,2,8,-11
1570180399445977,-1,-3,-3,0,-1,0,1,0
1570180399466312,0,-1,-1,-2,-1,0,2,3
1570180399466312,2,-1,-1,-2,-1,0,1,7
1570180399468310,2,0,0,0,0,-1,1,4
1570180399468310,2,1,2,0,0,0,-8,3
1570180399481272,0,-1,-2,0,1,-1,0,0
1570180399481272,1,0,-1,-1,-1,1,4,1
1570180399483269,1,-1,0,-1,0,0,-2,-2
1570180399483269,1,2,1,2,-1,1,3,5
1570180399504215,-1,-2,-1,0,-1,-2,-2,-1
1570180399504215,2,-1,-1,-1,0,-3,-1,-5
1570180399505208,0,1,-1,-1,-1,-1,-4,4
1570180399505208,-4,-2,-2,-1,0,1,10,-1
1570180399526160,0,0,-1,-1,-2,-1,-2,1
1570180399526160,-1,0,0,0,1,2,3,6
1570180399528148,0,-2,-1,0,-2,-1,-1,5
1570180399528148,-5,-2,-1,-1,0,0,9,-17
1570180399549176,1,-1,-2,-1,1,1,-8,6
1570180399549176,1,-1,-3,-1,0,0,1,1
1570180399550090,-3,1,-2,0,-1,-1,0,2
1570180399550090,5,0,0,-1,-2,-2,-1,2
1570180399564055,0,-1,-1,0,-1,-3,1,-6
1570180399564055,0,0,0,-1,-1,-1,-3,3
1570180399565156,-2,0,-2,-2,-1,-1,-5,-19
1570180399565156,-1,0,-1,1,0,-2,-4,4
1570180399585998,-5,-2,0,0,-2,0,0,-7
1570180399585998,1,-1,-1,-1,-1,-2,-2,4
1570180399588116,6,3,1,1,0,-2,-6,8
1570180399588116,-2,-1,-1,-1,1,-1,-2,-1
1570180399600953,0,-2,-2,-2,-1,-1,1,-4
1570180399600953,-2,-1,1,-1,-1,0,2,-2
1570180399607946,0,-1,-1,0,-1,-1,3,2
1570180399607946,-1,-2,0,-2,-1,-1,-4,-2
1570180399623937,3,1,2,0,-1,-1,0,7
1570180399623937,-2,-1,0,-2,1,-1,0,-3
1570180399625885,0,-2,-1,0,0,-1,-1,3
1570180399625885,-1,-2,0,-3,-1,0,-2,2
1570180399646830,-4,-1,-1,0,0,-1,1,-7
1570180399646830,0,1,-1,0,-1,0,0,4
1570180399647828,0,-2,-2,-1,-2,-1,1,11
1570180399647828,-3,1,-1,0,-1,0,0,-5
1570180399660792,8,1,1,-1,-1,-6,-16,4
1570180399660792,-1,1,-1,0,0,-2,-1,-1
1570180399667778,-3,-1,0,0,0,-3,0,-4
1570180399667778,3,1,0,-1,-1,1,3,16
1570180399683730,-3,0,0,-2,-3,0,3,-2
1570180399683730,-3,-1,-1,1,-1,0,0,-6
1570180399685726,2,1,-1,0,0,0,-1,2
1570180399685726,-2,-1,-2,0,0,-2,-2,-5
1570180399706671,-2,-3,-1,0,0,0,3,-1
1570180399706671,-1,-1,1,0,0,-3,-2,0
1570180399707667,-3,-2,-2,-2,2,2,1,-5
1570180399707667,0,-1,-1,1,0,-3,-3,-1
1570180399721069,-1,0,-3,0,-1,0,3,-2
1570180399721069,1,-2,0,-1,-2,0,2,-5
1570180399727614,6,1,1,0,0,0,-5,9
1570180399727614,1,0,0,0,-1,-3,-7,0
1570180399743692,-6,-3,-2,1,0,-1,-2,-8
1570180399743692,0,0,-3,-2,-1,0,-1,0
1570180399745571,-2,-2,0,0,0,-2,3,-3
1570180399745571,1,-2,-1,0,-2,-1,-5,7
1570180399766511,-4,-2,-1,0,0,0,-3,-27
1570180399766511,3,0,-1,-1,-1,0,0,6
1570180399768505,0,0,-2,-2,-2,-2,-4,0
1570180399768505,-2,-1,-2,-1,-2,0,1,-6
1570180399780477,-1,-2,-1,-2,0,-1,2,3
1570180399780477,-2,2,0,0,0,-2,-2,-1
1570180399787653,-3,-1,0,0,0,2,2,-8
1570180399787653,4,0,0,-2,0,2,1,2
1570180399803416,1,0,1,-3,-1,1,0,7
1570180399803416,-2,-2,0,-1,-2,-2,0,-4
1570180399805408,2,-1,-1,-1,0,-1,1,6
1570180399805408,-3,0,-3,-2,-1,0,-4,-4
1570180399826491,0,-2,0,0,0,2,0,7
1570180399826491,-2,-1,-1,-2,-1,0,1,-2
1570180399828344,-4,-2,0,-2,-1,-1,2,-1
1570180399828344,0,-2,0,-3,-1,-2,-3,-13
1570180399840318,6,3,0,1,1,0,6,15
1570180399840318,-11,-5,-3,-2,-3,-2,1,-32
