timestamp,emg1,emg2,emg3,emg4,emg5,emg6,emg7,emg8
1570181943125881,0,-1,0,0,0,0,-1,1
1570181943125881,-7,-1,0,0,-1,1,-4,-11
1570181943125881,1,-1,-2,-1,0,-1,-1,3
1570181943125881,0,0,-1,-2,-1,-1,-2,-1
1570181943129869,1,0,-1,1,0,-1,-2,1
1570181943129869,1,0,-1,-2,1,-1,0,-1
1570181943130945,-2,-1,-3,0,-1,1,0,-3
1570181943130945,-1,0,-1,0,0,0,-1,4
1570181943135854,0,-1,-2,-1,0,-2,-2,-9
1570181943135854,1,-2,-1,0,1,1,1,1
1570181943156895,1,1,0,0,0,-2,1,1
1570181943156895,-1,-1,-1,1,1,-1,-1,-3
1570181943158791,-1,1,0,-1,-1,0,0,2
1570181943158791,0,0,1,1,-2,-2,0,0
1570181943166773,-1,-2,0,-2,-2,-1,-1,1
1570181943166773,0,-1,-2,-1,-1,0,1,-1
1570181943173859,-1,-1,-1,0,-1,1,-1,0
1570181943173859,0,0,0,-1,0,-1,-1,-1
1570181943197705,-1,0,-1,-1,0,-1,1,-1
1570181943197705,0,-2,0,1,0,-1,0,2
1570181943200200,-1,-1,-1,-1,-1,1,-1,-1
1570181943200200,0,-1,-1,-1,-2,0,0,-2
1570181943218639,2,1,-1,0,0,0,1,9
1570181943218639,-2,-1,-1,0,-1,-1,-2,-6
1570181943252637,0,-2,0,-1,0,0,0,-1
1570181943252637,1,0,-2,-1,0,0,0,0
1570181943253538,-1,0,0,-1,-2,0,-2,0
1570181943253538,-1,-2,1,-1,-1,-1,0,0
1570181943256568,-2,-3,0,-2,-1,-1,-1,-3
1570181943256568,-1,0,-1,0,-2,-2,0,2
1570181943257527,0,-1,1,0,0,-2,0,-1
1570181943257527,-1,-1,-2,-1,0,-1,-1,-2
1570181943264552,2,0,-2,0,-1,0,0,3
1570181943264552,0,-2,-1,-1,0,-1,-2,-1
1570181943279512,-3,-1,-4,-2,0,0,0,-3
1570181943279512,1,0,0,1,-2,-1,-1,1
1570181943285460,-3,1,-1,0,0,-2,-2,-8
1570181943285460,0,1,1,0,-1,1,0,0
1570181943293439,2,-1,0,0,0,-2,-1,1
1570181943293439,-1,0,0,-1,1,-1,-1,-3
1570181943308397,0,-1,-1,-2,-2,-1,0,2
1570181943308397,-1,-1,-1,0,-1,0,0,1
1570181943325413,-1,0,0,0,-1,-2,-1,-4
1570181943325413,-1,-1,-2,-1,-2,-1,1,-1
1570181943326347,0,1,0,0,-1,1,-1,0
1570181943326347,-2,-1,1,-1,-2,-1,-1,-2
1570181943347483,1,-1,0,0,1,0,2,3
1570181943347483,-1,0,-1,0,0,0,1,-2
1570181943349288,0,-2,-1,-1,1,-2,-1,-6
1570181943349288,-2,-1,-1,-1,-1,0,-2,0
1570181943369227,0,-3,-1,-1,-1,0,0,1
1570181943369227,-1,0,0,-1,-1,-1,-1,-2
1570181943371224,0,0,-1,-1,0,1,0,6
1570181943371224,0,0,0,0,-1,-1,2,-1
1570181943385240,-1,-1,-1,0,0,-2,-1,-3
1570181943385240,1,-2,-1,-3,-3,0,-1,-2
1570181943386185,-2,-1,-1,-1,-3,-2,-3,-1
1570181943386185,-1,0,0,-2,-1,0,0,-5
1570181943407351,0,0,-1,-2,-1,-1,-2,2
1570181943407351,-1,-1,-1,-1,0,-1,0,2
1570181943409121,-2,-1,0,0,1,0,-1,0
1570181943409121,1,-2,1,-1,-1,0,-1,2
1570181943421306,-3,-1,0,-1,-2,2,-2,-2
1570181943421306,-1,1,-1,-1,0,2,-1,-1
1570181943430081,-1,-1,-1,-1,0,0,-1,-2
1570181943430081,0,0,-2,-1,-2,1,0,2
1570181943445158,-1,-2,0,1,-1,-2,1,-1
1570181943445158,0,0,0,-1,0,-1,-1,2
1570181943446546,0,-1,-1,-1,0,-1,1,1
1570181943446546,0,-1,-1,-2,0,-1,-2,-4
1570181943467191,-3,0,1,-1,1,0,0,0
1570181943467191,0,0,-1,-1,0,1,3,5
1570181943469089,-2,0,-1,2,0,-2,-3,-6
1570181943469089,-1,-1,-1,-2,-1,-2,-1,0
1570181943490175,0,0,1,-1,-1,0,-1,-1
1570181943490175,-2,-1,0,0,-1,-1,-2,-1
1570181943490968,4,0,0,-2,-2,1,0,8
1570181943490968,-1,-2,-3,1,0,-2,0,-5
1570181943505078,3,0,-1,-2,0,0,1,8
1570181943505078,-1,-1,-1,1,1,-1,0,0
1570181943506587,-2,-1,-1,-1,-1,0,0,-1
1570181943506587,0,0,0,-1,0,-1,-1,-2
1570181943527213,-1,-2,-1,-1,0,0,0,0
1570181943527213,-1,-1,0,-2,0,-3,-1,-1
1570181943528805,-2,1,-1,0,0,0,1,-2
1570181943528805,-2,0,-1,1,2,1,0,2
1570181943549964,3,0,0,1,0,0,-1,-5
1570181943549964,-2,-1,-1,-3,-2,1,-1,-3
1570181943551742,-1,0,-1,-1,0,-1,-2,-1
1570181943551742,1,0,-1,-1,-1,0,1,3
1570181943564886,-3,0,-1,-1,0,-1,1,-1
1570181943564886,0,-1,0,-1,1,-1,-1,0
1570181943566716,1,0,0,-1,0,-1,0,0
1570181943566716,-1,-3,0,-1,-1,-1,-3,-2
1570181943587781,-3,-2,-1,2,-1,-1,-2,-1
1570181943587781,0,-1,-1,-1,-1,-2,1,1
1570181943588645,-3,-1,-2,0,-1,-1,0,-1
1570181943588645,0,-2,0,-1,-3,1,2,0
1570181943609816,-1,0,-1,-2,0,1,-1,-2
1570181943609816,-1,1,-1,1,0,-1,-1,-2
1570181943611676,0,-1,-2,-1,-1,0,2,0
1570181943611676,-1,-1,-1,0,-1,0,-2,1
1570181943624787,-2,1,-1,0,-1,-1,-1,-5
1570181943624787,0,-2,-1,1,-2,1,-1,12
1570181943626541,4,0,0,-1,-1,-2,0,-2
1570181943626541,-5,0,-1,-1,-2,-2,-1,-5
1570181943647653,4,0,0,-1,-2,-1,1,7
1570181943647653,-1,0,-1,-1,0,-1,-1,-2
1570181943648884,-3,-1,1,-2,1,-2,-1,2
1570181943648884,0,1,0,-1,0,-1,0,1
1570181943669652,-1,-1,-1,1,-1,0,-1,-5
1570181943669652,-2,-1,-1,0,-1,-2,-1,-3
1570181943671422,-1,-1,0,-2,1,1,0,0
1570181943671422,0,1,1,1,0,-1,-2,-2
1570181943684438,-2,-1,-2,0,1,0,-3,0
1570181943684438,0,-1,0,1,-2,0,0,-3
1570181943691382,-2,-1,0,0,0,-3,-1,-1
1570181943691382,0,0,-2,-1,-1,-2,0,1
1570181943707667,-1,-1,-1,-1,-1,0,2,-1
1570181943707667,-1,-1,-1,0,1,0,-2,-5
1570181943709320,0,-2,-2,-3,-1,0,-2,-1
1570181943709320,9,8,1,0,0,-1,0,4
1570181943730265,-19,-13,-4,-1,-1,0,-2,-9
1570181943730265,2,2,-1,-1,-1,-1,0,-1
1570181943731545,-1,-1,-1,-1,-1,-1,0,-4
1570181943731545,8,3,2,1,1,-1,-1,-1
1570181943744225,72,33,6,-2,1,0,4,12
1570181943744225,-53,-74,-15,-6,-4,-7,-10,-25
1570181943751216,32,12,3,4,1,5,4,7
1570181943751216,7,1,-3,-3,-4,-4,-3,-5
1570181943767218,22,12,-1,0,-1,2,2,3
1570181943767218,76,49,9,2,4,5,7,23
1570181943769160,-6,-11,-2,0,-2,-2,-4,-6
1570181943769160,-10,-26,-2,2,-1,-5,-7,-17
1570181943790239,-18,-11,-1,-1,0,-1,-2,-2
1570181943790239,23,21,2,-1,0,0,1,6
1570181943791276,-19,-12,-2,2,1,2,3,4
1570181943791276,-12,12,6,3,2,3,4,7
1570181943804255,-3,0,-2,-1,-2,-2,-3,-1
1570181943804255,-38,-33,-6,-3,-3,-2,-2,-7
1570181943811047,15,21,2,-1,0,0,0,2
1570181943811047,0,5,1,1,0,0,0,-2
1570181943827193,-22,-16,-4,-1,-1,2,10,-28
1570181943827193,13,16,-1,-2,-2,-2,-5,-2
1570181943829051,-27,-15,-2,-2,-3,-3,-2,-3
1570181943829051,21,6,-2,-1,0,2,0,9
1570181943849945,-23,-10,0,0,2,0,1,10
1570181943849945,3,10,3,2,-1,0,-2,-11
1570181943851477,14,4,-3,-2,0,-2,-5,-17
1570181943851477,-25,-18,-4,-4,-1,0,5,7
1570181943862918,8,7,2,1,-2,-1,-5,3
1570181943862918,-10,-3,0,-1,-1,-2,1,-2
1570181943872035,10,3,0,-2,-1,-1,-3,9
1570181943872035,-5,-2,-2,-1,-1,0,-1,-11
1570181943887029,-10,-4,-1,-2,-2,-2,-3,-2
1570181943887029,14,6,2,0,1,2,1,1
1570181943888948,-18,-8,-2,0,-2,1,1,-2
1570181943888948,10,5,0,-1,-1,-1,0,0
1570181943910175,-9,-5,-3,-2,0,-1,7,-12
1570181943910175,9,5,2,2,1,0,-2,-2
1570181943912025,-18,-4,-2,1,-1,-2,1,-7
1570181943912025,11,15,0,0,0,0,-2,-2
1570181943924945,3,-12,-4,-2,-2,-1,0,14
1570181943924945,-3,-1,-2,-1,-2,-3,-6,-17
1570181943930901,2,-3,1,1,0,0,-1,2
1570181943930901,4,5,2,-1,0,-1,1,3
1570181943947733,7,-1,1,0,1,1,-4,10
1570181943947733,-8,-2,-1,0,0,2,5,8
1570181943948688,8,1,-2,-2,0,-1,-3,2
1570181943948688,5,1,-1,-1,-1,-1,0,-5
1570181943977609,-10,0,2,-1,1,0,-1,6
1570181943977609,-14,-7,-1,-1,-1,-1,-2,-10
1570181943978700,6,6,0,0,-2,-1,2,6
1570181943978700,4,-3,-1,-1,0,0,2,5
1570181943983587,-3,-1,-1,0,-1,-2,-3,0
1570181943983587,-2,4,-1,-1,-1,0,-1,2
1570181943992612,5,0,0,-2,0,0,0,0
1570181943992612,-11,-9,-3,-2,-2,-1,-4,-1
1570181944007523,-1,1,0,1,-2,0,-3,-1
1570181944007523,-3,-1,0,-1,-1,-2,1,-2
1570181944008519,8,0,1,3,0,0,0,0
1570181944008519,-1,-5,-1,-1,0,0,1,10
1570181944029468,5,7,-3,-1,0,1,-1,-5
1570181944029468,-2,1,9,2,0,-1,-2,-4
1570181944031468,-18,-3,-4,-3,-2,-2,-5,-25
1570181944031468,16,0,-2,-3,-1,-1,0,13
1570181944043431,3,2,-4,-4,-3,-2,0,8
1570181944043431,-7,-3,2,0,-1,0,-3,-15
1570181944052403,7,5,2,2,2,2,-6,8
1570181944052403,-9,-34,-5,7,4,4,7,0
1570181944067364,1,9,-3,-5,-3,-2,-8,-17
1570181944067364,-41,-15,2,2,0,-2,-2,0
1570181944068419,12,10,0,-3,0,-3,15,8
1570181944068419,0,11,-3,-5,-3,-4,-24,-6
1570181944089310,8,4,0,2,1,-1,4,7
1570181944089310,-6,1,5,3,5,5,-3,-1
1570181944091298,5,-2,-3,-2,-3,-1,33,-13
1570181944091298,-14,-6,-2,-2,1,0,-16,3
1570181944112290,22,7,2,0,0,1,21,7
1570181944112290,3,2,-4,-3,-6,-14,-54,8
1570181944114236,0,-5,-2,-2,-4,-2,14,11
1570181944114236,3,3,1,-1,1,4,15,-8
1570181944127236,4,1,-1,-2,-1,-3,-12,-16
1570181944127236,23,7,0,2,4,5,17,18
1570181944129260,-19,-18,-1,2,-1,2,-14,3
1570181944129260,-3,9,0,-2,-3,-3,6,-9
1570181944150140,-9,-8,4,3,1,2,-2,-1
1570181944150140,3,4,-5,-4,-2,0,14,-1
1570181944151290,27,0,0,-2,1,-1,-12,2
1570181944151290,-5,-2,-2,-2,-3,-2,4,9
1570181944163154,32,22,5,1,1,2,1,11
1570181944163154,-51,-37,-5,2,-4,-4,4,6
1570181944172493,4,7,4,1,3,3,-3,-5
1570181944172493,66,33,9,5,-1,-8,1,8
1570181944187042,-12,-13,-1,2,3,34,1,-4
1570181944187042,39,-4,-5,-3,8,-7,7,-2
1570181944189044,60,18,4,0,-2,-7,-3,8
1570181944189044,-38,-27,-12,-5,-3,-5,-5,-16
1570181944210173,1,11,2,-2,-2,-9,-1,4
1570181944210173,23,14,3,0,1,11,7,7
1570181944215995,8,-4,0,-1,-1,0,-14,-16
1570181944215995,-33,17,12,6,0,-1,1,-2
1570181944232175,-29,-21,-4,5,3,-23,-3,2
1570181944232175,31,7,-9,-6,16,31,2,4
1570181944234205,-28,9,6,-2,2,21,6,11
1570181944234205,-27,-24,-11,-11,-15,11,6,-9
1570181944254991,0,-2,1,1,2,-19,-8,1
1570181944254991,-22,-6,-3,-4,-19,-11,-2,-3
1570181944256356,-1,1,0,1,-3,-3,-3,4
1570181944256356,20,7,1,-3,8,10,9,-12
1570181944268865,-20,-6,5,4,-5,-3,-8,-3
1570181944268865,-7,-6,-11,-8,-10,-16,-5,-5
1570181944278070,-5,-2,-5,-3,-5,0,-6,-3
1570181944278070,-13,-6,-1,-2,-6,-31,-6,-7
1570181944291946,5,-4,-5,-4,-2,-9,-6,-15
1570181944291946,17,13,7,5,1,15,14,2
1570181944293756,-24,-15,-2,1,-2,-7,-6,-5
1570181944293756,-1,-5,0,1,5,-5,-6,4
1570181944314892,5,0,-2,-4,-1,11,3,5
1570181944314892,5,7,1,-1,-7,-2,1,3
1570181944316697,-19,-10,-4,-3,-2,-2,-3,-2
1570181944316697,10,2,1,3,7,15,0,5
1570181944329016,8,4,-2,-1,2,-4,3,-5
1570181944329016,-20,-9,-2,-2,-22,-18,-2,8
1570181944344620,5,0,-1,7,55,6,8,2
1570181944344620,4,5,2,1,-17,10,0,6
1570181944352602,-10,-8,-2,1,6,1,2,-5
1570181944352602,-7,-3,1,1,3,-2,-6,-12
1570181944353596,-6,3,-1,-2,-13,-18,-9,-21
1570181944353596,34,10,2,1,2,11,13,37
1570181944374539,-3,-5,-1,-4,-10,5,4,10
1570181944374539,43,15,1,-2,4,-1,1,1
1570181944376535,-31,-5,-3,-3,-11,-2,-4,-3
1570181944376535,-8,-3,-1,0,5,-2,-5,-13
1570181944388540,12,6,1,0,-5,-1,1,0
1570181944388540,8,6,-1,0,5,2,3,2
1570181944397481,-14,-20,-5,-14,-31,-1,-4,-1
1570181944397481,-12,-9,-2,5,27,-7,-5,-4
1570181944412675,19,16,7,4,13,2,1,5
1570181944412675,-13,-6,-1,4,-4,-2,-3,-4
1570181944414148,-25,0,0,1,-2,1,2,-2
1570181944414148,20,1,-4,-8,-21,-10,-4,-2
1570181944434628,-18,-12,-4,-3,-6,1,-2,-4
1570181944434628,-6,-2,3,5,28,3,1,-3
1570181944436422,19,20,3,-1,-19,-2,3,10
1570181944436422,0,-4,1,1,16,1,0,-2
1570181944448537,-2,3,-3,-4,-5,-6,-4,-18
1570181944448537,2,-1,0,-2,-5,12,3,8
1570181944457319,8,-7,-2,2,6,-7,-2,4
1570181944457319,-7,1,1,-2,-6,3,-1,-4
1570181944472451,-7,-3,0,-1,-5,0,-2,-6
1570181944472451,-6,-3,-1,-1,-5,-9,0,4
1570181944474275,26,10,0,1,4,-2,-1,3
1570181944474275,-18,-5,-2,-1,-5,0,-2,-4
1570181944495258,-6,-6,-1,-2,-3,-1,-1,3
1570181944495258,2,1,-1,-1,-1,-1,0,-3
1570181944496570,-4,-5,0,2,3,2,-1,-1
1570181944496570,-1,1,-1,-5,-13,-2,-2,-1
1570181944508182,-4,-6,-5,2,9,0,-4,2
1570181944508182,-1,0,-2,-1,0,-1,-1,-4
1570181944517234,1,-3,-4,-2,0,2,1,3
1570181944517234,-2,2,3,4,3,1,20,2
1570181944532325,-1,-2,1,-3,-7,1,17,-13
1570181944532325,-14,-6,-7,-6,-7,-15,-58,-19
1570181944534116,5,-2,-3,-4,-5,-9,-18,2
1570181944534116,14,2,2,3,6,0,-9,18
1570181944555256,-7,-2,5,5,6,3,16,-14
1570181944555256,15,1,0,6,7,9,13,38
1570181944556839,-7,-2,-7,-4,2,5,9,-12
1570181944556839,-2,-5,-8,-4,-3,4,16,5
1570181944568033,0,0,-4,-8,-2,-3,11,11
1570181944568033,1,19,10,-9,-37,-16,-10,3
1570181944577438,-14,-16,-10,-1,-8,-14,-27,-22
1570181944577438,-22,-22,-4,2,3,-3,-25,-40
1570181944592207,2,-9,-4,2,2,6,4,13
1570181944592207,10,18,7,8,24,9,22,13
1570181944594160,18,26,19,5,9,9,12,5
1570181944594160,42,-2,5,4,1,-1,4,-3
1570181944614901,-93,-76,-4,5,4,2,-20,-26
1570181944614901,38,-4,-25,-10,-4,-2,4,-4
1570181944616096,81,21,4,-3,-8,-2,5,11
1570181944616096,-70,-24,-6,-4,2,-5,-2,9
1570181944628887,100,35,5,-5,-11,-2,-7,24
1570181944628887,-80,-18,2,-6,-4,0,4,-14
1570181944637839,-24,-10,-8,8,9,0,5,-3
1570181944637839,66,92,18,-4,-2,2,2,16
1570181944652889,13,-60,-14,6,-1,-4,-9,-1
1570181944652889,0,-7,13,1,0,2,11,-4
1570181944654174,16,-13,-5,2,5,2,1,6
1570181944654174,11,25,11,4,1,-2,-3,-3
1570181944675094,-64,14,7,-5,-4,-5,-8,-11
1570181944675094,73,12,-11,-10,-7,-6,0,-3
1570181944676741,-85,-67,-2,10,9,4,-2,-17
1570181944676741,15,16,7,1,1,1,5,9
1570181944688738,-4,48,2,-8,2,1,-3,-4
1570181944688738,6,-43,-23,-7,-2,-1,0,-2
1570181944697883,-3,-28,-16,-5,-5,1,2,6
1570181944697883,-11,5,9,14,6,-2,0,-4
1570181944712637,31,13,-2,-7,0,1,-3,7
1570181944712637,-47,-5,-6,2,5,2,1,-8
1570181944714339,-15,36,12,4,3,2,1,5
1570181944714339,33,-7,3,0,-1,0,-1,1
1570181944734735,-32,0,10,-4,-6,-5,-8,-10
1570181944734735,28,13,-7,9,6,-1,1,1
1570181944736657,0,21,15,2,1,-2,0,3
1570181944736657,-38,-24,-6,-1,-6,-1,-3,-9
1570181944748742,46,-2,-1,-2,-2,0,4,15
1570181944748742,-71,-37,2,1,-6,2,2,-16
1570181944757518,104,70,-5,-3,4,2,3,18
1570181944757518,-78,-34,-10,-12,-5,-4,-6,-13
1570181944771747,73,22,-10,-3,3,-4,-3,5
1570181944771747,-37,-13,28,18,-10,3,4,4
1570181944778469,56,29,-5,-5,6,-1,1,5
1570181944778469,-45,-41,-21,0,-4,-5,-5,-6
1570181944794601,-29,-10,13,-2,-1,4,6,1
1570181944794601,26,20,7,0,0,1,3,3
1570181944796551,18,-5,-15,-7,-7,-1,2,7
1570181944796551,-51,1,16,-2,-8,-2,-6,-14
1570181944808381,34,7,4,6,4,1,2,6
1570181944808381,22,-31,-5,-9,-16,-4,-4,-10
1570181944817364,-41,-29,-13,-3,6,1,0,-2
1570181944817364,78,19,-5,0,7,6,5,7
1570181944831523,-41,-1,-6,8,2,-6,-7,-8
1570181944831523,7,29,14,2,12,0,1,8
1570181944838314,-6,-10,-10,-14,-13,1,0,-3
1570181944838314,14,-4,-1,-1,1,0,-1,4
1570181944854312,-8,10,-9,-4,1,2,2,13
1570181944854312,102,46,30,19,10,5,6,19
1570181944863243,-121,-88,-6,-2,-7,-4,-5,-24
1570181944863243,61,27,22,4,1,-1,-2,9
1570181944868228,-14,-42,-29,-6,-6,-1,2,0
1570181944868228,46,16,-18,-11,-2,-2,0,-6
1570181944877197,20,27,18,9,7,0,0,2
1570181944877197,-10,4,-15,-8,-9,-2,1,-4
1570181944891168,4,18,10,-11,1,-5,-3,-8
1570181944891168,-76,-41,-2,11,-3,4,2,-6
1570181944900146,-3,32,9,6,4,1,-1,-6
1570181944900146,-34,-31,-25,-8,12,-3,-6,-11
1570181944922114,-6,-4,3,2,-10,-3,4,-6
1570181944922114,20,14,10,6,17,3,-8,14
1570181944924072,-30,2,-8,-19,-15,-6,-11,-25
1570181944924072,27,-6,2,9,2,-4,-3,0
1570181944928266,-43,-4,-2,0,-2,1,0,-6
1570181944928266,-40,-13,-12,-11,-13,-5,4,2
1570181944937113,72,20,17,10,0,3,5,14
1570181944937113,-29,-23,-12,-7,4,0,-2,-5
1570181944952065,-11,2,-2,2,-3,-3,-7,-5
1570181944952065,12,-2,8,-7,-3,-8,0,3
1570181944957979,-26,-46,-21,-11,-25,4,2,5
1570181944957979,25,17,8,9,20,3,2,5
1570181944975039,37,10,17,4,-8,1,-4,-3
1570181944975039,-75,-18,-11,-7,4,0,-4,-19
1570181944975932,20,12,4,7,19,-4,-3,5
1570181944975932,-16,-12,-9,-7,-6,1,1,-2
1570181944997087,1,9,6,10,13,3,-3,-4
1570181944997087,28,11,-9,-6,-9,-2,0,3
1570181944998871,-12,-10,6,3,-9,0,2,-14
1570181944998871,26,18,-8,-10,-17,0,1,8
1570181945011842,39,14,-9,2,7,0,0,7
1570181945011842,-10,-2,11,0,-11,-1,0,-11
1570181945018819,14,15,16,12,11,2,9,25
1570181945018819,-3,-12,-2,-6,-15,-4,-3,-20
1570181945034781,1,4,-6,0,8,0,-1,-3
1570181945034781,40,18,-38,-13,-3,2,0,-6
1570181945036771,-17,-4,72,29,11,1,-5,-16
1570181945036771,40,2,-10,-13,-33,-4,0,0
1570181945056764,-57,-23,-8,-4,12,-4,-5,-22
1570181945056764,42,11,6,6,17,0,-4,-16
1570181945058712,-21,-3,-36,-16,-11,-4,-7,-23
1570181945058712,-8,-9,9,0,-3,-1,1,-6
1570181945070807,35,5,8,8,-2,-3,-7,-29
1570181945070807,-23,-3,-4,2,13,-1,-2,-10
1570181945079658,18,15,1,-4,-4,-1,0,19
1570181945079658,-2,-14,6,1,-1,-1,-2,-1
1570181945095611,-7,-10,-17,-14,-23,-1,3,41
1570181945095611,-3,-2,4,3,4,-4,-10,-1
1570181945096610,6,15,4,-5,-16,0,1,4
1570181945096610,-12,-24,-13,5,12,1,-5,-41
1570181945117755,-5,4,10,2,-7,-3,3,-45
1570181945117755,11,0,1,3,2,1,1,-44
1570181945118557,4,-2,-6,-7,-8,-1,-4,-34
1570181945118557,0,6,-4,4,16,3,1,-12
1570181945139667,20,20,7,-3,-9,-1,-1,17
1570181945139667,-66,-31,-8,-10,-10,-3,-2,36
1570181945140885,-5,-11,-24,3,7,-5,-6,8
1570181945140885,17,25,18,5,2,2,4,28
1570181945155463,-24,-35,2,5,6,2,2,4
1570181945155463,2,9,4,-2,-5,-1,2,-43
1570181945156452,27,7,-11,-2,4,2,19,9
1570181945156452,-26,-1,-23,-4,-5,-6,-7,-58
1570181945176404,9,6,25,3,3,2,7,-33
1570181945176404,24,1,-6,-1,-1,0,5,28
1570181945177394,-25,-7,4,-2,-1,0,7,21
1570181945177394,19,18,4,1,1,1,10,52
1570181945200335,-56,-42,-30,-6,-2,2,9,36
1570181945200335,44,45,24,9,6,1,0,29
1570181945200335,25,12,4,2,2,-7,-12,2
1570181945200335,-21,-18,-4,-4,-9,2,-2,27
1570181945214493,22,3,-16,-6,-3,-1,-6,12
1570181945214493,-15,-15,-12,-3,-7,0,-1,22
1570181945215302,-50,-8,5,1,1,2,5,-5
1570181945215302,1,-1,4,-3,-6,-6,-10,7
1570181945236404,16,1,-5,-4,6,2,-5,8
1570181945236404,-15,1,8,18,32,1,-2,9
1570181945237236,13,1,-7,-2,9,10,5,8
1570181945237236,-9,-3,10,4,-2,-1,0,15
1570181945260335,12,9,0,-10,-15,1,-1,12
1570181945260335,-46,-12,-2,-2,-3,-6,-4,-9
1570181945260335,9,-14,-21,-9,-7,-6,-9,6
1570181945260335,-48,10,20,10,6,4,4,-12
1570181945274143,30,4,-2,0,4,1,-2,6
1570181945274143,0,-6,-6,-7,-8,-2,-1,14
1570181945275132,-18,-1,-3,0,-2,-3,-5,4
1570181945275132,20,-8,-13,-8,-3,-1,1,21
1570181945297179,7,10,-3,5,0,-4,-1,3
1570181945297179,-17,4,9,-3,-6,-1,-1,8
1570181945297179,0,-8,22,12,7,4,5,3
1570181945297179,16,7,-9,-5,-5,-4,-4,19
1570181945320305,-10,1,1,5,4,2,2,9
1570181945320305,14,-3,-11,-7,-3,-3,-1,34
1570181945321016,18,2,-10,-12,-15,-4,-3,37
1570181945321016,-1,-11,-5,0,9,3,3,11
1570181945333976,-17,-6,-2,0,-2,0,0,-4
1570181945333976,40,30,15,4,-12,-4,-5,-2
1570181945335098,-20,-14,-8,-6,8,-2,-3,0
1570181945335098,17,6,5,3,10,1,-2,2
1570181945356929,4,0,-11,-9,-8,-1,0,-2
1570181945356929,25,-3,-6,-4,-3,0,2,4
1570181945357462,-24,-5,6,1,0,1,0,-1
1570181945357462,2,8,-3,-3,-4,0,0,-6
1570181945379856,33,17,3,5,3,-2,-1,10
1570181945379856,-24,-1,7,-5,-3,-1,-3,-16
1570181945380856,12,-4,-7,-6,-7,-3,-3,-5
1570181945380856,-19,-8,6,6,10,8,7,3
1570181945393948,-2,6,6,-2,0,-5,-7,-9
1570181945393948,-7,-31,-4,1,1,3,1,-5
1570181945394821,-6,-4,-2,1,2,-2,-3,-10
1570181945394821,39,22,-1,-6,-11,-3,1,5
1570181945416936,-28,-7,5,5,2,0,0,-9
1570181945416936,22,14,-9,-11,-15,-4,1,7
1570181945417755,-47,-17,-7,-1,9,6,3,-21
1570181945417755,26,4,1,1,14,0,-3,1
1570181945439695,-11,-16,-7,1,10,0,-1,-6
1570181945439695,1,2,-1,0,-1,2,2,-6
1570181945440690,14,0,-7,-3,-18,0,4,13
1570181945440690,9,28,11,11,15,-2,-4,-18
1570181945453876,-1,-3,4,-2,-4,-3,-3,-15
1570181945453876,2,-10,-1,-2,-1,4,3,9
1570181945455092,-52,-13,2,-4,-9,-2,-4,-15
1570181945455092,-20,-15,-12,-5,-10,-1,-2,0
1570181945476722,-6,-6,1,-1,-2,-1,0,12
1570181945476722,12,24,-4,0,9,-3,-4,-15
1570181945477592,31,-15,3,0,2,-2,-2,13
1570181945477592,-14,4,-5,-1,-8,-2,0,-2
1570181945499592,7,0,11,1,9,3,-1,0
1570181945499592,0,13,-1,-6,-6,1,3,4
1570181945500536,0,-21,-2,0,0,-4,-5,-7
1570181945500536,-2,-3,1,3,13,-1,-1,-2
1570181945514651,4,-2,-6,-10,-24,-1,2,1
1570181945514651,13,9,0,-3,-9,4,4,4
1570181945514651,3,21,-3,3,16,-4,-6,-9
1570181945514651,1,-17,-4,-1,-8,-3,0,-6
1570181945536659,-34,-10,1,6,3,11,1,-6
1570181945536659,5,-2,4,-2,-23,-4,-3,11
1570181945537433,20,22,10,12,28,2,0,4
1570181945537433,23,-6,2,-1,-8,0,-3,4
1570181945560371,-13,18,-10,-5,7,-3,1,-1
1570181945560371,-26,-28,2,-1,1,-3,-2,-26
1570181945560371,20,8,-7,-12,-21,-4,-4,-10
1570181945560371,-11,-2,4,-4,-5,-1,0,-5
1570181945574332,9,14,6,4,7,-1,-3,3
1570181945574332,-11,-17,-5,-1,2,0,0,18
1570181945575330,13,5,1,-2,-3,0,2,5
1570181945575330,-15,-5,-3,-5,-7,-2,-1,-4
1570181945597273,-2,-3,-1,0,9,-2,1,13
1570181945597273,-2,-4,3,3,-4,1,2,-2
1570181945597273,27,6,4,4,10,-1,-2,5
1570181945597273,14,12,-7,1,-3,-2,-1,7
1570181945620336,7,-11,3,-3,-11,-3,-2,-5
1570181945620336,19,2,-1,4,19,3,-1,3
1570181945620336,19,29,1,-1,-5,-3,-8,-18
1570181945620336,-23,-7,5,1,-5,0,-2,-110
1570181945642199,17,-9,-5,-5,-2,-3,-1,-17
1570181945642199,13,21,8,5,2,-4,-10,54
1570181945643285,-13,-28,-9,-3,-7,2,-1,109
1570181945643285,6,4,2,-3,0,-2,-2,127
1570181945658120,7,8,2,2,-1,-1,7,92
1570181945658120,-9,-13,-7,-2,2,-7,6,84
1570181945659112,-12,5,1,-3,-4,4,6,52
1570181945659112,-73,-38,0,2,3,1,-1,20
1570181945680049,33,23,1,-3,-2,-3,-1,13
1570181945680049,-16,-5,1,3,3,2,0,-13
1570181945680049,29,7,-1,-3,2,-3,-4,-21
1570181945680049,11,-6,-5,-7,-11,-6,3,-26
1570181945694226,-7,4,4,4,1,-1,2,-7
1570181945694226,-32,-12,-7,-4,0,-1,1,-37
1570181945695093,22,15,8,4,2,0,12,-36
1570181945695093,-25,-5,-9,-8,-2,4,10,9
1570181945725156,13,-5,0,3,6,-2,-13,-12
1570181945725156,-10,-5,-1,5,1,0,2,-21
1570181945725939,52,25,-3,-3,-3,-1,4,-13
1570181945725939,11,-6,9,2,1,0,-2,2
1570181945739892,-7,1,-6,-3,-5,-7,-4,-8
1570181945739892,-21,-8,-1,-4,-2,3,-7,-16
1570181945740894,3,1,1,0,3,3,-6,12
1570181945740894,9,0,-2,4,5,2,-2,-5
1570181945754094,-4,-7,-5,-5,-10,-2,-6,5
1570181945754094,12,-1,2,4,8,-4,-3,0
1570181945755380,-45,-12,2,-6,-12,-1,2,3
1570181945755380,42,2,-1,5,5,-3,-5,20
1570181945776794,-29,19,8,1,-5,0,-12,-12
1570181945776794,2,-10,-17,-5,5,0,0,3
1570181945777789,-8,1,-9,-1,3,-1,2,5
1570181945777789,9,9,26,9,3,3,1,-3
1570181945807710,-39,-14,8,4,-1,-1,3,9
1570181945807710,18,9,-2,-6,-3,-1,5,4
1570181945807876,-25,-14,0,5,0,-1,-7,-35
1570181945807876,1,9,-13,-7,-4,0,-1,9
1570181945814061,33,4,-3,1,-2,5,7,5
1570181945814061,-3,-3,-3,-5,0,0,-3,2
1570181945814691,-6,-2,7,7,5,1,1,-5
1570181945814691,10,3,-12,-5,2,0,1,-5
1570181945836742,13,0,14,5,4,-2,4,15
1570181945836742,3,9,-4,-4,-10,-3,-10,8
1570181945837632,-7,-10,-2,-6,-4,0,-5,12
1570181945837632,-4,1,6,11,14,-5,-6,0
1570181945867704,-14,-20,-15,-3,-1,8,-3,-14
1570181945867704,9,8,6,5,6,-1,1,-8
1570181945867704,-4,1,7,-5,-11,0,0,3
1570181945867704,14,12,4,-11,-20,-2,1,-2
1570181945874582,-29,-5,3,13,34,0,-1,-11
1570181945874582,-4,-2,-3,-4,-10,0,3,-5
1570181945874582,30,5,6,5,9,0,4,8
1570181945874582,-13,-6,-12,-8,-8,-4,1,6
1570181945896679,22,7,-10,-6,-11,-4,1,15
1570181945896679,4,5,15,9,9,3,-5,29
1570181945897478,-3,-10,-8,-2,-3,5,-12,26
1570181945897478,-21,10,1,1,5,5,-7,-4
1570181945920409,6,-27,-6,-7,-10,-1,-2,-28
1570181945920409,-5,-3,-7,2,-2,-7,6,-23
1570181945920409,-16,-1,2,0,7,-4,7,-11
1570181945920409,-21,-8,7,-1,-10,-1,5,-14
1570181945934427,26,18,-10,1,2,-5,3,-11
1570181945934427,-3,10,3,3,-2,-4,-2,-11
1570181945935368,-12,-20,-2,-7,-8,-3,3,-12
1570181945935368,30,5,-5,-1,-1,4,4,-1
1570181945956447,15,1,6,4,7,-2,1,15
1570181945956447,-14,3,7,1,-3,1,-2,0
1570181945957318,-26,-6,-6,-8,-8,-3,0,-4
1570181945957318,38,10,4,5,11,-2,-3,8
1570181945980287,-12,-3,-3,-9,-14,-2,-3,4
1570181945980287,-11,-13,-5,0,5,0,-1,3
1570181945980287,34,26,4,3,-10,2,2,1
1570181945980287,-21,-21,-4,-3,6,0,1,-5
1570181945994358,-15,-4,-1,2,5,3,1,-18
1570181945994358,19,19,0,-1,0,0,-1,4
1570181945995217,8,3,2,0,1,-2,-2,-5
1570181945995217,3,0,1,-3,-3,-1,0,2
1570181946017155,-5,1,-1,-7,-5,-2,-4,9
1570181946017155,32,5,2,7,10,4,-1,10
1570181946017155,-50,-10,-11,-7,-3,-2,-5,-22
1570181946017155,-7,-4,-3,1,-10,-1,-3,9
1570181946040089,-10,-7,-3,-3,9,-1,0,1
1570181946040089,-12,3,2,-1,-3,-1,1,0
1570181946040089,1,6,3,-1,1,-2,-2,-5
1570181946040089,-1,-11,-8,-7,4,0,0,4
1570181946054387,-41,5,5,-4,-10,1,1,-4
1570181946054387,-1,-5,-10,-7,-7,-2,1,1
1570181946055051,4,0,2,3,12,-1,-2,-7
1570181946055051,2,3,1,5,0,-1,-1,5
1570181946076990,4,-2,1,-1,-8,3,7,4
1570181946076990,29,9,-3,0,18,2,0,10
1570181946083972,5,4,-3,1,-8,-2,2,1
1570181946083972,13,2,-15,-1,-1,-6,-8,0
1570181946100250,33,24,26,2,0,-1,-2,-1
1570181946100250,-21,-23,-5,-5,-11,1,1,-19
1570181946100927,-4,-23,-14,-1,5,-2,-2,3
1570181946100927,-11,11,-3,-2,12,-1,2,-10
1570181946114066,-1,0,-12,-11,-11,-4,-4,0
1570181946114066,11,6,5,3,-1,-2,1,-15
1570181946114891,10,10,2,0,-11,0,5,6
1570181946114891,-10,-8,5,2,6,-1,1,-3
1570181946145013,-7,-3,-4,0,1,1,0,-10
1570181946145013,-19,-7,2,-3,1,0,1,-16
1570181946145812,6,-1,3,4,-4,-2,-6,-26
1570181946145812,-5,0,8,4,2,0,-4,-17
1570181946166959,17,5,-4,-3,-4,0,-2,8
1570181946166959,-17,-4,-3,-4,-8,-1,-7,6
1570181946167747,0,-12,-3,5,6,1,0,23
1570181946167747,5,10,10,-2,-6,0,0,12
1570181946174098,-5,0,-4,4,5,2,1,20
1570181946174098,-9,-6,1,-2,-8,-5,-3,-7
1570181946174730,-8,4,0,-1,1,0,-3,-17
1570181946174730,2,10,4,0,-4,1,3,-8
1570181946196898,-30,-26,-8,5,0,-2,-5,-11
1570181946196898,-14,-6,0,0,3,2,4,7
1570181946197668,28,16,-5,-4,-1,-2,2,3
1570181946197668,-12,-13,-1,-1,-3,-1,-3,-8
1570181946219750,15,10,7,2,3,1,4,-8
1570181946219750,-1,0,6,3,-1,-1,0,-4
1570181946220761,-14,-4,-10,-8,-1,0,1,6
1570181946220761,-53,-29,-2,7,-3,-1,-1,-14
1570181946233578,-18,1,1,0,-1,-1,0,13
1570181946233578,15,1,-4,-2,-4,-1,-1,-13
1570181946234574,-3,1,9,5,4,2,0,-3
1570181946234574,18,10,-3,-4,-5,-2,1,4
1570181946256518,18,-1,3,-3,-1,0,2,-13
1570181946256518,-13,-15,-11,-5,0,-5,-2,13
1570181946257508,15,12,7,3,5,12,7,12
1570181946257508,-8,3,-3,-3,-4,-3,-4,-5
1570181946279662,6,-14,0,2,3,0,4,10
1570181946279662,39,17,1,-3,-4,-3,-4,-5
1570181946280447,6,-7,3,1,-2,-5,-3,-2
1570181946280447,-33,-6,-6,-5,-8,2,1,-3
1570181946294412,25,14,2,4,0,0,8,8
1570181946294412,1,-11,-1,1,13,1,-6,-7
1570181946294412,14,14,7,6,-4,-1,-2,4
1570181946294412,16,-28,-9,-2,6,0,-5,0
1570181946316526,-56,-5,-6,-1,-1,-3,-5,-29
1570181946316526,3,-13,-9,-4,-7,-1,0,13
1570181946317361,-2,1,2,-2,-2,-4,-2,0
1570181946317361,-8,11,-1,-3,0,0,3,11
1570181946340288,11,5,-2,0,-2,1,-4,-2
1570181946340288,9,9,3,2,-2,3,1,16
1570181946340288,-23,-11,-9,-2,1,-3,-2,4
1570181946340288,19,3,0,-3,-2,-1,1,13
1570181946354286,9,-3,-4,-5,-6,-3,-3,1
1570181946354286,-1,1,5,7,1,2,3,-1
1570181946355245,-6,-8,-3,-3,-3,-3,-3,5
1570181946355245,6,10,8,0,3,1,0,4
1570181946376188,3,-2,-6,-4,-3,-1,-1,13
1570181946376188,-6,4,7,6,7,0,3,13
1570181946377185,20,3,2,-5,-6,0,-1,15
1570181946377185,-15,-7,-3,6,10,-1,-5,25
1570181946400220,11,3,-3,-2,1,-1,-2,25
1570181946400220,-16,-13,-6,-2,-5,1,4,15
1570181946400220,20,2,-4,-2,1,-1,-8,4
1570181946400220,1,14,-3,-2,-4,-1,-11,-11
1570181946422174,-9,-7,6,4,-3,-1,-5,-6
1570181946422174,27,7,-5,0,0,0,-3,32
1570181946423397,-56,-2,9,3,1,-3,1,-4
1570181946423397,39,-3,-8,-9,-11,-1,3,-2
1570181946445185,33,23,20,14,9,-1,2,3
1570181946445185,-22,-6,-4,-6,-1,-4,-4,-31
1570181946446006,5,-9,-7,-4,-4,0,5,-5
1570181946446006,-22,-6,-7,-4,-3,3,3,-12
1570181946460309,7,2,0,2,5,5,5,62
1570181946460309,18,10,-2,-6,1,-3,-1,6
1570181946460963,-13,-7,2,-1,-3,-1,5,9
1570181946460963,14,-2,-4,-7,-13,-4,4,-11
1570181946475039,-40,-7,1,6,11,-2,0,-44
1570181946475039,-3,5,1,-4,-9,-3,-2,-10
1570181946475039,24,13,3,6,6,-2,-4,-14
1570181946475039,9,-10,-3,0,1,-2,-9,-11
1570181946497045,0,4,0,-6,-8,2,-3,-4
1570181946497045,-20,-10,-10,-2,-6,-2,-4,-11
1570181946497045,-12,-1,11,3,2,2,3,0
1570181946497045,27,7,-4,-7,-7,-2,6,20
1570181946535917,-12,1,1,0,0,-2,-2,-17
1570181946535917,-6,-9,3,5,9,3,5,-7
1570181946535917,33,-3,-14,-7,-2,-1,1,3
1570181946535917,9,13,14,10,8,1,4,8
1570181946537756,-66,-26,-4,-9,-8,-1,0,-40
1570181946537756,7,8,-3,2,-1,3,6,-17
1570181946542155,8,-7,9,2,2,-3,-4,1
1570181946542155,-37,-6,-5,-5,0,0,0,-11
1570181946556705,23,-12,-12,-7,-9,-3,0,-6
1570181946556705,9,3,8,0,-5,0,-3,-13
1570181946557703,-21,-2,-13,-7,1,0,-4,-10
1570181946557703,-23,1,15,12,4,1,-1,-12
1570181946580019,30,2,-8,-6,-5,-5,-1,19
1570181946580019,-46,-10,0,-5,1,-3,-2,-23
1570181946581090,-2,2,8,9,0,0,-1,-10
1570181946581090,43,15,2,4,8,1,2,-3
1570181946593827,15,8,-5,-3,-1,-3,-3,0
1570181946593827,-7,-19,-2,-6,-13,1,2,9
1570181946601588,2,0,-7,-6,9,-2,-2,-9
1570181946601588,18,26,1,5,5,0,1,2
1570181946624843,28,-4,1,1,-4,-4,-6,-6
1570181946624843,3,17,7,-3,0,-2,-1,7
1570181946625530,-22,-30,-6,-2,-3,0,-1,-17
1570181946625530,-77,-11,6,-2,-5,-2,0,-20
1570181946647717,53,34,10,7,10,1,0,-2
1570181946647717,1,0,-1,3,-10,0,-1,-3
1570181946648461,-10,-4,-2,3,12,-1,0,7
1570181946648461,12,-8,2,-3,-1,-2,-5,1
1570181946653689,-17,0,-6,-4,0,2,1,-9
1570181946653689,12,0,1,1,-1,0,-4,-15
1570181946661638,32,11,-7,-6,-4,4,3,20
1570181946661638,-38,-34,-6,-2,-3,-4,-15,-47
1570181946676600,-5,-8,1,5,-2,-1,-2,5
1570181946676600,-6,-19,-11,-12,-12,0,0,6
1570181946677500,10,15,7,13,16,6,7,-15
1570181946677500,3,-9,0,4,7,2,10,17
1570181946700361,12,10,-4,-13,-7,-3,2,-8
1570181946700361,-16,-3,-17,1,4,-2,2,-6
1570181946700361,-4,6,33,4,-11,-2,-3,-4
1570181946700361,17,2,1,-2,-9,-5,-4,2
1570181946713336,-16,-6,-3,4,7,2,-1,-40
1570181946713336,22,19,6,4,3,0,0,9
1570181946722264,-17,-4,-16,-6,-7,-1,-2,1
1570181946722264,-18,2,5,4,0,4,3,7
1570181946737230,17,-3,-4,-9,-8,-3,-2,1
1570181946737230,21,7,-5,2,25,0,0,5
1570181946737230,-13,4,7,4,-7,-1,0,-12
1570181946737230,10,2,-4,-6,-2,2,0,9
1570181946760214,-4,-5,-4,-3,-8,0,-2,6
1570181946760214,-17,-11,-1,1,-1,-1,-5,-2
1570181946760214,-8,-6,-8,-7,-2,-3,-5,-26
1570181946760214,23,5,-7,-1,3,1,0,-43
1570181946773128,-19,-9,11,10,8,-1,-3,-25
1570181946773128,5,17,11,4,1,0,1,-2
1570181946789092,-12,-9,-9,-9,-6,0,2,24
1570181946789092,26,15,-8,-1,-5,-3,1,28
1570181946797081,-10,2,4,4,1,1,2,17
1570181946797081,-17,-21,8,-3,-10,-2,-1,19
1570181946797081,0,11,6,5,8,0,4,16
1570181946797081,4,5,-9,-10,-12,-2,5,26
1570181946820055,-19,-5,1,8,14,2,3,18
1570181946820055,-1,-9,-11,-11,-10,-5,-3,9
1570181946820055,4,-5,-9,-3,-2,-1,-5,9
1570181946820055,-7,-6,6,2,1,0,-7,-5
1570181946842002,11,8,-7,-4,2,-2,-6,5
1570181946842002,11,-1,-2,-3,-10,1,4,13
1570181946842942,25,0,-4,1,-2,-6,-5,10
1570181946842942,-46,-9,5,12,16,4,2,-15
1570181946856916,-8,-18,-3,-1,-1,0,2,-16
1570181946856916,-5,-5,-1,2,2,3,0,-11
1570181946856916,-7,8,-3,-11,-14,-2,-2,-14
1570181946856916,11,-8,15,1,1,0,0,5
1570181946880054,2,1,-2,-1,-6,0,1,10
1570181946880054,-1,2,1,0,1,0,-3,-8
1570181946880845,-7,-3,8,7,7,4,1,3
1570181946880845,49,11,-10,-6,-6,-2,0,21
1570181946902100,1,3,-3,-6,-3,-1,-3,8
1570181946902100,0,-3,0,0,5,-3,-2,2
1570181946902782,-8,-3,-5,0,6,1,3,6
1570181946902782,-10,-6,-3,-4,-3,1,1,-2
1570181946916746,-2,-2,1,1,-4,-2,3,-6
1570181946916746,20,27,3,5,6,-1,-10,-5
1570181946917747,-19,-25,-7,-4,-4,-2,-3,-12
1570181946917747,7,11,-1,-2,-2,-2,-1,1
1570181946939764,-11,-8,-4,-2,1,0,-3,1
1570181946939764,13,10,1,-4,-1,1,4,-5
1570181946940679,-12,13,4,3,1,1,-2,-23
1570181946940679,-13,-28,-10,-5,-2,-3,-6,1
1570181946962773,2,1,0,-1,-1,1,1,-5
1570181946962773,6,2,2,0,3,0,6,-2
1570181946962773,5,-3,-2,-3,-4,0,-8,-3
1570181946962773,5,17,1,1,0,1,2,-6
1570181946976636,-9,-11,-2,-2,-1,1,5,5
1570181946976636,-4,-5,1,2,0,-1,-8,-10
1570181946977592,4,-1,-7,-3,-4,-1,0,-6
1570181946977592,-14,1,5,3,-1,0,5,5
1570181946999662,12,-1,-1,1,0,0,-6,12
1570181946999662,-12,0,-2,2,0,-2,2,5
1570181947000524,11,1,-1,-1,1,0,7,23
1570181947000524,-17,-9,-6,-5,-2,-3,3,-8
1570181947022465,-4,0,1,1,0,1,3,20
1570181947022465,2,-3,0,3,3,1,-3,5
1570181947022465,-1,0,1,-1,-1,-2,-13,23
1570181947022465,0,-3,-3,-1,-2,-2,-38,55
1570181947036435,2,2,1,-1,-2,-1,-14,52
1570181947036435,-7,-1,-4,-4,-7,0,5,106
1570181947037472,25,6,1,3,5,2,20,45
1570181947037472,8,1,-4,-2,3,1,23,17
1570181947059643,-1,-3,3,2,-2,-4,-12,-12
1570181947059643,-8,-3,2,2,1,1,-6,97
1570181947060360,7,3,2,1,-2,-1,-16,127
1570181947060360,-17,-8,-7,-3,-1,-1,-8,127
1570181947082534,7,3,3,5,3,7,-6,-18
1570181947082534,8,8,-6,-2,-1,5,-15,-119
1570181947083300,-6,2,6,-1,-2,0,-4,-128
1570181947083300,3,-7,-2,2,2,2,3,-128
1570181947096371,-11,-1,-5,-3,-4,-6,16,-97
1570181947096371,1,-7,0,0,1,-5,14,-115
1570181947097268,-9,-2,-5,-3,-3,-2,-2,-90
1570181947097268,7,11,1,-1,-4,-4,1,-89
1570181947120239,-3,-4,1,3,2,-2,7,-46
1570181947120239,0,3,3,0,-1,-3,11,-53
1570181947120239,-10,-6,0,-1,-2,-2,-1,-48
1570181947120239,1,-8,1,-2,0,-1,18,-37
1570181947142239,-10,7,-4,-6,-2,2,11,-10
1570181947142239,14,-6,1,2,-1,-5,4,-21
1570181947143140,-42,-20,-3,-2,-2,-1,12,-14
1570181947143140,58,26,3,3,0,4,5,-14
1570181947157147,28,5,-7,-5,-3,-2,-3,6
1570181947157147,-72,-17,0,-2,-1,-3,-4,-8
1570181947157147,66,3,-1,1,-3,-4,-17,-5
1570181947157147,-2,18,5,-1,0,2,1,-6
1570181947180051,10,-16,-13,-10,-4,-2,-4,1
1570181947180051,28,12,4,1,-1,4,14,-4
1570181947180051,-14,1,-3,-2,-4,0,-2,-3
1570181947180051,-20,-6,4,5,1,-2,-17,-5
1570181947201982,6,0,0,0,-3,-1,-7,4
1570181947201982,-20,-9,-2,0,0,0,-9,-3
1570181947202994,3,18,-9,-15,-5,0,14,0
1570181947202994,9,-16,7,1,-3,-1,0,-3
1570181947216960,-12,3,-2,4,2,-2,9,3
1570181947216960,-1,-14,3,0,1,-2,-4,-1
1570181947216960,-2,1,1,9,3,-2,-1,-3
1570181947216960,7,12,0,-3,-1,-2,-6,-2
1570181947239887,-38,-1,-8,-11,-3,-4,-4,-5
1570181947239887,19,-3,-10,-5,-3,-6,-5,-9
1570181947240876,-9,3,0,-3,2,1,3,-40
1570181947240876,-9,-20,-12,-2,-5,-6,-2,-1
1570181947262019,31,4,7,4,5,9,7,-37
1570181947262019,2,-6,-6,-7,-5,-2,-5,-47
1570181947262820,-1,1,7,4,4,11,-17,-29
1570181947262820,14,6,-9,-10,-11,-1,8,-30
1570181947276981,-19,3,13,18,12,-5,-7,-15
1570181947276981,20,17,9,7,-1,-1,2,-4
1570181947277781,-50,-20,-6,-3,-4,-2,6,-6
1570181947277781,4,-2,-2,1,5,6,2,0
1570181947307737,2,3,-4,-8,-3,-1,-5,7
1570181947307737,-1,12,-3,-7,-1,3,-6,11
1570181947307737,-2,-8,14,15,7,1,4,12
1570181947307737,-15,-3,-7,-5,0,-3,-4,-9
1570181947322658,-2,15,8,1,-2,-3,-6,-7
1570181947322658,-20,-12,-7,0,1,9,5,5
1570181947322658,54,0,-7,-6,-5,-12,2,14
1570181947322658,-32,-12,-4,-6,1,-4,-2,-11
1570181947336983,18,12,4,-2,0,0,6,7
1570181947336983,-8,2,4,7,2,0,-5,-13
1570181947337621,-12,-8,-7,-8,-1,19,3,0
1570181947337621,-2,6,5,7,6,-3,-9,-2
1570181947360073,-29,-14,2,2,-1,-10,2,10
1570181947360073,9,3,-4,-3,-4,-9,-4,0
1570181947360565,-6,-3,-1,2,9,11,3,35
1570181947360565,30,14,-3,-3,3,-9,-7,1
1570181947382675,-80,-38,-6,-2,1,13,0,16
1570181947382675,5,4,-1,-3,-4,-6,-5,3
1570181947383496,10,1,-1,-2,-5,-6,-11,9
1570181947383496,4,1,2,3,3,1,4,3
1570181947396473,32,9,1,1,-2,-4,-1,-4
1570181947396473,-8,-5,2,0,3,5,0,39
1570181947397462,-17,4,0,-3,-3,-11,-7,-37
1570181947397462,4,-7,0,-1,-5,3,-2,14
1570181947419478,22,5,1,-2,-2,2,1,21
1570181947419478,-5,-1,-1,1,1,2,6,-13
1570181947420400,9,8,2,1,0,-5,-7,0
1570181947420400,-33,-13,-2,-1,-2,-6,-8,-12
1570181947442565,8,2,-2,4,2,3,33,1
1570181947442565,9,-2,-6,-12,-4,-26,-24,8
1570181947443347,-4,-4,3,1,-2,1,15,16
1570181947443347,-21,-15,-2,0,-1,0,3,-21
1570181947465305,4,18,2,1,3,12,-8,1
1570181947465305,24,14,-5,-1,-1,-4,-1,-15
1570181947465305,1,-1,-5,-4,-4,-6,3,6
1570181947465305,42,20,4,3,0,-3,-1,11
1570181947479436,-62,-45,-8,-4,-6,-15,8,-56
1570181947479436,7,-1,7,6,4,3,2,47
1570181947480237,-1,1,-3,-2,-4,0,3,5
1570181947480237,7,5,3,-1,-10,1,8,27
1570181947502317,20,6,3,3,13,9,-5,47
1570181947502317,-27,-9,-2,-2,3,5,16,29
1570181947503188,7,15,2,0,-10,-1,-5,56
1570181947503188,12,-3,-10,-8,4,-6,-8,47
1570181947516300,24,12,3,0,0,-2,-5,10
1570181947516300,-9,-11,2,4,-11,25,12,-22
1570181947524159,-13,-9,-6,-9,23,-32,-13,-39
1570181947524159,-20,-7,2,0,-10,-14,-7,-49
1570181947540077,4,7,-1,-4,-6,-1,-17,-35
1570181947540077,11,1,3,5,19,26,5,-13
1570181947541074,-9,-7,-2,1,-12,4,6,-41
1570181947541074,-7,1,0,0,-1,9,5,-10
1570181947562194,18,0,-3,-2,-5,-18,-6,-12
1570181947562194,-3,5,-2,-2,-8,-8,-5,-9
1570181947563020,-2,-6,-3,-1,3,6,-2,-4
1570181947563020,-42,-21,-2,3,7,6,15,-8
1570181947576195,33,20,3,0,-3,6,5,29
1570181947576195,37,30,-4,-8,-7,-7,-4,-1
1570181947583963,-9,-7,-1,0,3,5,1,3
1570181947583963,4,1,-2,-2,-2,4,1,13
1570181947599042,-37,-19,-4,-2,-7,4,-15,-25
1570181947599042,-7,-9,2,1,14,7,9,2
1570181947599925,11,9,2,3,-4,-8,6,16
1570181947599925,-4,-2,-3,-1,7,17,-6,3
1570181947622736,12,4,0,2,4,0,-2,22
1570181947622736,-12,-9,-1,0,0,-10,-10,12
1570181947623854,0,-5,0,1,-4,-7,-17,16
1570181947623854,1,-6,1,4,0,15,16,21
1570181947635960,20,19,-3,-5,-6,-7,-10,2
1570181947635960,-10,-2,-1,1,-3,-8,4,-16
1570181947644813,-7,-6,-4,0,4,20,6,-11
1570181947644813,-6,-2,1,1,0,-7,13,6
1570181947658759,2,0,-1,0,0,2,-5,-6
1570181947658759,-15,-7,1,-1,-8,-5,-1,-7
1570181947667737,-9,-3,-7,-4,-2,5,6,-19
1570181947667737,3,1,-1,2,3,-36,-37,-14
1570181947682750,-8,-4,6,3,6,21,37,15
1570181947682750,-8,-6,-1,-3,-15,-9,-32,-22
1570181947683696,11,2,-1,-2,-7,-6,14,17
1570181947683696,-2,2,0,1,1,4,1,-13
1570181947695873,2,-3,-2,-1,4,-3,-16,5
1570181947695873,-2,-4,-1,3,12,6,15,5
1570181947704637,-10,2,4,2,3,14,14,-18
1570181947704637,3,1,-4,-6,-13,-4,-13,3
1570181947718605,-2,-5,-2,-7,-12,-12,-12,-5
1570181947718605,2,-1,-2,0,-1,2,-11,7
1570181947727585,3,-1,0,1,-1,-4,-1,12
1570181947727585,4,5,3,2,7,11,15,12
1570181947742746,2,-2,-3,-3,-2,-1,-1,9
1570181947742746,-2,-2,0,0,-1,-5,4,-2
1570181947744574,4,0,-1,1,2,-1,1,5
1570181947744574,2,2,-2,-3,-2,0,-4,-2
1570181947764867,-5,-2,-3,-1,-2,-5,-2,-3
1570181947764867,0,-3,-1,-3,-1,0,5,3
1570181947766475,2,0,-2,0,-2,-4,-8,0
1570181947766475,4,4,1,2,1,6,0,3
1570181947778728,-2,-1,2,-1,-1,-3,3,-1
1570181947778728,2,0,1,0,1,0,4,0
1570181947787414,-3,-2,0,-2,-4,-2,-7,-6
1570181947787414,-4,-2,-3,-2,-2,-2,-2,-27
1570181947802509,3,-2,-1,0,0,2,3,5
1570181947802509,-1,-3,-1,-2,-2,0,-3,-7
1570181947804317,0,-1,0,-2,-3,-4,-3,-2
1570181947804317,-1,-1,-1,-1,0,0,4,2
1570181947825420,-3,0,-2,-1,-1,-1,-1,-6
1570181947825420,-3,0,-1,-1,-1,-2,-2,-9
1570181947826326,5,1,0,1,0,0,-1,9
1570181947826326,-5,-2,-2,-3,-1,3,11,-23
1570181947840273,4,-1,-1,-1,-2,0,-3,17
1570181947840273,-1,-1,-1,0,-1,1,-1,-10
1570181947841541,-1,-2,-2,-1,0,1,-2,5
1570181947841541,1,1,2,-1,-1,3,2,1
1570181947862410,-2,-3,-1,0,1,-3,-18,3
1570181947862410,2,-1,-3,-2,0,-2,4,2
1570181947864210,2,1,1,0,-1,-3,-2,-6
1570181947864210,2,-1,0,-1,0,-2,0,13
1570181947885156,-2,0,-1,-1,-2,-3,3,-9
1570181947885156,2,0,1,0,0,-3,-2,8
1570181947886448,-2,0,0,-3,-2,-2,-6,-10
1570181947886448,-1,-2,-3,-1,-2,-3,-1,2
1570181947898220,1,1,1,0,-1,-1,3,-4
1570181947898220,-1,-3,-2,-2,-1,-1,1,7
1570181947907137,-3,-2,-1,-1,-1,-1,2,-13
1570181947907137,2,-2,-1,-2,-1,-1,-3,8
1570181947922090,-5,-2,-1,0,-2,0,2,-5
1570181947922090,4,0,-3,-1,0,0,0,9
1570181947924057,-1,1,1,0,0,-2,-2,2
1570181947924057,1,0,1,0,-2,1,-1,6
1570181947945141,-4,-2,-2,0,1,-1,2,0
1570181947945141,-3,-1,1,0,-2,-3,1,-1
1570181947946491,0,0,-1,0,-2,-3,-3,14
1570181947946491,-2,-1,-1,-1,-1,-1,-4,-5
1570181947957962,3,-2,-2,-2,-1,2,2,5
1570181947957962,2,-1,0,-1,-2,0,-3,4
1570181947966976,-4,-3,-1,-1,0,2,17,-7
1570181947966976,9,1,0,0,-1,1,2,29
1570181947981986,-2,0,-2,-1,-1,-5,1,-3
1570181947981986,2,0,-2,-2,0,4,2,4
1570181947983888,-1,-1,2,1,-1,-2,-8,0
1570181947983888,-2,0,-1,0,-1,-3,-1,-6
1570181948004840,0,-3,-2,0,-1,1,2,-13
1570181948004840,-1,0,-1,1,-2,1,4,0
1570181948005832,0,1,1,0,0,1,-5,-8
1570181948005832,-5,-1,0,0,0,2,1,-8
1570181948018837,0,-1,0,0,-1,-2,-3,-1
1570181948018837,-3,-1,-2,-1,1,-2,0,-8
1570181948027772,2,-2,0,-1,2,2,0,5
1570181948027772,-3,-1,0,0,-1,-1,-3,0
1570181948042738,-5,-1,0,1,1,1,1,-5
1570181948042738,7,0,0,0,2,14,4,15
1570181948043732,-1,-1,-1,-2,-3,-13,-6,12
1570181948043732,5,0,-1,0,3,7,3,7
1570181948064857,-2,0,0,-1,1,-2,0,6
1570181948064857,-7,-2,-1,-1,0,-4,-5,-8
1570181948066672,-2,0,-1,0,-1,2,-1,3
1570181948066672,-1,-1,-2,-1,-1,-2,-2,-4
1570181948078696,1,1,0,0,-1,0,-2,-2
1570181948078696,-3,-2,0,-1,0,0,0,-3
1570181948087610,2,-1,0,-1,-1,0,1,1
1570181948087610,-2,-3,0,1,0,-10,-7,-3
1570181948101573,0,0,0,0,2,14,8,2
1570181948101573,1,-1,-1,0,-3,-5,-4,-4
1570181948109593,2,-2,-2,-2,0,1,2,4
1570181948109593,0,0,1,0,0,-1,0,0
1570181948124798,-8,-2,0,-1,0,-4,-2,-4
1570181948124798,8,0,-1,-1,-3,-4,1,6
1570181948126512,4,2,0,-1,0,2,1,4
1570181948126512,-2,-3,-2,-1,-2,1,-1,3
1570181948138511,1,0,-1,0,-2,13,2,0
1570181948138511,0,0,1,0,-1,-7,-3,-3
1570181948147462,12,9,-1,-2,-2,-1,-5,1
1570181948147462,-4,-1,1,-2,-1,-1,0,-4
1570181948162433,-1,-1,0,-1,-1,4,-1,1
1570181948162433,-6,-5,-1,-1,-1,-4,-2,3
1570181948163837,-29,-15,-2,1,1,0,10,-16
1570181948163837,29,23,0,-3,-2,-5,-2,0
1570181948184571,-8,-6,-2,-2,-1,9,8,-7
1570181948184571,2,4,0,0,0,-9,-7,-5
1570181948186349,-13,-12,-2,-1,-3,0,4,-6
1570181948186349,-6,-3,2,2,-1,4,3,0
1570181948199580,28,16,3,1,-2,-10,-1,5
1570181948199580,-22,-10,-3,-1,1,1,2,-7
1570181948206296,3,2,3,2,2,0,-4,5
1570181948206296,0,0,0,-1,-1,1,-3,0
1570181948222256,-2,-5,-2,-1,-1,-13,-12,-5
1570181948222256,5,10,1,0,-1,1,1,-3
1570181948224246,55,36,-2,-5,-4,2,-1,3
1570181948224246,-26,-14,0,2,0,-3,4,1
1570181948245255,-41,-39,-13,-4,-1,3,-1,-10
1570181948245255,1,0,-3,-4,-6,-13,-6,2
1570181948246193,2,-18,-2,-1,-1,1,1,1
1570181948246193,37,25,5,2,3,12,1,-2
1570181948259374,8,4,-3,-2,-5,-20,-6,8
1570181948259374,31,7,3,0,-2,-4,-3,10
1570181948266326,-95,-42,-8,-2,0,-3,-9,-15
1570181948266326,27,15,0,-3,-4,-4,1,3
1570181948282316,14,1,6,5,5,1,8,12
1570181948282316,-69,-29,-5,-1,4,16,4,-11
1570181948284103,61,4,-7,-3,-6,-12,-6,-1
1570181948284103,-40,-36,-6,-1,2,7,1,-6
1570181948305071,-21,2,3,1,1,-5,1,-5
1570181948305071,52,34,2,-3,0,6,1,5
1570181948306084,4,12,5,1,6,49,20,4
1570181948306084,-26,-10,-4,-2,-1,-25,-16,-8
1570181948318007,27,9,2,1,-3,-9,-7,6
1570181948318007,1,3,3,1,2,-2,-4,-5
1570181948327255,-6,5,1,-1,-1,-8,-5,0
1570181948327255,14,5,-2,-1,-3,2,1,7
1570181948341932,-6,-1,2,1,1,2,-1,5
1570181948341932,-9,-6,-5,-3,-5,-13,-2,-12
1570181948343926,-6,-6,-1,1,4,1,-2,10
1570181948343926,15,9,1,-2,-2,5,12,-19
1570181948364871,3,0,-3,-1,-1,-1,-7,11
1570181948364871,-14,-9,0,1,0,9,3,3
1570181948366434,14,7,0,1,1,-6,-2,0
1570181948366434,-34,-17,-5,-1,-2,-1,2,3
1570181948377835,5,9,-2,-3,-2,5,0,-6
1570181948377835,15,6,2,-1,1,-1,0,1
1570181948387810,-7,-1,-1,-2,-5,-14,-4,1
1570181948387810,-4,-3,2,0,2,-5,-5,0
1570181948402863,10,-2,-3,-3,-3,-7,5,12
1570181948402863,0,2,2,0,0,8,1,1
1570181948403771,-1,2,2,2,0,-8,-1,0
1570181948403771,-4,-4,-2,-1,0,8,2,1
1570181948424991,10,3,-2,-2,-3,-3,-1,-4
1570181948424991,-6,-6,0,3,-1,2,-1,-9
1570181948426714,-1,1,0,-1,-2,-4,-1,4
1570181948426714,4,3,0,-1,-1,-3,-2,-9
1570181948438825,-1,-1,0,-1,1,5,-1,-1
1570181948438825,-5,-5,-2,-3,-1,-2,0,-4
1570181948447771,-3,3,-2,0,-1,2,0,-5
1570181948447771,-8,-3,-1,0,-2,1,-4,-7
1570181948462619,-3,0,2,0,1,-2,-2,-7
1570181948462619,0,0,-2,1,-2,0,3,1
1570181948463923,6,-2,-1,0,-1,1,-3,11
1570181948463923,9,-2,-2,-1,2,4,0,7
1570181948485549,-4,0,2,1,0,7,5,-2
1570181948485549,1,-1,1,0,1,-3,0,1
1570181948486546,-2,-1,2,0,0,-2,-2,-6
1570181948486546,-1,0,-1,0,-2,-5,-3,7
1570181948498643,-1,1,-2,-4,0,2,0,-7
1570181948498643,-6,-2,0,1,2,1,-4,-1
1570181948507504,-5,0,2,0,-1,-4,-2,-2
1570181948507504,0,1,-1,0,0,6,-2,1
1570181948522458,-5,-1,-1,-1,-3,0,0,-3
1570181948522458,0,-1,-1,0,-2,-4,2,1
1570181948523526,-1,0,-2,-1,0,-3,-1,-1
1570181948523526,-1,-1,-1,0,0,-3,0,-2
1570181948544565,-1,-2,-3,-2,-1,0,-12,-8
1570181948544565,2,-2,0,0,0,0,0,3
1570181948546495,0,0,0,0,-1,2,-1,-1
1570181948546495,0,0,1,-3,-3,-1,1,4
1570181948558539,-2,0,0,1,0,-4,1,7
1570181948558539,0,-1,-3,-2,-3,1,-1,-2
1570181948567340,-6,0,1,1,-1,-4,-1,-7
1570181948567340,2,0,0,-1,0,0,1,2
1570181948582326,-2,-3,0,-2,1,-3,3,1
1570181948582326,0,0,-1,-2,0,0,-10,-1
1570181948583287,0,0,0,-2,-3,-3,-3,-2
1570181948583287,1,0,-2,-1,0,2,-2,3
1570181948604464,-11,0,-2,-1,1,2,2,-9
1570181948604464,5,-1,0,-1,0,-1,4,7
1570181948606225,-1,0,-2,-1,0,0,-3,-1
1570181948606225,-2,-2,1,-1,-2,0,-3,-1
1570181948618381,2,-1,-1,-1,-1,-1,0,2
1570181948618381,-2,-2,-2,-1,-1,-1,5,-11
1570181948627180,-1,0,-1,0,0,-3,-7,-5
1570181948627180,-2,-1,-1,0,-5,-16,-4,-7
1570181948642167,0,0,-1,0,0,4,3,1
1570181948642167,-3,-2,-1,-1,-1,-3,-2,-3
1570181948644290,6,0,-1,-2,0,3,4,10
1570181948644290,-4,0,0,-1,0,1,-1,-8
1570181948665080,-2,-2,0,0,-2,-2,-4,-4
1570181948665080,-1,-1,-2,-1,-2,-1,-1,3
1570181948666067,5,1,0,2,-1,1,2,4
1570181948666067,-1,0,-1,0,1,3,0,4
1570181948678041,1,0,-1,-1,-1,-3,6,2
1570181948678041,-3,0,0,0,0,1,-1,-7
1570181948687009,-3,-1,0,0,0,-1,0,0
1570181948687009,1,-1,-2,0,-1,-1,1,2
1570181948702241,0,0,-1,0,0,0,-2,0
1570181948702241,2,0,-3,0,0,0,0,9
1570181948703963,-4,-4,0,-2,-1,0,2,-5
1570181948703963,0,0,1,1,0,-1,-1,-1
1570181948724945,-4,-1,1,-1,-1,-1,-3,-6
1570181948724945,3,-2,-1,-3,-1,0,-3,0
1570181948725946,0,-1,0,-1,2,-1,-3,-2
1570181948725946,-2,0,-2,0,0,1,1,1
1570181948746945,-1,0,0,1,0,0,0,-2
1570181948746945,-3,-2,-1,0,-1,-3,-1,0
1570181948748844,2,0,-2,0,0,0,2,-2
1570181948748844,-1,-1,0,-2,-1,-1,-5,-6
1570181948762167,-1,-1,-1,-1,0,4,-1,-2
1570181948762167,-1,-1,1,0,-1,4,-6,0
1570181948763804,-3,-3,-3,-2,-3,-14,9,3
1570181948763804,-1,-1,1,1,2,-1,1,3
1570181948784755,1,-1,0,-1,-2,-4,-2,-3
1570181948784755,0,-1,1,-1,2,5,1,0
1570181948786743,-5,-1,0,1,1,9,0,-5
1570181948786743,1,1,-1,-2,-3,-7,2,-1
1570181948806735,-1,-3,-2,-4,-4,6,4,2
1570181948806735,-6,-4,-1,-1,-4,-18,-6,-1
1570181948808685,-3,1,1,0,2,10,-2,-7
1570181948808685,0,-2,-2,0,0,3,0,1
1570181948821650,1,-2,-1,0,-1,-12,-6,3
1570181948821650,3,0,-3,-1,-1,-1,3,5
1570181948835613,-2,-1,-2,0,-1,-2,-3,-2
1570181948835613,1,-1,0,-1,1,0,-2,3
1570181948845086,1,-2,0,-1,-2,1,-2,-3
1570181948845086,0,1,0,1,-2,-7,-2,0
1570181948846584,-1,-1,0,-2,0,-2,2,1
1570181948846584,0,0,-1,-1,0,4,0,-3
1570181948867527,-3,0,-2,1,0,0,-2,-6
1570181948867527,5,1,1,-1,4,12,9,14
1570181948868524,-1,0,0,-1,-4,-7,-5,-2
1570181948868524,-1,0,-1,-2,-2,-3,0,5
1570181948882488,6,-1,-3,-1,-2,-8,-6,-2
1570181948882488,3,1,-1,1,4,18,8,-1
1570181948883485,-1,-1,0,-2,-2,1,1,3
1570181948883485,0,-2,0,-3,0,4,1,4
1570181948904432,-3,0,-1,-1,0,-2,-2,0
1570181948904432,1,0,0,-2,0,4,-3,-1
1570181948906450,1,-1,1,-1,-4,-2,-1,-1
1570181948906450,2,-1,-2,0,0,-6,-1,-1
1570181948927365,-4,-1,-2,-3,1,4,1,2
1570181948927365,-4,-2,0,0,0,4,-1,-6
1570181948928591,0,-1,0,1,2,1,3,5
1570181948928591,-2,-2,-1,-1,-1,1,0,-12
1570181948941375,2,-1,1,1,0,1,1,1
1570181948941375,0,0,-2,-1,-2,-5,-2,0
1570181948948310,0,0,0,1,0,-2,-4,-5
1570181948948310,-1,0,-1,0,-1,0,1,4
1570181948964265,1,1,-1,0,1,3,-1,1
1570181948964265,-3,-2,0,0,-4,-5,-2,-5
1570181948966260,-1,0,-3,-1,1,1,-2,2
1570181948966260,-1,-1,0,-1,0,0,-2,-4
1570181948987430,3,0,-1,-1,0,2,1,4
1570181948987430,1,0,-1,-1,-1,-7,-2,4
1570181948989230,2,1,-2,1,0,2,2,10
1570181948989230,-2,0,-1,0,0,1,-1,0
1570181949002086,-1,1,1,0,-3,-3,2,4
1570181949002086,-1,-1,0,-1,-1,-6,-2,-7
1570181949008776,-3,-4,-1,-2,-1,1,-2,2
1570181949008776,3,0,-1,1,0,3,1,-1
1570181949024878,-2,-1,-1,1,-1,-2,1,5
1570181949024878,-4,-1,-1,-1,-1,-4,-2,-8
1570181949026397,1,0,-1,-2,-1,1,-1,1
1570181949026397,-2,-1,-2,0,-2,1,-2,-1
1570181949046775,-3,0,-1,-2,-2,0,-2,-4
1570181949046775,-1,0,-1,0,-1,1,0,-1
1570181949048770,-2,-1,-1,-1,0,0,-1,-5
1570181949048770,-3,-2,2,2,2,-5,-5,-2
1570181949061734,4,2,0,0,4,10,10,5
1570181949061734,1,0,-2,-2,-1,-8,0,6
1570181949068713,-1,-1,-1,-1,1,1,-3,-3
1570181949068713,1,1,0,0,-1,0,1,0
1570181949084313,-3,-1,-1,-2,-1,1,-1,8
1570181949084313,1,-1,-1,1,0,0,-3,0
1570181949086308,1,0,1,2,-1,2,0,-3
1570181949086308,-9,-2,-3,-2,-2,2,-1,-5
1570181949107344,-2,-4,-2,-2,-2,-10,-4,-4
1570181949107344,-1,-1,-1,0,0,-2,-1,-4
1570181949108338,-2,0,-2,0,-3,-4,-1,1
1570181949108338,2,-1,-2,-4,-1,1,2,3
1570181949121364,-4,0,-2,-2,-3,-2,-2,-5
1570181949121364,0,-2,2,-1,0,3,1,3
1570181949128064,-1,-1,-1,0,1,-2,-2,-16
1570181949128064,0,-2,0,-1,-2,-2,-3,7
1570181949145192,1,0,-1,0,0,2,5,-1
1570181949145192,-2,-1,-1,-2,-3,-2,-1,1
1570181949146308,0,-1,-1,-1,-2,0,-1,0
1570181949146308,-1,0,-2,-1,0,10,1,-1
1570181949167144,2,-1,1,0,2,-3,-3,11
1570181949167144,0,0,-1,1,-1,1,1,5
1570181949169136,-3,0,0,0,-1,-3,0,-3
1570181949169136,1,0,0,-1,0,-4,1,8
1570181949181115,-3,-1,1,1,-2,2,-3,-9
1570181949181115,-1,-1,-3,-2,-1,-1,2,-2
1570181949188854,0,0,2,0,2,1,0,2
1570181949188854,0,-1,0,0,-1,-5,-1,-4
1570181949205128,-2,-1,0,0,-2,0,-3,-1
1570181949205128,-1,-1,-1,-1,-2,-8,-6,-12
1570181949206126,-1,0,-2,1,1,4,3,1
1570181949206126,0,-1,0,-2,0,-2,-2,-1
1570181949229975,5,-2,-1,-1,0,-1,-1,3
1570181949229975,-2,-1,-2,-1,1,1,-1,1
1570181949230190,-1,-3,-2,-2,0,5,-3,-12
1570181949230190,0,-1,-1,2,-3,-13,3,2
1570181949241315,4,-1,0,1,0,7,4,2
1570181949241315,-3,1,1,0,0,-1,-3,-3
1570181949250291,4,0,-2,-3,-3,1,-1,7
1570181949250291,-1,-2,0,-1,-1,0,-4,0
1570181949264252,-4,-1,-2,-1,-2,-2,-1,-8
1570181949264252,2,-1,1,-1,0,4,5,11
1570181949266252,-5,-1,-1,-1,0,-7,-3,-7
1570181949266252,3,0,-1,0,0,8,4,1
1570181949287192,-2,-1,0,0,0,-3,-1,-1
1570181949287192,-1,-1,0,0,0,2,-1,-3
1570181949289187,2,-1,-1,0,-1,-3,0,4
1570181949289187,-1,-1,0,-2,-1,-2,-1,-2
1570181949301157,-1,1,-2,-1,0,0,-3,-3
1570181949301157,-6,0,0,-1,0,0,-2,-7
1570181949310163,3,0,1,0,1,10,1,8
1570181949310163,-2,1,0,0,0,-8,-1,-6
1570181949324136,0,-1,-1,-1,-1,-2,-2,3
1570181949324136,2,-1,0,0,0,2,4,14
1570181949326087,2,0,-1,1,-2,-2,-2,8
1570181949326087,-2,0,-1,-2,1,4,-4,-5
1570181949347030,-3,-1,-1,-3,1,-1,3,-3
1570181949347030,-6,-2,-1,-2,-2,-3,10,-13
1570181949349180,-3,-2,0,-1,-3,1,-6,-3
1570181949349180,2,0,-1,0,-4,-6,0,9
1570181949361029,-1,1,0,0,3,3,-1,-5
1570181949361029,2,-2,-1,-1,0,2,0,-2
1570181949369969,-4,0,-1,-2,-2,-3,1,-4
1570181949369969,-1,-1,-1,-2,-1,-3,0,-2
1570181949384932,-2,-1,0,1,-1,-1,-3,-6
1570181949384932,0,1,-1,1,0,0,-5,2
1570181949386925,-4,0,0,-2,-2,-4,-1,-4
1570181949386925,-1,-1,-1,0,-1,3,-1,-2
1570181949407510,4,0,-2,1,-2,-3,-2,2
1570181949407510,2,1,0,2,0,14,2,20
1570181949408871,2,-2,-3,-2,-3,-25,-5,-1
1570181949408871,-2,-2,0,0,0,1,1,-10
1570181949420834,-1,-1,0,-1,-1,0,1,-3
1570181949420834,-9,-1,-1,-1,-1,-4,-2,-12
1570181949429809,0,-2,0,-1,1,8,4,10
1570181949429809,1,1,0,1,-1,5,1,6
1570181949444769,-4,-1,0,-1,2,-3,-6,0
1570181949444769,1,0,-2,-1,-5,-9,-7,-3
1570181949445768,-1,0,-1,0,-1,2,4,-3
1570181949445768,1,0,-3,0,0,-1,-1,2
1570181949467045,-5,-3,0,-1,-1,2,-2,-16
1570181949467045,-4,1,1,1,-1,0,2,-3
1570181949468707,0,0,-2,0,1,2,2,-10
1570181949468707,-5,-2,-2,-4,0,0,2,-2
1570181949480695,10,3,2,0,-2,-3,-12,6
1570181949480695,1,-1,-2,-2,0,-2,-4,3
1570181949489738,-3,-2,0,0,1,-2,-3,-4
1570181949489738,-2,0,2,0,0,2,-2,-2
1570181949504612,-5,-1,-1,-2,-1,-1,4,-4
1570181949504612,-4,-3,-2,-1,-1,-3,-4,-8
1570181949506608,2,2,1,-1,0,0,-3,5
1570181949506608,4,1,-1,-1,1,1,5,17
1570181949526785,-12,-2,-1,-2,-1,6,0,-6
1570181949526785,3,1,3,2,2,-7,-4,6
1570181949528781,-2,-3,0,-1,0,0,-2,-4
1570181949528781,1,-1,0,1,-2,-4,-4,-4
1570181949540749,1,-1,-2,0,-1,-2,0,3
1570181949540749,-3,-2,-2,-2,0,2,1,-3
1570181949549726,0,1,0,0,-1,0,-1,1
1570181949549726,-2,0,-1,-2,-3,1,2,-2
1570181949564686,0,0,0,1,-1,0,2,6
1570181949564686,3,2,-1,0,0,-1,0,0
1570181949566687,2,0,0,1,0,1,-1,4
1570181949566687,-2,-2,-1,-2,-1,-2,-1,-4
1570181949587624,2,-2,0,0,0,-2,-10,0
1570181949587624,2,-2,1,-2,-1,-1,-2,-2
1570181949589621,-1,2,2,1,1,11,4,17
1570181949589621,1,-1,0,1,2,-1,3,-4
1570181949600594,-2,-2,-3,-2,-3,-3,1,2
1570181949600594,0,-2,-1,-1,-1,0,0,-2
1570181949610564,-1,0,-2,0,-1,-1,-2,0
1570181949610564,-3,-1,0,-1,-1,0,-2,-3
1570181949624530,1,1,-2,-1,1,-1,3,6
1570181949624530,1,-2,-2,-2,-2,-2,-5,-7
1570181949626774,-2,-2,-1,-2,-3,-5,4,-3
1570181949626774,-4,1,0,0,-1,-2,-6,-4
1570181949647604,-2,0,-2,0,-1,-4,3,-3
1570181949647604,-4,0,0,1,1,1,-1,-5
1570181949648462,-1,-3,0,-2,1,-1,-3,-7
1570181949648462,1,-1,-1,-2,-2,0,-2,3
1570181949669406,4,0,-2,-2,-1,1,2,8
1570181949669406,-4,0,-1,-1,-1,0,2,-1
1570181949671402,1,1,-1,-2,0,-3,-1,1
1570181949671402,-1,1,-1,-1,-1,-1,-1,1
1570181949684372,-3,-1,1,0,-2,-1,0,-3
1570181949684372,2,0,0,-1,0,0,0,2
1570181949686366,-1,-3,0,0,-2,-2,0,0
1570181949686366,0,-2,-2,-3,1,0,-2,-1
1570181949707560,-4,-1,0,1,-2,-2,1,-3
1570181949707560,0,-1,-3,-2,-1,0,2,1
1570181949709300,-3,-2,0,0,-2,-1,-4,-13
1570181949709300,-3,-1,0,0,-2,1,2,-3
1570181949729245,3,-1,-1,-2,0,-1,2,-1
1570181949729245,-2,-2,-2,-2,-2,3,10,-3
1570181949731353,0,0,-2,0,0,-1,-4,-1
1570181949731353,1,0,-2,-1,-1,0,-2,1
1570181949745205,-3,-1,0,0,-1,-2,-2,-7
1570181949745205,-1,-2,0,1,-2,-1,-2,1
1570181949746199,0,-1,-2,-3,0,-1,2,2
1570181949746199,0,0,1,0,-1,0,-3,-2
1570181949767145,-2,-1,-1,-2,0,0,0,0
1570181949767145,-1,-1,0,-1,-2,0,-2,2
1570181949769139,1,0,0,-1,-1,0,-1,2
1570181949769139,0,-1,-2,-1,-1,-1,-3,1
1570181949790083,-5,-2,-2,-1,-1,1,0,-7
1570181949790083,2,0,-1,-2,0,0,-2,1
1570181949791080,-7,-1,-1,-1,0,10,1,-22
1570181949791080,-1,-1,-1,-3,-2,-8,-1,2
1570181949805042,0,-1,-2,-2,-1,0,-1,1
1570181949805042,-1,0,-1,1,0,-7,-3,0
1570181949806042,-4,0,0,0,-1,2,1,-3
1570181949806042,-1,1,-1,0,0,3,0,1
1570181949827023,1,1,1,-1,1,1,-1,0
1570181949827023,-1,0,1,1,4,6,-3,0
1570181949828978,2,0,-1,2,0,-4,0,9
1570181949828978,-1,-2,-1,0,1,0,0,-2
1570181949850087,2,0,-1,-1,-3,-4,2,3
1570181949850087,-3,-1,0,-2,-1,1,-1,-6
1570181949850919,0,0,-2,1,-2,-3,0,4
1570181949850919,-1,-2,-1,-1,-1,1,-1,1
1570181949863884,-2,-1,-1,-1,-1,1,-2,-3
1570181949863884,0,1,0,-1,-2,-3,-3,-2
1570181949870865,0,-1,-2,-3,-1,-4,-1,1
1570181949870865,3,0,-1,0,0,12,3,-2
1570181949886927,4,0,0,1,1,-5,-1,10
1570181949886927,2,1,2,1,-3,-1,-2,3
1570181949888820,1,1,-1,-1,-1,-1,1,2
1570181949888820,0,-1,-1,0,1,0,1,-3
1570181949908764,-3,-2,-1,-2,-1,1,1,-2
1570181949908764,0,-2,-2,-1,0,-1,-1,-2
1570181949917741,0,-1,0,-1,0,-1,-1,3
1570181949917741,-1,0,-2,-2,-3,-3,-1,8
1570181949923727,3,-1,-1,-2,-2,-4,5,-5
1570181949923727,1,0,0,1,1,2,-8,-5
1570181949930705,0,-1,-1,-2,-1,-3,-3,-2
1570181949930705,-2,-1,-3,0,0,-3,0,-1
1570181949946663,-4,-1,0,-1,-1,-1,0,-2
1570181949946663,4,-2,-2,-2,0,1,4,3
1570181949948658,2,-1,-2,-2,-2,-4,1,2
1570181949948658,-1,0,0,1,-2,-3,-2,-4
1570181949969603,-1,1,0,0,1,2,-4,-5
1570181949969603,-4,-2,-3,-1,-1,-1,2,-4
1570181949971597,0,0,0,1,0,7,-2,0
1570181949971597,-2,-2,-2,-1,-5,-15,-4,-11
1570181949983565,-4,-2,0,0,-1,-3,-4,-10
1570181949983565,-1,0,0,0,-1,0,1,0
1570181949990546,-3,-1,1,0,0,0,0,-1
1570181949990546,0,0,0,-2,-1,4,2,0
1570181950007500,2,-2,-1,0,0,0,-3,4
1570181950007500,-2,0,-1,-3,-1,-3,-2,-4
1570181950008497,-2,-2,-2,0,-1,-1,-2,-3
1570181950008497,-5,-1,1,0,0,1,-3,-9
1570181950029441,2,0,-3,0,-1,1,2,8
1570181950029441,-1,-1,1,-2,-1,1,1,3
1570181950031435,-1,-2,-1,-3,-3,-2,3,0
1570181950031435,4,1,-1,2,1,-1,-11,3
1570181950044402,-4,-1,0,1,-1,1,-2,-1
1570181950044402,0,-3,-2,-1,0,-1,-2,-21
1570181950050386,0,-1,-1,-2,1,-2,2,3
1570181950050386,-1,0,-2,0,0,0,3,2
1570181950067516,2,2,0,-1,1,1,2,3
1570181950067516,5,2,-1,-1,-1,-2,-3,9
1570181950068608,-3,-1,2,-2,0,-4,-5,-2
1570181950068608,2,-2,-2,-1,0,1,3,8
1570181950089361,-2,1,1,1,1,-1,-3,-3
1570181950089361,-2,-2,0,0,-1,-3,1,5
1570181950091275,1,-1,-1,1,0,5,0,2
1570181950091275,-1,-1,0,-1,-1,2,0,2
1570181950104241,-2,-3,-3,1,0,8,-1,-4
1570181950104241,-1,-1,0,-1,-1,-10,-5,4
1570181950111222,-6,-1,-1,0,-1,0,1,-8
1570181950111222,2,-2,0,0,-1,1,0,3
1570181950127180,0,-1,-1,-1,-2,1,3,-10
1570181950127180,0,0,-1,0,0,2,-9,-2
1570181950129174,1,-1,-2,0,-1,-1,-3,5
1570181950129174,-3,1,0,0,-1,-2,0,-6
1570181950149121,-3,-2,-1,-3,0,-4,0,-1
1570181950149121,1,-1,-1,-2,-1,3,4,3
1570181950151116,6,0,-2,-1,-2,-1,0,3
1570181950151116,0,0,2,-2,1,-1,-4,3
1570181950163202,1,-2,-3,-1,-5,-6,-1,4
1570181950163202,-3,0,-1,1,2,4,1,-6
1570181950172060,-2,0,1,-2,-2,-1,-1,-3
1570181950172060,-2,-1,-1,0,0,1,2,-5
1570181950187020,0,0,2,0,1,7,-1,3
1570181950187020,-3,-2,-2,0,-2,-7,0,-4
1570181950189015,-2,0,0,0,-1,-2,2,1
1570181950189015,-1,-1,-2,-2,-1,-1,1,2
1570181950209958,-2,1,1,0,0,-2,-4,-3
1570181950209958,-1,-2,-1,0,-1,4,0,0
1570181950210961,-1,-1,-1,-1,0,-2,-3,-4
1570181950210961,0,-1,0,-2,2,0,6,5
1570181950222924,5,2,1,-2,0,-3,-13,2
1570181950222924,-1,0,0,0,0,0,1,5
1570181950232897,1,-2,-1,1,-1,-2,0,-2
1570181950232897,-4,-1,0,-1,0,-1,-1,-11
1570181950246862,3,0,-2,1,-1,-2,4,12
1570181950246862,0,-1,0,0,-1,-1,0,2
1570181950248878,0,-1,-1,1,0,1,-3,-1
1570181950248878,2,1,2,-1,-2,0,-3,2
1570181950269857,-4,-1,-2,-1,0,-1,-1,5
1570181950269857,0,-1,0,-3,-5,-6,0,-9
1570181950270796,1,0,-1,0,2,6,4,7
1570181950270796,-2,-1,-1,-1,0,10,2,0
1570181950282764,-2,0,-1,0,0,-5,0,-2
1570181950282764,-3,-2,-3,-2,-2,-2,-2,-6
1570181950291740,0,1,0,0,0,1,-3,-4
1570181950291740,-1,0,-1,-2,-3,-7,-2,-2
1570181950306742,3,0,-1,-2,-2,-2,1,6
1570181950306742,1,-1,0,-2,0,3,1,3
1570181950308695,-1,0,-1,0,-1,-2,-2,-1
1570181950308695,-2,0,-1,-1,0,-1,-3,-2
1570181950329639,-4,-1,0,1,-1,0,2,-8
1570181950329639,4,2,1,0,1,-4,-13,5
1570181950331633,-2,1,2,0,-1,-2,-2,-2
1570181950331633,4,-2,-1,-1,0,-3,0,3
1570181950343601,-1,-3,-2,0,-1,0,1,1
1570181950343601,-5,1,0,1,2,6,7,8
1570181950352578,1,0,-2,1,-1,-2,-2,-1
1570181950352578,-3,0,-1,-1,1,-2,-4,-2
1570181950367537,-1,-2,-2,-2,-1,-3,0,-4
1570181950367537,0,-2,-1,0,0,6,3,4
1570181950368535,-3,-3,-2,-3,-1,-2,-1,-12
1570181950368535,-1,0,-1,1,-2,-2,3,1
1570181950389478,-1,0,-1,-1,0,0,-2,-3
1570181950389478,0,-1,1,0,0,6,3,-1
1570181950391473,-2,-2,-2,-2,-4,-13,-4,-1
1570181950391473,-1,-1,-1,0,0,-3,-2,-2
1570181950403479,0,0,0,1,-2,-2,0,4
1570181950403479,-1,1,-2,-1,-3,3,1,-1
1570181950412417,-3,0,-1,-1,1,4,0,-2
1570181950412417,3,-2,0,-2,-1,0,0,3
1570181950427379,-3,0,-1,0,-1,-4,-1,-3
1570181950427379,3,0,1,-1,-1,-6,-12,-1
1570181950428375,1,0,-1,-1,-3,1,2,10
1570181950428375,-2,1,1,0,1,-2,1,-5
1570181950449319,-4,-2,-2,-2,-1,1,-2,-11
1570181950449319,-2,0,1,1,0,-1,3,-1
1570181950451315,2,0,-1,0,-1,1,1,2
1570181950451315,0,0,-1,0,0,-1,-2,2
1570181950463646,-4,1,-1,-1,-1,2,0,-5
1570181950463646,-1,-1,-2,0,-1,-1,3,1
1570181950472367,0,0,1,-2,1,0,-1,1
1570181950472367,-2,-1,-2,0,-3,1,3,-3
1570181950487217,6,2,0,-1,0,0,1,3
1570181950487217,-10,-2,-1,-2,0,-2,0,-4
1570181950489213,2,0,1,0,1,2,0,-5
1570181950489213,-3,-1,2,-3,-1,0,-3,-2
1570181950509160,0,-2,2,-1,0,-1,0,3
1570181950509160,-1,-1,-1,-2,-1,-3,-1,-1
1570181950511154,-4,-3,-3,-1,-2,0,-2,-7
1570181950511154,2,2,-1,0,-1,2,0,4
1570181950523122,2,-1,-2,-1,-3,-12,-5,-2
1570181950523122,-3,0,1,1,2,0,-11,-6
1570181950532148,4,0,0,0,-1,-3,3,11
1570181950532148,-3,1,0,2,-1,-10,-4,-13
1570181950547113,5,-1,0,-3,2,15,7,2
1570181950547113,-4,-1,-3,0,-1,-3,1,-6
1570181950549056,4,0,0,-1,1,0,1,9
1570181950549056,-1,-1,0,-1,-2,2,-2,-2
1570181950570007,-4,0,2,1,1,1,0,2
1570181950570007,1,-2,0,-3,-3,0,3,-1
1570181950570994,-3,0,-2,0,-1,1,-3,-5
1570181950570994,0,-1,-2,-2,-1,1,0,1
1570181950583960,-3,0,-2,0,0,0,-1,-1
1570181950583960,1,0,0,-1,0,0,2,3
1570181950592010,-2,-2,0,0,-2,-2,-2,-2
1570181950592010,0,-1,0,-1,1,6,2,1
1570181950607896,-2,0,-1,0,0,-6,-3,-1
1570181950607896,1,-1,-3,0,0,-1,1,1
1570181950608892,-2,-1,-1,-1,-2,-2,-1,-4
1570181950608892,-2,-2,-1,-2,0,1,2,3
1570181950629841,-2,-1,0,1,-2,1,-1,-3
1570181950629841,2,-1,-1,-2,-2,-1,2,4
1570181950630859,-2,1,0,0,1,2,-1,-9
1570181950630859,3,0,0,2,0,-2,-2,5
1570181950651781,-3,-3,-1,-3,-3,-6,-5,-9
1570181950651781,-2,-1,-2,-1,-1,7,15,1
1570181950653776,-2,-1,-1,0,0,-1,-2,-8
1570181950653776,-1,-1,-1,-2,-2,-2,-3,-1
1570181950666746,-5,-1,-1,0,0,-2,0,-4
1570181950666746,3,0,0,1,-2,-2,-1,2
1570181950668734,-1,0,0,-2,0,1,-1,4
1570181950668734,-3,-1,-1,0,0,-2,0,-1
1570181950690855,-1,-1,-2,-2,-1,2,3,2
1570181950690855,-1,-1,-1,-2,0,-1,-4,-2
1570181950691676,-1,-1,0,0,0,0,1,2
1570181950691676,-1,-1,-2,0,-1,-1,-2,0
1570181950712615,-2,0,2,-1,-1,0,-3,-3
1570181950712615,1,0,-1,-1,-1,-2,-2,1
1570181950713612,-2,-1,0,-3,-2,-2,-1,-1
1570181950713612,0,0,3,0,-1,-1,0,2
1570181950727582,3,2,-1,0,-1,0,0,7
1570181950727582,-2,0,0,1,-1,0,-2,-2
1570181950728574,-2,-1,0,0,0,0,0,-4
1570181950728574,-3,-2,-2,-1,0,5,1,-2
1570181950749516,2,-1,-2,-1,-2,-11,-4,0
1570181950749516,1,1,1,0,-1,-4,-3,1
1570181950751971,5,0,-2,-1,0,0,1,12
1570181950751971,3,0,0,-2,-2,-2,2,17
1570181950771498,-2,-2,-1,0,2,-3,-1,-3
1570181950771498,-1,-1,0,-2,1,6,0,-3
1570181950773457,-1,-1,-1,1,-1,-3,-1,2
1570181950773457,-1,1,-1,-1,0,1,-2,-3
1570181950786419,0,0,-1,1,0,2,1,2
1570181950786419,0,0,-1,0,-1,-4,-1,-1
1570181950800432,-5,0,0,0,0,1,-1,-8
1570181950800432,0,0,-1,-1,-1,-2,1,-3
1570181950809358,-1,-1,-1,0,-2,2,0,-1
1570181950809358,0,0,1,0,1,-2,-1,-4
1570181950811355,0,0,-2,-1,0,1,1,5
1570181950811355,-3,-1,-1,-1,-1,-3,-2,-4
1570181950839276,6,1,0,1,1,2,-12,5
1570181950839276,-1,-2,-3,-1,-1,-2,-3,-3
1570181950841272,-1,0,-1,-1,-1,-1,-1,1
1570181950841272,0,0,-3,0,0,2,0,-5
1570181950846417,-5,-3,-2,-4,-4,-20,-7,-2
1570181950846417,-1,-2,-2,-1,-3,-1,0,-2
1570181950853309,-3,-1,1,0,0,5,-1,-6
1570181950853309,-7,-2,1,1,-1,0,1,-11
1570181950869198,0,0,-1,-1,1,7,5,-1
1570181950869198,2,0,0,-2,0,-3,2,14
1570181950871246,-2,-1,0,-3,-2,-7,-1,0
1570181950871246,1,1,-1,0,-2,0,-1,6
1570181950892174,0,0,1,0,0,1,4,0
1570181950892174,-2,-2,-1,-1,0,4,-2,-7
1570181950900114,1,-2,-2,-2,-4,-3,1,2
1570181950900114,0,-1,-2,-1,0,-3,-2,1
1570181950915074,-1,-1,-1,0,0,1,-2,-5
1570181950915074,0,0,-1,0,-1,0,1,0
1570181950916072,-2,1,-1,1,-1,1,-2,-2
1570181950916072,2,-1,-1,-1,-1,-2,-2,-1
1570181950930039,-6,-1,-1,0,0,0,2,-4
1570181950930039,1,-2,-1,-2,0,0,-1,-7
1570181950931031,-4,-2,-2,-1,0,0,8,-3
1570181950931031,-3,0,-1,0,0,-3,0,-4
1570181950952102,3,1,1,-1,3,5,3,0
1570181950952102,-1,0,-1,2,0,-2,-1,0
1570181950953971,0,-1,-2,0,-1,0,-1,1
1570181950953971,8,2,0,0,0,3,6,19
1570181950966935,-3,0,0,-1,0,0,-1,0
1570181950966935,-1,-1,1,-1,0,-2,-1,-7
1570181950973918,-7,-2,-1,-1,-3,-13,-11,-4
1570181950973918,-1,0,2,0,1,-1,1,-4
1570181950989879,1,-1,-2,1,-1,2,0,4
1570181950989879,-2,0,0,-1,-3,-3,-1,7
1570181950991214,0,-2,0,-1,-1,3,0,-12
1570181950991214,-1,-2,-3,-1,0,-2,-3,-4
1570181951011816,-1,0,-2,-2,-2,1,3,2
1570181951011816,0,0,1,-1,0,0,-3,-5
1570181951013809,3,1,-1,1,-1,-6,-2,2
1570181951013809,-3,0,0,-1,0,6,3,0
1570181951026777,0,-1,0,0,0,2,0,-3
1570181951026777,-1,1,-2,-2,-2,0,1,2
1570181951033759,2,0,1,-1,1,-3,-3,0
1570181951033759,-3,-1,-2,-1,-1,-2,4,-8
1570181951049714,4,1,1,0,0,2,-5,8
1570181951049714,0,-1,-2,-2,-1,0,-1,2
1570181951051709,2,-1,1,-1,-1,3,1,3
1570181951051709,-3,-2,-1,-2,-1,-1,-2,-8
1570181951072700,-8,-1,-1,-2,-1,-1,3,-1
1570181951072700,1,-1,-1,0,-1,-2,0,2
1570181951074647,3,1,0,0,1,4,2,4
1570181951074647,-1,-1,-1,0,0,0,-3,-1
1570181951086677,2,-1,1,1,-2,-3,1,-1
1570181951086677,0,0,-1,0,0,-1,-2,-3
1570181951093597,-1,0,-1,1,0,1,0,1
1570181951093597,-4,0,1,-1,0,1,-2,6
1570181951109558,2,-1,-3,-1,-4,-13,-5,-1
1570181951109558,8,0,-2,0,-2,-1,3,18
1570181951111550,1,-2,-2,-2,1,0,3,2
1570181951111550,-1,-2,-2,0,-2,-4,-4,-10
1570181951131495,0,0,-2,-2,1,5,1,-1
1570181951131495,-3,0,-1,0,-2,1,-3,-3
1570181951139798,5,1,-3,-1,-2,-1,1,7
1570181951139798,1,0,-1,-2,-1,-2,-2,2
1570181951145502,-7,-1,-1,0,-2,3,0,1
1570181951145502,5,3,1,1,-1,-10,-19,-5
1570181951154442,-5,-1,0,1,-1,9,3,-8
1570181951154442,-3,-1,0,1,-1,-1,-2,-6
1570181951169706,8,0,-3,-1,-1,0,-2,0
1570181951169706,-3,-2,0,-2,0,3,3,-1
1570181951171389,2,0,0,-1,-2,-3,-1,4
1570181951171389,3,0,-1,-3,-1,-4,-2,2
1570181951192378,-4,-2,-2,0,1,0,2,-1
1570181951192378,-4,-1,0,0,0,0,3,-5
1570181951193333,2,-2,-1,-1,2,8,0,1
1570181951193333,3,1,1,0,2,-3,1,5
1570181951205398,1,-1,0,0,1,0,-1,-3
1570181951205398,-4,-1,-1,-2,-1,-1,1,-3
1570181951215277,0,0,0,0,0,0,-2,-2
1570181951215277,0,-1,-1,-2,-2,1,1,3
1570181951229274,-4,1,1,-1,-3,-2,-2,-10
1570181951229274,1,-3,-2,0,0,3,4,4
1570181951231229,-3,-1,0,-1,-1,-2,-2,-2
1570181951231229,-2,0,-1,1,-1,-2,-2,-1
1570181951252325,-2,-1,-1,-1,0,1,-1,-2
1570181951252325,-8,-3,-2,-2,-1,2,10,-2
1570181951254170,-3,0,1,-1,-2,-3,-3,-3
1570181951254170,3,-1,-2,-1,-1,-1,-1,0
1570181951266194,1,0,2,-1,0,2,-2,0
1570181951266194,1,-1,-1,0,-2,0,1,3
1570181951275111,1,0,0,-1,0,-2,-1,3
1570181951275111,-1,-1,-1,-1,-2,2,-2,-4
1570181951290071,-5,-3,-2,-2,-1,0,2,-1
1570181951290071,0,0,1,2,-2,-6,-5,1
1570181951291068,-3,-1,-2,1,0,3,1,-4
1570181951291068,1,-1,0,1,-2,-2,-2,2
1570181951312193,0,0,0,-2,0,2,1,0
1570181951312193,-3,-1,0,-1,-1,0,-3,-4
1570181951314008,0,-2,-2,-2,0,-3,-4,-2
1570181951314008,-2,-2,0,-1,-1,-2,-1,0
1570181951325978,4,-1,-2,-1,1,10,4,11
1570181951325978,0,1,0,-1,-1,-8,-4,-2
1570181951334955,-3,-1,-3,-1,-2,-11,-5,-6
1570181951334955,0,0,-1,1,2,15,5,9
1570181951349911,5,0,-1,-1,-2,-4,0,9
1570181951349911,-2,0,-1,-2,-2,4,0,-3
1570181951355895,2,0,-1,-1,-1,-2,0,2
1570181951355895,0,-1,0,-1,0,-8,-2,1
1570181951372063,6,2,2,2,0,-4,-16,1
1570181951372063,-3,0,-1,-1,1,4,0,-5
1570181951373848,-1,-1,1,1,-2,-2,0,-1
1570181951373848,-3,-1,-1,-1,-2,-1,-2,-7
1570181951385820,-4,-3,-1,-1,0,0,2,-4
1570181951385820,-2,0,-1,1,0,0,-1,-1
1570181951394791,-2,0,-1,-3,0,1,-1,0
1570181951394791,1,-2,-1,-1,-2,0,2,0
1570181951416735,-4,-1,0,-2,-1,-4,-1,-4
1570181951416735,2,-1,-2,0,-1,-1,-2,-1
1570181951418731,-2,-1,-1,1,-1,1,2,-7
1570181951418731,0,1,0,0,-1,-1,2,5
1570181951432691,-2,-2,-2,-2,-1,-1,1,-1
1570181951432691,1,0,0,-1,0,-2,-2,-3
1570181951434209,0,1,-1,-1,-3,0,0,3
1570181951434209,-1,0,0,-1,-2,-2,-5,-7
1570181951445654,2,-2,-2,-1,1,-1,1,7
1570181951445654,-1,0,-1,0,0,2,2,3
1570181951455189,-3,-2,-1,0,-1,0,-2,-4
1570181951455189,2,0,-1,0,1,12,3,3
1570181951469593,-5,-1,0,1,0,-5,-2,-6
1570181951469593,-1,0,-2,-2,0,-1,-2,-2
1570181951471585,3,-1,0,-1,0,0,-2,8
1570181951471585,-4,0,0,-1,1,-1,-2,-7
1570181951492531,-1,0,0,3,-2,1,-1,-6
1570181951492531,1,-2,-1,0,0,-2,-2,10
1570181951493527,-1,1,0,0,0,0,3,-1
1570181951493527,0,-2,-1,-2,-1,-4,0,6
1570181951505631,-5,0,0,-1,0,0,1,-3
1570181951505631,1,0,-1,0,-2,-1,3,0
1570181951514471,-3,-2,-1,0,0,0,0,-1
1570181951514471,2,-1,-2,-2,-3,-6,0,7
1570181951529474,3,0,-2,-1,1,5,13,5
1570181951529474,-1,0,0,1,-2,-8,-7,-6
1570181951531431,3,1,-1,0,6,22,7,6
1570181951531431,-2,0,0,0,-3,-4,0,-5
1570181951552373,-5,-2,-1,-3,-3,-5,-5,-25
1570181951552373,1,0,-1,-2,-2,-4,-2,6
1570181951553449,-1,0,0,0,0,-9,-3,3
1570181951553449,2,-1,-1,0,1,-2,-2,-5
1570181951566334,1,1,0,-1,-2,0,-1,0
1570181951566334,-6,-1,-1,0,-2,4,1,-4
1570181951574834,2,-2,-2,0,-3,-5,-6,-13
1570181951574834,0,0,0,0,0,0,-2,-3
1570181951589422,0,0,1,-1,-1,-2,-1,6
1570181951589422,-2,-3,0,1,1,2,1,-5
1570181951591273,4,1,-1,-2,-2,-2,0,6
1570181951591273,-5,-1,-2,-1,0,-1,-2,-3
1570181951612210,1,0,-1,0,1,2,-2,1
1570181951612210,-1,0,0,-2,1,0,1,-2
1570181951614209,-1,-2,-2,-2,-1,-3,0,-1
1570181951614209,-4,-2,0,-1,-3,-4,-3,-8
1570181951635207,-6,-2,-1,-1,0,3,8,-3
1570181951635207,6,1,0,-1,-1,0,-4,1
1570181951636250,-4,-2,0,0,-2,-2,-1,-1
1570181951636250,-2,-1,-1,-2,-1,-2,-3,-12
1570181951650109,0,1,0,1,-3,-1,-1,1
1570181951650109,0,0,-2,-1,-1,-1,-1,-2
1570181951651112,0,-1,-1,0,1,0,-2,1
1570181951651112,-2,-1,-2,1,1,0,2,3
1570181951672179,-2,-1,0,-3,1,-1,-4,-8
1570181951672179,8,0,1,0,0,2,0,-4
1570181951674045,-1,1,0,-1,-2,-3,-4,7
1570181951674045,3,0,0,-1,1,0,2,8
1570181951694997,0,-2,-1,0,1,9,0,5
1570181951694997,-1,0,-1,0,0,-5,1,5
1570181951695987,-7,-2,-2,-2,0,0,-1,-10
1570181951695987,3,1,0,-1,-1,0,0,0
1570181951709948,2,-2,-2,-1,-2,-1,7,2
1570181951709948,-8,-4,-2,-1,-1,2,-7,-15
1570181951711943,0,0,-1,0,-1,-6,0,2
1570181951711943,-1,0,0,-1,0,6,2,2
1570181951731969,-3,-1,-2,0,-2,-8,-2,-2
1570181951731969,-2,-2,-2,1,1,8,4,-3
1570181951733886,-3,0,-2,-2,-2,-3,-2,-3
1570181951733886,3,0,-2,-1,-2,-2,-2,2
1570181951754833,-1,0,1,-1,0,-7,-4,-1
1570181951754833,-3,0,-1,0,-1,0,0,1
1570181951755827,3,1,-2,1,0,3,1,6
1570181951755827,-4,-2,-2,0,-2,-2,0,2
1570181951768794,5,0,0,-1,-1,8,0,4
1570181951768794,-6,-2,1,0,-2,-10,-2,0
1570181951775773,0,-1,-1,0,0,0,1,-1
1570181951775773,-5,-2,0,-1,0,-1,-2,-3
1570181951792737,-1,0,-1,-1,0,1,5,0
1570181951792737,6,0,-1,0,1,2,-6,6
1570181951793725,-1,1,2,0,0,-1,2,0
1570181951793725,1,-1,-1,-1,0,-4,-1,1
1570181951814675,-1,-2,2,0,0,2,-3,4
1570181951814675,-2,-1,-1,-1,-1,-1,3,-1
1570181951816820,-3,-2,-2,-1,0,0,-1,-4
1570181951816820,1,-1,1,-1,0,1,-3,-2
1570181951828637,3,0,-1,-2,-2,-6,-3,9
1570181951828637,-1,0,0,-1,-2,0,4,-3
1570181951835683,3,-2,0,0,0,0,-3,-3
1570181951835683,1,0,-1,-1,-2,-1,0,3
1570181951852609,-1,-2,-1,0,-1,-6,-4,-3
1570181951852609,-6,-1,-1,-2,-2,-2,-1,-3
1570181951853564,4,0,-1,0,-2,3,1,-1
1570181951853564,-7,-3,-1,-1,-3,-6,-1,-12
1570181951874654,-3,-1,1,1,0,0,-3,1
1570181951874654,2,1,0,-2,-1,2,0,4
1570181951876504,3,1,-1,0,-1,-5,-13,-1
1570181951876504,0,-1,0,1,0,1,-2,-2
1570181951889473,2,-1,-2,-2,0,1,-2,4
1570181951889473,-3,-2,0,1,-1,-4,-2,-1
1570181951895580,-2,-1,-1,-1,0,3,3,-4
1570181951895580,2,1,-1,-2,-1,-2,-1,0
1570181951912410,-1,-1,-3,-2,-1,-1,-1,-5
1570181951912410,3,0,-2,0,0,1,2,3
1570181951913761,0,-1,2,0,1,-1,2,13
1570181951913761,-5,-1,0,2,-2,-2,-1,-6
1570181951934592,1,-1,-1,1,-1,-1,-1,-5
1570181951934592,2,0,-1,-2,-1,1,-2,-3
1570181951936367,-14,-4,-2,1,-1,-2,-1,-12
1570181951936367,5,1,0,1,0,2,1,6
1570181951949313,4,0,0,-1,1,1,0,10
1570181951949313,2,0,1,0,0,3,1,-4
1570181951956300,-1,-1,-1,-1,0,-2,1,-3
1570181951956300,-6,0,0,-1,0,0,-1,-8
1570181951972252,-5,-1,-2,-1,-1,-1,7,-5
1570181951972252,0,-1,-1,0,0,-1,1,8
1570181951974478,0,0,-2,-3,-3,0,3,-5
1570181951974478,-3,-3,-1,-2,-1,-4,-5,-6
1570181951995240,0,-2,-2,-1,-4,-6,-1,1
1570181951995240,-2,0,0,-2,1,-6,-2,-1
1570181951996183,4,1,-3,0,0,4,2,1
1570181951996183,0,-2,-1,0,1,0,1,3
1570181952009458,-5,-1,0,0,0,0,-5,-2
1570181952009458,-8,-2,-1,-2,-3,-3,-4,-11
1570181952017127,1,0,-1,-1,-1,-3,-1,-3
1570181952017127,-1,-2,0,-1,-2,-2,0,0
1570181952032089,-1,0,-1,0,-1,0,-2,0
1570181952032089,1,-3,-1,0,-2,4,1,-1
1570181952034125,3,0,-1,-1,0,-1,1,4
1570181952034125,6,0,-2,-2,0,3,0,13
1570181952055047,3,0,-1,-1,0,-2,-2,1
1570181952055047,-1,0,0,0,-1,0,2,3
1570181952056024,-4,-2,-2,-2,-1,1,9,-7
1570181952056024,1,1,-1,-1,-1,-3,0,2
1570181952068999,-3,2,-1,1,3,6,0,3
1570181952068999,7,1,-1,-1,-1,-3,0,-1
1570181952075973,-3,-2,0,-1,-1,-2,0,1
1570181952075973,-1,-2,0,1,-1,0,0,-4
1570181952092532,-5,0,-1,-1,0,1,-2,-9
1570181952092532,3,2,1,0,1,8,4,16
1570181952093923,-3,-1,2,0,-2,-9,-7,-3
1570181952093923,0,2,0,0,-2,1,0,-3
1570181952114906,1,1,0,-1,-1,-3,-4,-3
1570181952114906,-1,-3,-3,-1,-1,-5,-1,4
1570181952115866,-1,-1,1,0,1,7,-3,-3
1570181952115866,0,-1,-1,-2,1,1,0,5
1570181952128831,0,-2,1,0,-2,-4,1,-4
1570181952128831,-1,-1,-2,-3,-2,-1,-2,-2
1570181952136813,2,1,-1,0,-1,0,-1,3
1570181952136813,-2,-2,-2,-2,-1,-3,-1,-5
1570181952151767,7,1,1,0,-1,1,-12,3
1570181952151767,0,-1,0,0,-1,-2,-3,-2
1570181952154090,-2,-1,-2,-1,-1,-1,-4,1
1570181952154090,-4,-3,1,-3,0,0,-2,-13
1570181952174757,1,1,-2,0,-1,-2,2,-4
1570181952174757,-10,-4,-2,1,0,1,0,-12
1570181952176701,5,3,1,1,1,-2,-3,5
1570181952176701,-5,1,0,1,-1,-1,-2,-6
1570181952188673,-3,-1,0,-3,1,0,5,2
1570181952188673,-2,0,-1,-1,0,0,1,-2
1570181952198177,-3,-2,-2,1,3,14,7,-4
1570181952198177,4,1,0,1,-4,-12,-16,2
1570181952212604,-3,-2,-2,-2,-1,-2,-1,-6
1570181952212604,-1,0,1,0,-1,-5,0,6
1570181952213601,2,-1,-1,0,-2,-3,1,3
1570181952213601,0,-1,-1,0,3,11,7,5
1570181952234867,-4,0,-3,0,0,-1,-2,-15
1570181952234867,1,2,0,1,-1,2,-2,9
1570181952236108,-3,-1,-1,-1,-3,-5,-5,-2
1570181952236108,1,-1,0,0,-1,-1,2,0
1570181952248155,-2,-2,0,-1,-2,-4,1,7
1570181952248155,-2,-2,-1,-2,-1,3,1,-5
1570181952257141,0,-1,0,0,0,-6,-1,-3
1570181952257141,4,-2,-2,-2,-1,5,9,6
1570181952272684,1,1,0,1,0,0,-9,2
1570181952272684,-9,0,-1,0,1,-4,-4,-13
1570181952273489,-2,-1,-1,-2,0,-1,0,3
1570181952273489,-4,-1,-1,-2,-1,-1,2,-5
1570181952295177,-2,-1,1,-2,-2,-2,0,-5
1570181952295177,2,0,0,-2,1,2,3,8
1570181952295978,-4,-1,0,-1,0,-3,-4,-9
1570181952295978,4,-2,-1,0,0,4,-1,9
1570181952308638,0,-3,-2,-2,-4,-13,-4,-1
1570181952308638,0,0,0,-2,-2,-5,-3,2
1570181952317571,5,-2,0,0,2,10,5,9
1570181952317571,-2,-2,-1,-1,0,-3,-4,-6
1570181952331814,3,-2,-4,1,0,3,4,6
1570181952331814,2,-1,-1,-1,0,4,0,-4
1570181952333839,-9,-2,-1,-2,-7,-14,6,-7
1570181952333839,-3,1,0,0,0,4,-1,-2
1570181952354375,-2,-2,-1,-1,1,1,-3,-16
1570181952354375,-1,-1,0,0,-2,-1,0,6
1570181952356430,-4,0,-1,-1,-1,1,-1,5
1570181952356430,4,0,-3,0,-2,-5,-1,3
1570181952368374,1,0,-1,-1,-1,0,1,5
1570181952368374,2,-2,-3,1,-1,-1,-1,-5
1570181952377349,-2,0,1,1,1,0,-2,-1
1570181952377349,-1,1,0,0,-1,-1,1,-1
1570181952392736,-7,-2,0,0,0,1,-2,0
1570181952392736,2,-2,-1,-2,-1,-1,0,0
1570181952393675,5,3,-1,0,-1,-1,-4,0
1570181952393675,2,-1,1,-1,0,-3,-14,0
1570181952415336,-2,-1,0,-2,-2,3,3,1
1570181952415336,-9,-4,-2,-1,0,-2,-1,-12
1570181952416334,-6,-1,-2,0,-1,-1,-4,-12
1570181952416334,-3,-1,-1,0,0,0,2,0
1570181952428527,-4,0,1,-2,0,7,0,-5
1570181952428527,1,0,-1,-2,-5,-13,-4,6
1570181952437328,3,0,-1,0,1,-1,-1,-2
1570181952437328,-3,-2,1,1,-2,-9,1,-2
1570181952451476,3,-3,-2,1,4,12,9,13
1570181952451476,-1,-1,-1,-2,1,4,0,-9
1570181952458382,4,-1,-2,0,0,2,1,7
1570181952458382,-6,2,1,2,-1,-3,-1,-1
1570181952474472,1,1,-2,0,0,-5,-3,-4
1570181952474472,2,-1,0,1,2,6,-1,7
1570181952476546,-20,-2,-1,0,-3,-2,-1,-11
1570181952476546,8,-3,-1,-2,0,-4,0,1
1570181952488449,-4,-2,0,0,-2,-1,0,4
1570181952488449,-1,-2,-3,-1,1,4,0,-15
1570181952497422,3,-2,-2,-2,2,2,-1,3
1570181952497422,-20,-2,-2,2,0,1,5,1
1570181952512381,-3,4,4,2,-1,-4,1,-13
1570181952512381,1,0,-3,-1,-2,-5,-5,6
1570181952513439,4,-4,-5,-3,3,4,0,5
1570181952513439,-3,-1,-2,-3,-6,-3,-3,-9
1570181952534865,4,1,1,0,-6,-8,-1,6
1570181952534865,-2,4,4,1,-3,2,10,1
1570181952536394,-7,-3,-2,-7,-1,-4,-14,-13
1570181952536394,3,-4,-4,1,3,3,-1,11
1570181952557492,3,14,6,1,-1,0,-5,-8
1570181952557492,17,9,2,3,0,0,5,7
1570181952558740,4,-16,-8,4,1,0,5,4
1570181952558740,2,8,8,0,1,1,3,-12
1570181952571508,10,-3,-10,-4,-2,0,4,6
1570181952571508,89,40,3,-4,2,5,12,40
1570181952578473,-96,-69,-15,-6,-8,-6,-19,-34
1570181952578473,61,23,3,2,-2,0,4,24
1570181952594235,-31,-18,-7,-5,0,-2,-2,-5
1570181952594235,9,19,3,1,2,0,-3,-9
1570181952596231,50,5,9,4,4,1,-2,31
1570181952596231,-91,-39,2,6,3,1,-2,-20
1570181952617174,20,19,-6,0,2,2,2,7
1570181952617174,-35,-19,2,-7,-9,-5,-6,-2
1570181952619169,59,35,-11,-6,-1,0,6,8
1570181952619169,-54,-38,-8,-4,-1,-2,-6,-16
1570181952631137,51,45,20,9,4,2,4,14
1570181952631137,-69,-43,12,8,1,-2,-6,-21
1570181952638118,44,36,12,2,0,4,9,9
1570181952638118,31,19,-6,-7,-2,2,-1,5
1570181952655073,-52,-32,-16,-10,-8,-6,-10,-10
1570181952655073,14,3,-12,-4,-1,2,2,1
1570181952656071,3,14,8,-1,-1,-4,1,-3
1570181952656071,33,4,6,4,1,2,3,10
1570181952677013,-10,-26,-7,2,1,-2,-1,1
1570181952677013,-27,-4,-17,-7,0,0,-4,-12
1570181952679007,25,14,5,-2,-2,-4,-3,-3
1570181952679007,4,19,-14,0,2,1,1,-6
1570181952691077,15,16,4,-2,-5,1,2,-2
1570181952691077,-5,-22,12,8,3,-3,-3,-6
1570181952699953,-39,-30,-15,0,0,2,2,0
1570181952699953,11,-3,9,0,-4,0,6,1
1570181952714911,-23,-31,-17,-3,1,1,0,-6
1570181952714911,22,26,-6,-4,-2,-2,-8,3
1570181952715910,21,-17,8,8,1,-3,0,7
1570181952715910,-6,1,9,-3,-6,-3,-2,0
1570181952744905,-2,-9,-6,-5,4,1,-5,-3
1570181952744905,-1,9,13,5,2,-1,1,-3
1570181952746826,4,10,-6,-5,-6,-2,-1,-8
1570181952746826,-1,-13,-9,1,1,2,-2,1
1570181952750817,49,27,7,-7,-4,-3,1,-3
1570181952750817,-9,16,9,2,1,1,-4,-12
1570181952759790,31,-38,-5,4,-2,-2,-1,-1
1570181952759790,-64,-21,-7,-6,-2,-3,-3,-6
1570181952774751,-14,28,-14,-11,-7,-5,-9,-16
1570181952774751,11,-39,25,9,1,-4,-5,-2
1570181952775747,8,45,6,6,1,2,5,5
1570181952775747,25,11,8,0,1,5,1,5
1570181952796690,28,25,1,0,1,0,4,15
1570181952796690,-28,-16,-18,-9,-6,-5,-3,-7
1570181952798686,-45,-34,4,6,4,0,1,-4
1570181952798686,-8,-10,-7,-2,3,-2,-1,2
1570181952810727,18,31,16,1,-1,1,2,8
1570181952810727,-31,-36,-36,-14,-4,1,2,-1
1570181952819631,-15,47,19,0,3,-2,-1,3
1570181952819631,18,-27,4,12,-4,0,1,-3
1570181952834593,-41,-44,1,1,-1,-2,-3,-5
1570181952834593,-26,1,-1,-3,-4,-2,-1,-3
1570181952836593,102,95,-13,-7,-1,1,4,13
1570181952836593,-27,-21,22,1,2,-1,-5,-12
1570181952857576,-60,-92,-21,6,6,8,7,-5
1570181952857576,78,52,0,0,-4,-2,5,21
1570181952858529,-79,-81,-36,-16,-3,-4,-8,-22
1570181952858529,41,40,4,-1,-4,-2,3,12
1570181952878830,16,30,11,7,6,-1,1,-4
1570181952878830,9,13,8,0,11,5,3,6
1570181952880114,-3,-7,2,1,-11,-2,3,6
1570181952880114,-13,-24,-17,-12,-9,-1,0,-5
1570181952893788,12,39,7,0,0,-1,2,18
1570181952893788,-48,-58,-12,15,13,3,2,-4
1570181952894786,18,11,17,1,-5,-1,-3,-5
1570181952894786,18,18,-3,-1,4,-1,-5,-1
1570181952916725,25,-9,-1,-7,-13,-5,-4,0
1570181952916725,47,33,-5,-1,-6,-2,0,7
1570181952917724,-115,-89,-2,2,0,-2,-10,-41
1570181952917724,42,20,-7,-3,0,3,5,10
1570181952939666,-5,19,9,7,6,-1,-4,-7
1570181952939666,1,-19,10,6,1,3,4,11
1570181952939666,-80,-49,-27,-19,-17,-5,-9,-29
1570181952939666,19,26,1,3,18,-3,-4,-5
1570181952953627,-55,-30,-8,-5,-8,-4,8,-15
1570181952953627,-51,2,0,-6,-7,-4,-9,-14
1570181952954625,12,15,21,9,8,12,14,20
1570181952954625,30,19,6,6,1,1,7,15
1570181952976568,-74,-83,-21,-10,-6,-5,-12,-30
1570181952976568,33,18,-5,-11,-16,-8,1,5
1570181952977566,-2,30,10,13,13,8,6,16
1570181952977566,34,9,-8,-8,-3,-5,-2,10
1570181952998876,-1,26,37,19,27,17,4,11
1570181952998876,10,-1,-2,-4,-27,3,4,0
1570181952999508,-82,-15,-14,-6,18,-8,-8,-5
1570181952999508,15,-8,-6,-5,-20,-11,-5,-2
1570181953022446,-5,-3,-14,-7,-3,-1,-3,0
1570181953022446,7,6,-1,-5,6,0,-1,-6
1570181953022887,31,34,10,4,-8,1,3,5
1570181953022887,-50,-33,-6,-7,-4,-1,1,-3
1570181953036599,115,59,-1,-2,-4,-4,0,13
1570181953036599,-19,-33,-7,-3,1,-6,-14,-40
1570181953037403,33,-12,2,-5,-9,0,2,11
1570181953037403,-11,7,-5,3,16,2,-1,9
1570181953059392,49,21,5,5,-9,-4,-5,11
1570181953059392,-32,-8,4,6,20,8,9,6
1570181953060343,22,-12,6,-5,-11,-10,-2,-2
1570181953060343,-71,-9,-2,-3,0,4,-1,-40
1570181953074503,-15,-14,-23,-10,-10,1,9,18
1570181953074503,18,33,34,16,14,0,-7,-27
1570181953075303,34,20,7,13,12,-1,-4,-8
1570181953075303,-20,-20,2,2,-13,2,1,-6
1570181953096247,-27,-2,5,1,3,3,2,-10
1570181953096247,-11,-12,-31,-11,-3,1,3,11
1570181953097248,77,36,13,-9,-17,-5,-10,-12
1570181953097248,-4,-9,-2,3,14,3,-4,-9
1570181953119192,-3,-9,4,3,1,0,0,-17
1570181953119192,-16,5,-41,-11,1,-2,-14,6
1570181953120183,38,27,39,17,9,2,2,1
1570181953120183,5,-19,6,-2,-17,-4,0,-2
1570181953135359,-39,-29,-8,-6,-9,-4,-5,-43
1570181953135359,-9,13,8,6,-2,-2,9,6
1570181953136141,45,13,-24,-9,11,7,-4,-22
1570181953136141,13,30,-4,-7,-13,-2,-8,5
1570181953156091,28,1,5,-3,-6,-3,-5,8
1570181953156091,7,-14,10,11,23,3,2,4
1570181953157089,-28,0,8,7,-9,-2,2,-12
1570181953157089,-17,4,-4,-8,5,1,5,1
1570181953179028,-5,-12,-6,2,9,-3,-4,-44
1570181953179028,18,11,9,-13,-39,-8,6,-3
1570181953180025,-12,-11,-9,6,16,-1,2,-3
1570181953180025,-27,1,-8,1,-3,3,6,-18
1570181953193986,25,27,12,6,1,-7,-19,-25
1570181953193986,-18,-36,-2,-12,-13,-9,-14,2
1570181953194984,-7,-5,-15,-8,2,2,6,41
1570181953194984,-6,-4,5,4,-1,0,0,42
1570181953216924,9,-10,-27,-7,3,-1,-5,-3
1570181953216924,7,15,40,9,-2,6,2,-14
1570181953216924,-5,-3,-6,-5,-6,-2,4,4
1570181953216924,7,-5,-3,-8,-11,-4,-9,-41
1570181953239072,-33,-23,-2,13,22,7,9,10
1570181953239072,26,38,-1,-4,0,0,-2,10
1570181953246850,-12,-16,1,0,-6,0,3,30
1570181953246850,-15,-21,-7,-3,2,0,-2,0
1570181953253867,10,-2,-2,-13,-13,-5,2,27
1570181953253867,-14,-9,-9,0,0,-6,-5,1
1570181953254823,35,3,-8,-6,-2,4,4,25
1570181953254823,13,5,8,6,7,-5,-6,-29
1570181953276768,13,13,7,2,1,2,12,41
1570181953276768,3,-5,-1,4,5,-1,3,25
1570181953276768,-8,-12,-7,-3,-3,4,17,11
1570181953276768,32,2,-13,-5,0,-2,-6,37
1570181953307687,-9,19,19,2,-2,-2,-3,0
1570181953307687,23,3,-2,0,0,0,1,31
1570181953307687,-36,-20,-29,-12,-6,-6,-6,5
1570181953307687,11,7,22,9,6,4,9,3
1570181953322657,-14,-20,-5,-3,-1,-2,-7,-2
1570181953322657,2,3,5,0,4,2,0,2
1570181953322657,-1,5,-6,-2,-2,0,-3,6
1570181953322657,8,17,-2,0,2,-2,1,26
1570181953336926,18,0,0,-1,-7,-2,-18,13
1570181953336926,-7,9,-4,3,7,5,-2,21
1570181953337601,-18,4,15,5,4,0,2,5
1570181953337601,10,12,-5,-2,-6,-6,-11,-5
1570181953359545,3,4,0,-11,-11,-1,3,-3
1570181953359545,25,-4,-7,9,34,0,10,22
1570181953360541,2,1,3,10,11,7,-5,-15
1570181953360541,8,-2,4,2,0,1,4,8
1570181953374503,-13,5,0,-3,-6,-1,7,21
1570181953374503,58,10,3,10,9,9,2,13
1570181953374503,19,4,5,2,2,1,2,14
1570181953374503,-7,2,-11,-10,-4,-5,-7,-14
1570181953396446,-18,-7,-8,2,6,2,3,15
1570181953396446,24,5,12,1,-9,-2,-2,-14
1570181953397443,-62,-24,-4,-11,-18,-4,-8,-1
1570181953397443,14,-2,5,10,21,4,5,22
1570181953419464,20,12,-1,-6,-1,0,6,34
1570181953419464,-30,-26,-15,1,-6,-1,-8,-29
1570181953420228,17,34,-6,-7,-3,-5,-7,-5
1570181953420228,-25,-18,15,-4,-7,-2,0,-6
1570181953435381,15,6,2,12,12,-4,3,7
1570181953435381,-14,-1,-2,-4,-7,5,2,-1
1570181953436338,2,-1,3,-4,0,-5,-7,-2
1570181953436338,-21,-32,-22,-6,3,0,-3,19
1570181953456285,-9,-2,14,8,2,1,-12,-16
1570181953456285,-24,-3,4,-1,-6,6,-4,-11
1570181953457571,8,2,0,0,-2,-3,-9,30
1570181953457571,-9,-3,0,-4,-6,4,4,4
1570181953479223,24,9,-7,-3,-4,-3,1,-4
1570181953479223,25,13,27,7,3,2,8,26
1570181953480222,-6,-5,-11,-11,-10,-3,-6,7
1570181953480222,17,12,1,2,3,0,3,16
1570181953494183,9,18,3,0,1,-1,5,10
1570181953494183,-3,-6,-16,-11,-9,-4,-2,48
1570181953495179,-17,-48,-2,6,2,1,9,15
1570181953495179,-29,26,3,2,-7,-3,-8,-30
1570181953516126,-5,-8,2,-4,-10,1,-8,-20
1570181953516126,-25,-14,-11,-12,-14,-19,-13,-45
1570181953517121,45,26,3,4,18,7,-3,-28
1570181953517121,-10,-1,-1,0,-2,-8,-4,-22
1570181953539070,32,5,3,3,2,7,9,5
1570181953539070,-43,-8,2,-5,-8,-1,-1,-4
1570181953540102,-17,-14,-2,-2,2,2,1,-1
1570181953540102,20,4,2,7,13,5,3,-9
1570181953554023,16,9,-10,-8,-11,-2,3,6
1570181953554023,-18,-15,2,5,4,1,5,-13
1570181953555020,-2,1,-6,-6,-7,-6,2,-24
1570181953555020,25,47,10,-1,2,3,9,10
1570181953576962,27,-35,-6,-1,-4,0,2,16
1570181953576962,6,17,-1,-4,1,-4,-4,-15
1570181953576962,-15,-23,-1,5,-2,1,9,-19
1570181953576962,24,27,-5,-7,-24,-2,6,27
1570181953598903,-48,-20,-4,2,15,-5,-8,-30
1570181953598903,11,12,1,2,8,5,4,3
1570181953599907,24,20,4,0,-5,-1,0,11
1570181953599907,11,-6,9,0,-10,1,-4,-1
1570181953613863,-17,-15,-3,1,15,3,6,0
1570181953613863,12,12,-2,-4,-7,-3,-2,-2
1570181953614860,13,10,-1,6,16,8,2,9
1570181953614860,11,-19,-12,-11,-15,-13,-8,-28
1570181953636909,-19,-4,2,0,5,2,0,11
1570181953636909,60,32,-3,1,9,3,-1,-3
1570181953637802,22,19,15,6,-11,-2,1,-5
1570181953637802,-27,-40,-17,-5,13,1,2,22
1570181953658882,-4,11,14,8,1,3,0,-3
1570181953658882,-15,-31,-32,-13,-14,-8,-3,5
1570181953659741,8,33,28,7,7,-2,1,-3
1570181953659741,37,-11,-11,-8,-5,0,-3,5
1570181953673754,-19,2,9,2,-7,-3,-3,-6
1570181953673754,-50,-19,-7,10,21,4,1,2
1570181953674700,-6,-6,-10,-6,-5,-2,-3,0
1570181953674700,-23,-3,2,-3,-1,2,4,-7
1570181953696644,23,22,1,-1,14,-1,-4,0
1570181953696644,8,-26,-7,-7,-9,-4,0,3
1570181953697638,3,6,-7,-18,-33,-13,-5,13
1570181953697638,25,1,13,32,45,22,10,10
1570181953719887,8,36,4,-4,-15,-8,0,-24
1570181953719887,5,-8,-4,-6,-8,-5,-3,13
1570181953719887,-36,-15,-4,-7,-4,-9,-1,-1
1570181953719887,-5,-1,-3,-3,-7,5,-1,7
1570181953734539,-12,12,13,13,8,3,1,-3
1570181953734539,-20,-1,4,-2,0,2,0,3
1570181953734539,12,-1,-4,-1,-3,-1,-3,-10
1570181953734539,-15,5,1,1,-2,-5,-3,-10
1570181953756480,-18,-34,-10,-10,-11,1,1,16
1570181953756480,51,16,5,4,3,0,-2,7
1570181953757481,-15,-18,-7,-2,0,-2,-7,-17
1570181953757481,47,41,16,7,11,-3,-3,-13
1570181953779419,-29,-38,-13,-3,-3,-3,8,3
1570181953779419,-6,-2,0,-3,-1,3,0,11
1570181953779419,18,4,-1,1,4,0,3,3
1570181953779419,-38,-18,-4,-5,-10,-7,-8,-28
1570181953794379,18,20,6,-3,-3,-1,-8,9
1570181953794379,-33,-30,-9,-3,-2,-1,-1,-30
1570181953794379,20,9,10,6,8,5,1,-8
1570181953794379,3,-17,-1,1,-4,-5,-6,-8
1570181953816325,11,-6,-3,1,-2,-2,-8,-3
1570181953816325,-31,14,17,7,2,-1,6,-19
1570181953817318,-5,-7,-13,-8,-5,-12,-7,8
1570181953817318,4,-5,-3,0,-1,12,11,46
1570181953839303,-66,-15,-8,-6,-4,-1,-10,-51
1570181953839303,40,3,2,1,-3,0,0,-18
1570181953840256,-33,11,5,1,4,-4,-9,-57
1570181953840256,-10,-15,-3,-4,-8,-17,-11,-15
1570181953854223,13,4,-1,3,2,1,4,27
1570181953854223,8,26,2,-1,-6,-2,-2,25
1570181953855216,-28,-37,2,10,-1,-1,3,25
1570181953855216,57,24,-5,-3,6,0,-4,9
1570181953876162,5,-4,0,-2,-2,5,0,22
1570181953876162,-9,10,-3,-7,-11,-4,4,12
1570181953877338,3,-4,2,7,7,11,8,13
1570181953877338,-43,-5,-5,-2,-3,0,-4,7
1570181953900098,46,5,-1,-2,-5,-3,2,20
1570181953900098,-7,11,10,6,4,-3,-15,-15
1570181953915101,-15,-17,-16,-5,4,5,-2,27
1570181953915101,-19,7,15,1,-4,-1,10,-23
1570181953917095,-2,6,1,-1,2,-4,-16,-21
1570181953917095,-1,-3,-8,-2,-2,-3,2,24
1570181953918052,26,4,1,-3,-6,-1,1,8
1570181953918052,-65,-19,-12,-5,9,0,-4,-20
1570181953936053,-19,-7,3,-1,-2,1,3,3
1570181953936053,18,4,2,-3,1,-1,7,10
1570181953937293,3,6,-10,-12,-15,-2,-4,1
1570181953937293,13,0,6,8,1,1,3,21
1570181953967141,-18,-3,2,-3,-18,6,5,-5
1570181953967141,-3,-16,-9,2,11,-2,-1,-4
1570181953967914,9,19,12,7,7,-6,-6,-7
1570181953967914,-12,-14,-3,0,2,6,-12,14
1570181953973967,11,14,1,3,7,-4,-14,14
1570181953973967,-1,-26,-5,-2,-6,1,-7,10
1570181953974897,3,10,-4,1,4,1,3,32
1570181953974897,39,4,9,2,-5,-5,9,37
1570181953996851,-21,-13,-10,-8,5,4,6,10
1570181953996851,-4,6,-11,-10,-6,0,5,-6
1570181953996851,-10,-22,2,1,8,-1,2,-18
1570181953996851,32,12,-9,-3,-6,-2,-5,4
1570181954018780,-7,-4,4,3,3,-3,6,8
1570181954018780,0,7,-3,-1,1,3,4,-9
1570181954019833,-12,-12,0,0,-3,-3,-20,-14
1570181954019833,17,2,7,-2,-4,-2,-4,-16
1570181954033824,-23,-6,5,5,6,-2,4,19
1570181954033824,-9,-14,-8,-12,-28,-4,0,13
1570181954034736,10,14,4,6,19,3,9,-3
1570181954034736,-8,-8,-6,0,4,3,4,-20
1570181954056756,14,12,5,2,-7,-1,-1,-18
1570181954056756,5,10,0,-6,1,0,-13,-10
1570181954064661,-12,-13,-5,-8,-8,0,-5,-11
1570181954064661,-36,-4,2,1,-1,-2,-6,-21
1570181954079618,25,0,-11,-6,-5,-3,3,20
1570181954079618,1,7,8,3,4,1,3,1
1570181954079618,19,-3,-4,-7,-8,-4,4,1
1570181954079618,-96,-27,-9,-3,12,6,8,-25
1570181954093732,56,47,9,5,-3,-6,3,-4
1570181954093732,-22,-51,-10,-1,0,4,4,-17
1570181954101903,-9,4,6,5,6,2,2,-4
1570181954101903,11,6,-2,-1,-9,-4,4,10
1570181954116715,1,-5,-3,-3,7,0,-1,-12
1570181954116715,23,22,12,5,-1,5,4,16
1570181954117516,-24,-7,-1,-4,-24,1,3,-12
1570181954117516,36,15,2,18,44,-3,-4,5
1570181954139456,-72,-35,-15,-11,2,4,-1,-45
1570181954139456,1,-22,9,3,4,0,-3,10
1570181954139456,21,10,1,4,4,2,-1,-7
1570181954139456,21,15,12,-3,-19,-6,-3,-1
1570181954153424,0,-5,-9,2,2,-1,1,-2
1570181954153424,16,18,11,4,-5,-1,3,9
1570181954169376,-42,-31,-19,-5,5,0,-3,-6
1570181954169376,1,3,7,-12,-23,-1,-1,8
1570181954184338,26,6,8,10,11,3,1,-3
1570181954184338,10,2,-5,2,8,1,2,10
1570181954185720,-3,22,5,3,-5,-4,-1,2
1570181954185720,-10,-2,-7,3,15,1,-3,-14
1570181954199298,-6,-24,-4,-4,-10,-1,-1,6
1570181954199298,5,14,4,-1,4,1,0,-12
1570181954200294,2,3,0,4,-7,0,2,0
1570181954200294,6,1,4,0,-13,-3,-5,-4
1570181954213262,10,2,10,-6,-20,-7,-2,3
1570181954213262,-23,11,-10,-2,12,-6,-12,-42
1570181954221314,20,-12,0,-2,6,4,-1,5
1570181954221314,-25,10,0,-1,-1,1,-4,-21
1570181954244180,30,2,-2,3,1,6,7,-2
1570181954244180,-19,-14,-13,-12,-20,-6,-4,-14
1570181954245479,10,7,9,11,3,1,4,1
1570181954245479,23,-1,2,11,45,6,5,10
1570181954259137,-2,11,4,-6,-9,-2,-3,-17
1570181954259137,-9,2,12,10,13,6,6,-10
1570181954260133,12,-12,-9,-13,-29,-8,-1,16
1570181954260133,8,-17,-7,-2,-9,0,0,23
1570181954273099,-6,7,4,8,11,0,-3,-1
1570181954273099,-30,-7,-2,-2,-2,0,0,-2
1570181954282081,17,25,4,-1,2,-1,-3,-1
1570181954282081,19,-17,-15,-17,-27,-5,3,11
1570181954296046,-6,-8,-5,-5,-5,-2,1,-15
1570181954296046,11,10,5,5,15,3,5,-28
1570181954297036,-20,-9,5,5,13,5,5,-26
1570181954297036,-8,0,-4,-2,4,1,-8,-13
1570181954319033,42,6,-3,-1,1,-1,-2,11
1570181954319033,-44,-23,-2,-3,-10,-6,-8,-16
1570181954319978,4,2,1,5,21,1,2,19
1570181954319978,-1,8,-1,-4,-7,3,9,6
1570181954343911,1,-9,-12,-9,-5,-3,0,9
1570181954343911,-1,6,6,8,5,-1,-3,-42
1570181954344908,4,4,-7,-7,-4,-3,-6,-24
1570181954344908,2,14,-4,-6,-16,-2,2,-8
1570181954356876,-28,-30,6,11,11,-1,-5,-6
1570181954356876,-3,9,-4,-3,-8,-7,0,31
1570181954356876,-5,-6,-3,-6,0,4,-2,1
1570181954356876,20,-4,-1,-6,-17,-1,-1,34
1570181954386799,-72,-2,-3,7,18,0,-2,1
1570181954386799,17,3,-1,1,1,4,2,28
1570181954387793,11,5,1,-1,-1,0,-1,18
1570181954387793,-7,6,9,5,1,-2,-7,-14
1570181954393777,-5,-2,-9,-7,-8,1,4,-3
1570181954393777,12,-19,-8,-4,-1,-4,-7,34
1570181954401758,19,7,2,2,1,-1,-9,12
1570181954401758,-9,-18,-11,-9,-11,-7,-5,-5
1570181954416719,15,19,14,4,0,0,6,22
1570181954416719,2,-4,-4,-1,0,1,2,7
1570181954416719,17,2,0,-2,1,-1,6,11
1570181954416719,30,11,7,7,6,3,-1,-11
1570181954438656,16,-19,-7,-4,-5,0,-4,3
1570181954438656,4,12,-5,-7,-7,-7,-2,-7
1570181954439655,-14,-16,1,4,9,0,3,13
1570181954439655,-48,-22,-3,3,7,9,7,-4
1570181954470050,20,16,-7,-6,-1,-5,-14,-15
1570181954470050,21,4,8,1,-8,-1,-2,-3
1570181954470571,-38,-9,-5,2,6,-3,0,-6
1570181954470571,31,6,-15,-6,0,-8,0,11
1570181954476555,-28,1,34,10,0,4,-3,-14
1570181954476555,-10,2,2,0,-4,2,4,3
1570181954477611,-10,6,0,1,11,-1,-8,-8
1570181954477611,-6,-11,-7,-3,-12,0,1,2
1570181954498498,20,8,-13,-11,-14,-5,0,6
1570181954498498,1,9,0,9,24,-2,-5,-6
1570181954506487,11,23,12,1,-12,7,7,2
1570181954506487,-6,-17,-6,-6,-6,1,3,19
1570181954522433,21,-2,-5,-4,-7,-5,-14,-4
1570181954522433,5,8,1,5,-1,0,4,19
1570181954523430,10,-9,-8,-6,1,-2,2,-4
1570181954523430,-5,-2,6,5,0,1,5,7
1570181954536401,-33,-13,-12,-5,3,0,2,9
1570181954536401,31,12,-4,-4,-4,3,-25,31
1570181954537392,-6,-10,14,4,3,-2,-14,12
1570181954537392,-11,7,1,-5,-9,-4,-3,16
1570181954559334,-14,-4,-6,-1,11,0,9,9
1570181954559334,19,-1,-7,-1,6,4,12,9
1570181954559334,-1,0,-9,-4,-12,-3,7,-1
1570181954559334,-8,1,21,8,8,-5,-3,48
1570181954582439,70,20,-2,2,0,0,10,43
1570181954582439,-38,-22,-1,0,-2,-3,-8,-14
1570181954583409,12,-10,-18,-11,-7,1,7,-9
1570181954583409,-44,-7,4,-2,-6,-3,1,-50
1570181954604216,43,3,-1,5,10,0,-3,-17
1570181954604216,10,3,-1,-6,-15,0,-5,-28
1570181954605212,9,5,0,2,3,-3,-3,-27
1570181954605212,14,16,2,-2,-4,1,-7,-21
1570181954619174,-5,-6,10,4,-2,4,-1,-12
1570181954619174,-10,-11,-3,-1,-3,1,-2,-29
1570181954620172,2,9,8,1,0,-3,-7,-13
1570181954620172,5,-7,-9,-1,-1,0,9,-1
1570181954642119,11,14,1,-4,-8,-2,0,-18
1570181954642119,-45,-25,-10,-10,1,-6,5,-7
1570181954643111,4,8,5,5,6,5,3,7
1570181954643111,-13,-2,2,1,5,5,-1,-11
1570181954672032,-11,-3,-1,2,3,-2,-3,-16
1570181954672032,34,6,1,-1,-1,1,7,18
1570181954673036,-20,1,0,3,-7,-6,-2,-6
1570181954673036,4,0,-5,-6,-4,-2,-2,15
1570181954679018,-15,-5,1,0,0,2,1,12
1570181954679018,6,5,-3,-1,2,1,7,21
1570181954680013,14,13,-4,-4,-1,-2,4,24
1570181954680013,6,-10,7,6,4,-2,-4,-17
1570181954702188,-39,-9,5,5,-4,1,3,14
1570181954702188,16,7,-8,-15,-30,-5,-1,-12
1570181954702949,28,-18,-6,8,32,2,-2,-3
1570181954702949,-10,1,-9,2,7,-2,-4,-8
1570181954724957,-7,-4,5,1,0,2,1,5
1570181954724957,15,10,2,-3,-20,-4,-1,0
1570181954725893,-8,-8,-10,-11,-7,-1,2,12
1570181954725893,12,8,4,10,19,-3,-4,-19
1570181954746833,-3,6,1,-4,1,0,-4,-18
1570181954746833,11,16,7,12,21,7,5,12
1570181954747854,-15,-16,-1,-7,-27,-6,-4,-4
1570181954747854,4,4,0,2,10,4,2,4
1570181954761796,-25,-2,-10,-15,-18,-3,-3,-13
1570181954761796,4,-10,-2,3,14,2,2,5
1570181954762793,17,23,-3,-3,-15,-6,-8,-4
1570181954762793,1,-2,-6,-4,2,7,3,5
1570181954776760,35,0,-3,-1,0,-6,-4,11
1570181954776760,-18,-3,9,9,11,2,-4,0
1570181954776760,-3,7,2,-5,-7,-6,-5,-19
1570181954776760,0,-2,-2,-4,-7,-2,0,2
1570181954798697,2,10,-5,1,6,3,2,8
1570181954798697,-38,-30,-5,-8,-7,0,-1,-7
1570181954799696,-14,7,10,7,11,-2,-2,-8
1570181954799696,54,3,-7,-5,-7,-1,-3,13
1570181954838587,-72,-30,-4,-1,12,-2,1,5
1570181954838587,29,6,-4,-3,-2,-3,-7,-25
1570181954839585,-24,-13,-1,-1,-1,4,-1,1
1570181954839585,17,24,9,2,-12,-9,-5,-11
1570181954840588,6,-13,-12,-8,-11,-2,2,9
1570181954840588,-17,1,5,6,2,1,11,15
1570181954851557,-12,6,8,6,7,2,11,4
1570181954851557,13,0,-7,-6,-2,0,0,-14
1570181954860597,-20,-5,0,-2,-3,1,0,-21
1570181954860597,1,19,5,6,-1,-3,-1,2
1570181954861527,-3,-1,-5,-5,0,4,4,10
1570181954861527,-13,-29,-6,-1,4,-1,-4,3
1570181954882469,3,6,11,14,-1,-1,-4,-5
1570181954882469,7,-5,0,0,14,5,4,4
1570181954882469,-39,-9,-1,-5,-5,1,3,-5
1570181954882469,11,0,-7,-5,9,0,0,-6
1570181954895440,47,31,-7,0,-7,-4,2,-12
1570181954895440,-5,-8,9,-8,-20,-5,-6,11
1570181954905412,24,3,-5,-7,-7,-8,2,1
1570181954905412,-16,3,15,17,18,7,-2,-7
1570181954919371,1,-9,-8,-6,-2,0,1,-8
1570181954919371,-19,-12,-16,-5,-5,-1,7,-2
1570181954919434,-4,9,10,6,0,2,-6,-20
1570181954919434,6,-13,-8,-6,-9,0,0,-3
1570181954942317,1,2,0,0,1,-4,-3,-12
1570181954942317,3,6,4,4,15,2,2,-13
1570181954943309,12,-10,-6,-2,-1,1,-2,-1
1570181954943309,-2,-1,-8,-13,-19,-4,-4,-18
1570181954964437,-12,-1,13,14,12,0,-4,-3
1570181954964437,13,-5,-18,-20,-17,-11,-7,13
1570181954965248,8,-5,-5,-1,4,3,-3,-6
1570181954965248,1,17,9,4,-3,2,-3,-35
1570181954979219,8,-9,-5,-5,-4,0,-4,-4
1570181954979219,-10,-9,-4,-5,-4,-5,-8,3
1570181954980210,28,3,2,-1,-5,1,0,27
1570181954980210,-22,-2,8,1,-1,-2,-3,16
1570181955002154,-5,-2,-1,-4,-11,-2,-1,14
1570181955002154,8,6,1,7,9,5,-1,7
1570181955003147,-7,-3,-4,-6,-11,-3,0,20
1570181955003147,-12,-1,-1,5,11,-1,-2,12
1570181955016112,1,4,3,4,4,4,-1,6
1570181955016112,-13,1,6,5,6,3,-1,12
1570181955017115,-3,-3,-1,1,-4,-2,-4,-6
1570181955017115,14,1,-6,-8,-5,1,3,7
1570181955039056,-6,-5,0,-2,2,1,0,9
1570181955039056,-1,-1,-6,-2,-4,-1,4,11
1570181955046033,15,-5,0,2,2,0,1,4
1570181955046033,2,4,1,1,-1,0,-4,3
1570181955061995,22,2,-1,-1,1,2,-1,17
1570181955061995,23,10,7,5,2,-3,3,1
1570181955063317,-20,-3,-2,-3,3,9,0,1
1570181955063317,-13,-2,-1,0,-1,0,2,12
1570181955075956,-30,-3,1,1,-8,-3,-1,3
1570181955075956,-4,2,1,0,4,2,1,2
1570181955084031,-4,0,-1,3,-2,-1,0,10
1570181955084031,-2,-2,-3,-4,-1,-5,-1,21
1570181955098897,-3,1,0,1,0,-5,4,49
1570181955098897,-19,-7,0,6,28,14,8,62
1570181955099889,3,2,-3,-1,-4,-6,-3,115
1570181955099889,-9,0,2,1,-5,3,18,72
1570181955120834,2,-6,-10,-6,-4,-2,-17,15
1570181955120834,-6,1,8,3,-4,-2,-26,-3
1570181955128925,8,7,4,3,6,2,-22,74
1570181955128925,-2,0,-7,-4,-4,-1,3,111
1570181955135794,15,6,0,3,6,0,8,127
1570181955135794,8,9,2,-1,-4,-2,6,124
1570181955143774,-32,-19,6,3,6,4,-1,-34
1570181955143774,40,9,-3,-3,-6,-2,-11,-92
1570181955158736,-42,-13,-4,-7,3,2,-4,-128
1570181955158736,-9,2,2,3,-1,4,17,-128
1570181955159739,19,12,8,2,0,-2,10,-122
1570181955159739,-72,-25,-7,-7,-8,-11,-15,-109
1570181955182128,-3,-7,2,-1,2,-2,-18,-108
1570181955182128,2,6,6,0,-6,-3,0,-86
1570181955188655,78,52,-4,-3,0,0,38,-65
1570181955188655,-36,-47,1,5,1,1,-14,-57
1570181955195636,32,-5,1,3,1,2,14,-39
1570181955195636,-15,-10,-8,-9,-10,-7,1,-33
1570181955203614,14,-5,-9,-10,-2,-3,-2,-33
1570181955203614,18,27,10,7,5,3,6,-19
1570181955218580,-5,-1,0,-6,0,3,9,-9
1570181955218580,4,-4,-3,2,0,1,2,-16
1570181955219767,-41,-9,2,-1,1,3,-12,-15
1570181955219767,-1,4,-3,0,-2,4,6,1
1570181955242661,0,-4,-5,-2,-2,-1,9,-1
1570181955242661,-4,-8,-4,-9,-6,8,37,-11
1570181955243505,-4,-1,-2,4,1,-1,-6,-3
1570181955243505,14,9,2,1,-2,-11,-26,3
1570181955255475,18,8,2,1,-2,-9,-15,-4
1570181955255475,-5,-1,-2,-3,-4,-8,-10,-6
1570181955264453,-14,-11,-13,-6,0,-2,-16,0
1570181955264453,34,20,28,15,16,11,20,0
1570181955279408,-60,-25,-10,-7,-13,-1,20,-3
1570181955279408,-7,-12,4,6,-4,-13,-36,-1
1570181955279408,-20,-12,-7,-1,-3,-4,-4,0
1570181955279408,-6,-1,-14,-15,-8,-6,13,-49
1570181955302605,37,19,8,5,8,7,0,13
1570181955302605,16,2,-3,-2,2,1,6,-4
1570181955303345,-17,-3,6,5,0,5,16,-11
1570181955303345,5,7,-7,-9,-5,8,30,-1
1570181955316313,-11,-8,3,1,0,-8,-36,-55
1570181955316313,2,-1,-9,-8,-11,7,-42,-49
1570181955324288,24,11,7,6,3,-25,-12,-39
1570181955324288,-41,-22,-6,2,-2,0,8,-38
1570181955339369,9,4,-2,3,-2,7,37,-33
1570181955339369,3,3,2,3,1,4,19,17
1570181955339369,-2,0,0,-5,-1,5,-15,-18
1570181955339369,42,22,8,7,5,8,6,8
1570181955362195,18,18,-5,-6,-8,-8,-13,4
1570181955362195,-9,-4,20,17,10,1,-3,-19
1570181955364183,-23,-41,2,4,5,6,10,0
1570181955364183,47,16,-10,-4,1,-2,-4,7
1570181955376410,-51,-4,-3,-4,0,2,-5,-5
1570181955376410,-13,-6,-10,-16,-11,-7,-5,-23
1570181955385125,28,36,16,14,9,8,22,48
1570181955385125,-17,-44,-19,-11,-9,-13,-26,15
1570181955398094,6,5,2,-1,4,1,-5,2
1570181955398094,7,8,-7,-10,3,10,20,31
1570181955407076,-27,-7,-6,-1,-12,-4,-19,-24
1570181955407076,9,6,0,-3,19,1,-1,32
1570181955422028,34,13,9,10,3,16,7,51
1570181955422028,-9,-5,-2,2,-12,-22,4,-5
1570181955424023,17,-4,-8,-9,2,16,3,10
1570181955424023,-3,12,9,4,-3,-2,-1,17
1570181955444965,-11,-16,-2,-3,3,8,7,-16
1570181955444965,-3,1,0,2,6,2,-15,-2
1570181955446119,10,7,-3,0,-8,-9,-1,12
1570181955446119,-41,-7,2,6,-4,-7,0,-9
1570181955458692,-28,-19,-10,-11,-6,-9,-9,-19
1570181955458692,16,10,-3,-1,1,8,1,38
1570181955467490,8,13,4,3,-1,-9,-5,-7
1570181955467490,21,5,-5,1,1,8,3,-10
1570181955481872,-9,-19,-2,-1,-3,-5,-4,22
1570181955481872,-36,-14,1,3,3,-2,-5,-13
1570181955483862,-10,-5,-7,-9,-3,2,5,-9
1570181955483862,27,20,5,-2,-5,-5,-17,55
1570181955504811,-3,1,4,5,3,-1,5,-58
1570181955504811,21,10,-4,-2,-3,-4,0,-5
1570181955506800,-18,-9,-1,-1,-1,2,-1,5
1570181955506800,-25,-12,1,1,-10,-2,10,-28
1570181955518767,13,8,0,-1,5,5,12,13
1570181955518767,-1,-1,3,5,11,17,14,36
1570181955527869,-4,-4,-5,-5,-12,-11,5,12
1570181955527869,-5,-7,-5,-11,-17,-21,-3,2
1570181955542711,5,4,3,0,0,-13,-13,18
1570181955542711,24,6,5,4,1,8,-19,23
1570181955543842,-10,-9,-2,-2,1,-15,-18,-24
1570181955543842,-10,-2,-1,2,1,-1,-10,-4
1570181955564646,14,4,0,-1,-2,0,4,19
1570181955564646,-1,-5,-4,-4,-2,22,25,-17
1570181955566640,4,2,2,2,1,-13,-8,-33
1570181955566640,-28,-7,-2,-3,-2,6,-8,-53
1570181955578609,9,6,-1,-1,0,-6,-12,-11
1570181955578609,3,-2,-2,-1,1,0,-4,-7
1570181955587590,-12,-7,-3,-5,1,9,0,-1
1570181955587590,0,0,3,4,3,-3,7,39
1570181955602548,16,12,1,-1,-1,2,6,-23
1570181955602548,-33,-13,-5,-4,-3,-7,6,-65
1570181955603750,13,5,2,0,-3,-13,-3,64
1570181955603750,-9,-6,0,1,2,10,7,31
1570181955623580,10,-2,-4,-1,-4,-9,-3,19
1570181955623580,20,21,1,-1,-1,-6,-4,21
1570181955632466,-8,-8,-2,-1,1,6,3,-25
1570181955632466,5,3,3,3,3,2,4,3
1570181955638453,-1,-5,2,3,6,9,-9,29
1570181955638453,9,-2,1,3,-2,-12,-5,14
1570181955647426,-2,-3,-2,-1,1,12,1,-1
1570181955647426,1,-2,-1,0,0,-5,-7,-21
1570181955662385,-5,-1,-3,-2,-4,-8,-1,-4
1570181955662385,12,4,-1,-2,-1,5,-5,8
1570181955664379,3,0,-1,-1,0,8,3,2
1570181955664379,-6,-1,0,1,1,0,-3,-25
1570181955683461,-10,-1,1,0,-1,-1,-2,-15
1570181955683461,-7,-3,-3,-3,-4,-16,-8,-24
1570181955692391,-18,-14,-5,-5,-6,5,11,-45
1570181955692391,5,5,-2,-5,-2,-7,-10,-1
1570181955698291,1,5,4,3,-3,0,1,1
1570181955698291,0,-2,3,3,-1,-4,-9,7
1570181955707265,-7,-4,-1,0,-2,-10,-5,-3
1570181955707265,-4,-4,-2,0,6,14,5,-4
1570181955722224,-3,0,0,-2,-2,-8,0,-4
1570181955722224,-1,-2,-2,-1,-2,-2,6,-3
1570181955724220,7,1,-1,-1,-1,0,-3,15
1570181955724220,-3,0,-1,1,1,2,-3,4
1570181955744167,3,-2,0,1,2,3,3,20
1570181955744167,6,2,0,0,2,16,1,4
1570181955746160,4,3,0,1,3,-4,-2,24
1570181955746160,2,0,1,-2,-2,-7,0,6
1570181955758132,3,-2,-1,0,-1,2,5,6
1570181955758132,2,-4,0,0,0,-12,-4,11
1570181955767106,-1,1,1,1,1,4,-4,3
1570181955767106,-3,-2,-2,1,0,3,6,-5
1570181955782143,-8,-3,-1,0,1,1,0,1
1570181955782143,15,2,1,0,-1,-5,-2,16
1570181955784062,-10,-2,0,1,2,3,-3,-11
1570181955784062,21,6,-2,-2,-2,-2,4,28
1570181955805005,3,-1,-4,-2,-2,1,1,1
1570181955805005,0,3,2,2,0,-5,-20,9
1570181955806002,2,1,1,1,1,-4,-8,14
1570181955806002,-12,-2,-2,-1,-3,4,0,-13
1570181955819330,11,0,-1,-1,1,2,4,22
1570181955819330,-6,-4,-1,-1,-1,4,5,-6
1570181955826032,-1,1,-1,-3,-3,-3,9,-14
1570181955826032,8,1,1,1,1,1,-2,51
1570181955842155,2,1,-1,-2,-1,3,-3,1
1570181955842155,-5,-3,-1,-1,0,0,1,-7
1570181955843900,3,0,0,0,0,6,5,7
1570181955843900,-5,-6,-2,1,0,-1,1,-20
1570181955864847,-3,4,3,3,3,1,-5,-8
1570181955864847,-19,-12,-7,-5,-1,-5,3,9
1570181955865997,32,18,1,-2,-3,-2,-4,9
1570181955865997,-14,-7,-1,-3,0,3,13,-17
1570181955878181,-2,-4,0,1,1,-2,-5,-11
1570181955878181,8,8,-1,-2,-2,-6,-1,-11
1570181955887782,-7,-5,-2,0,1,1,-2,6
1570181955887782,-5,-3,-2,-3,-3,-2,0,-13
1570181955901750,-1,-3,0,-2,-1,-3,1,7
1570181955901750,-15,-8,-1,0,-2,2,6,-30
1570181955903740,7,3,-2,-3,-1,-4,2,0
1570181955903740,8,3,2,2,2,2,-3,14
1570181955925111,-3,-2,-1,-2,-2,0,2,4
1570181955925111,-5,-8,-1,0,-1,-3,1,2
1570181955926680,-7,-2,1,2,5,3,-2,-17
1570181955926680,10,3,0,-1,1,17,4,2
1570181955938646,0,5,2,1,2,1,-1,8
1570181955938646,12,2,-2,-4,-6,-8,-2,4
1570181955947623,-12,-9,-5,-3,-1,2,12,-7
1570181955947623,3,0,2,1,-1,-1,-13,-28
1570181955962586,-31,-19,-7,-2,-3,5,9,-20
1570181955962586,-20,-2,0,0,2,4,13,4
1570181955963580,-11,-4,1,0,-1,3,-4,-2
1570181955963580,3,0,-3,-3,-2,-7,1,-30
1570181955984661,6,-2,-1,0,0,6,4,14
1570181955984661,15,10,-1,-3,-1,-9,2,8
1570181955986519,9,5,2,2,0,15,3,24
1570181955986519,17,14,0,-1,3,9,17,0
1570181955998485,-5,-11,-3,-2,2,-3,-5,-14
1570181955998485,20,3,1,2,-4,-1,-11,21
1570181956007553,41,6,-2,-2,-6,-28,-8,-2
1570181956007553,-103,-44,2,4,1,5,0,8
1570181956022518,62,26,-2,-4,-3,-2,1,3
1570181956022518,13,4,3,0,3,6,1,-25
1570181956023420,10,5,0,-1,-1,1,-2,17
1570181956023420,4,0,3,2,4,7,-2,11
1570181956044368,-12,8,0,-4,-7,-18,-9,-12
1570181956044368,-38,-13,-3,0,-2,-1,-4,-33
1570181956046482,-4,0,0,-1,0,0,4,18
1570181956046482,10,4,-4,-4,1,11,-3,-3
1570181956058324,-18,-9,0,0,-1,-11,-4,4
1570181956058324,33,9,-1,-1,-2,-2,-3,9
1570181956067302,-20,-3,2,2,-1,2,-1,-17
1570181956067302,4,-12,-8,-5,-3,-8,-7,3
1570181956082266,2,17,10,4,1,-7,-21,25
1570181956082266,2,-19,-9,-4,1,11,-1,10
1570181956084257,-2,2,1,0,-4,-11,-4,-6
1570181956084257,-1,4,4,3,-1,-9,-7,-3
1570181956105301,-14,-7,-5,-1,0,-19,1,-14
1570181956105301,5,7,4,1,-8,0,9,15
1570181956106198,-12,-14,-4,-3,2,7,-1,16
1570181956106198,39,18,0,-2,-2,-8,3,13
1570181956118172,-8,-11,-3,1,0,2,3,0
1570181956118172,-9,1,3,1,7,13,-4,2
1570181956127141,19,8,-1,-3,-3,-8,2,-5
1570181956127141,-4,4,1,2,-2,-11,-7,-4
1570181956142147,-2,-13,-4,-2,1,10,10,19
1570181956142147,4,4,-2,0,1,0,-2,2
1570181956144098,-11,-2,-1,-2,2,16,-4,-19
1570181956144098,-2,-7,0,0,-3,-9,-4,-3
1570181956172020,12,17,-2,-3,3,16,1,-6
1570181956172020,-1,0,1,2,-3,-21,2,-3
1570181956174016,-7,-5,-1,-3,0,18,5,-11
1570181956174016,8,-3,-1,-1,-2,-6,-18,10
1570181956178005,4,-4,-2,0,-7,-9,5,-13
1570181956178005,5,5,3,1,4,4,0,2
1570181956187199,-21,-6,-1,-1,-4,-35,-8,-8
1570181956187199,14,5,-1,-2,-3,-7,-4,-9
1570181956201941,10,2,0,-3,-3,-6,3,7
1570181956201941,-7,-3,0,-1,5,9,-5,6
1570181956204214,3,-1,0,1,1,4,1,11
1570181956204214,0,1,-1,-1,2,7,5,-3
1570181956224880,5,1,1,0,-1,-2,-5,-8
1570181956224880,-1,-1,0,1,-2,-4,3,3
1570181956225927,2,-3,-2,-1,0,6,1,5
1570181956225927,12,8,0,1,-3,-4,4,1
1570181956237880,8,0,-2,-2,-3,3,-1,4
1570181956237880,-12,-6,-2,-3,-1,-1,0,1
1570181956246820,-2,-5,0,2,1,2,1,1
1570181956246820,23,11,0,0,-5,-5,-5,-4
1570181956261824,-6,-7,0,0,0,4,-1,-2
1570181956261824,-2,4,-3,-3,-1,-4,-5,-7
1570181956263777,-3,-2,-1,-2,-2,-4,-2,10
1570181956263777,-12,-5,-2,-3,1,6,5,-2
1570181956284820,-7,-3,-1,2,2,14,2,2
1570181956284820,2,0,1,0,-5,-12,-5,-2
1570181956286584,-8,-4,-2,-2,-2,13,1,-15
1570181956286584,-15,-7,-2,-2,0,-5,-3,-6
1570181956298822,14,4,1,-1,2,8,3,3
1570181956298822,-9,-5,-3,-2,-2,-10,-3,1
1570181956307765,-11,1,0,4,1,-3,-4,-9
1570181956307765,20,9,-2,-4,-2,0,0,4
1570181956322459,-18,-6,0,0,-1,-4,-2,-8
1570181956322459,1,1,0,-1,1,4,1,3
1570181956324295,4,-4,-3,1,1,-1,-1,-4
1570181956324295,-18,-5,0,1,-1,-4,1,-2
1570181956344524,5,4,-1,-1,1,4,-1,-3
1570181956344524,-4,-4,-1,0,1,1,3,6
1570181956346513,12,4,2,0,0,-2,1,6
1570181956346513,-4,-9,-6,-5,-5,-1,7,-26
1570181956367555,11,10,0,0,-2,-20,-8,-2
1570181956367555,-30,-28,-5,-1,4,20,1,3
1570181956368548,-16,2,-3,-4,-13,-23,-7,2
1570181956368548,5,6,7,6,4,7,6,9
1570181956382399,-13,-11,-9,-6,-5,-11,-9,3
1570181956382399,15,8,-2,-1,2,4,3,4
1570181956383448,-3,-1,-1,-2,-5,0,4,-3
1570181956383448,-1,-4,0,0,1,-3,-6,3
1570181956404638,10,7,3,-1,-2,-1,5,4
1570181956404638,-56,-24,0,2,-2,6,-5,-12
1570181956406483,10,1,3,-1,1,4,3,-3
1570181956406483,49,27,1,1,4,0,2,23
1570181956427477,-40,-24,-7,-6,-5,9,-1,-9
1570181956427477,5,11,2,-1,-8,-21,-4,-13
1570181956428473,7,1,2,2,3,10,5,3
1570181956428473,-48,-24,-2,-1,-2,4,-1,-3
1570181956441455,15,7,3,2,3,-3,-2,-5
1570181956441455,35,12,-1,-1,0,-6,-1,7
1570181956450206,-28,-8,-6,-4,-1,3,-9,4
1570181956450206,9,1,0,2,-2,-11,-4,3
1570181956465225,8,5,3,0,7,8,2,-4
1570181956465225,0,-1,0,-3,-1,18,4,-6
1570181956466826,56,18,4,2,1,-28,-3,17
1570181956466826,-70,-25,-7,-5,-1,13,0,-21
1570181956487708,82,50,9,3,-1,-21,2,14
1570181956487708,-61,-63,-10,-2,1,8,-8,-22
1570181956488355,6,-6,-7,-5,-7,-17,-7,6
1570181956488355,35,20,6,3,6,11,9,14
1570181956501812,-43,-22,-4,-1,-12,-7,-5,-18
1570181956501812,37,31,6,2,8,-3,-1,10
1570181956508766,6,10,3,2,2,0,-1,-11
1570181956508766,-15,-17,-2,0,0,-4,-2,2
1570181956524664,9,6,1,0,0,6,2,8
1570181956524664,25,16,0,-1,-4,-9,-1,5
1570181956526660,-31,-17,-2,-1,3,18,0,-5
1570181956526660,17,10,-3,-2,-7,-15,-15,19
1570181956548361,-6,-14,-6,-1,0,2,-4,-5
1570181956548361,9,11,0,-1,0,2,5,-2
1570181956553154,1,-8,-1,3,0,2,2,14
1570181956553154,-34,-1,-3,-1,2,-5,-7,-18
1570181956561845,9,-1,-2,-2,-2,1,6,19
1570181956561845,-3,-2,-2,1,-5,-16,-5,-1
1570181956568319,9,9,1,0,2,10,3,-11
1570181956568319,32,17,3,1,2,9,4,-3
1570181956585276,-57,-32,-5,-2,-2,-6,-5,-7
1570181956585276,29,16,-1,-3,-2,9,2,-3
1570181956586066,-33,-13,-3,0,-4,9,11,-7
1570181956586066,-8,-11,-3,-1,-1,-6,-2,-2
1570181956607113,-9,-4,2,3,5,9,0,3
1570181956607113,46,34,1,-1,-4,-12,-3,3
1570181956609001,-5,-8,-3,-3,-2,-2,-1,-4
1570181956609001,3,-1,-1,-2,-1,1,1,0
1570181956621967,-13,-2,2,0,-1,-5,-1,-25
1570181956621967,-15,-11,0,1,2,-2,-1,3
1570181956628949,12,8,-1,-1,2,-1,-6,-5
1570181956628949,-4,-2,-2,-2,-1,-4,3,0
1570181956645904,5,1,-1,0,-1,7,2,-1
1570181956645904,-6,-2,0,0,-2,0,0,3
1570181956646900,-2,1,-1,0,1,-1,0,-6
1570181956646900,7,0,0,2,-2,-2,-3,-16
1570181956667247,1,2,0,4,21,16,3,7
1570181956667247,-4,-1,1,3,7,5,2,6
1570181956670600,6,1,1,-2,-22,-10,0,5
1570181956670600,1,-3,-4,-6,-4,-4,-2,1
1570181956682149,6,3,-2,-6,-29,-13,-3,0
1570181956682149,-14,-6,-1,-2,0,-5,-2,-11
1570181956690167,6,2,0,0,12,2,-1,9
1570181956690167,3,-1,0,2,4,6,1,5
1570181956704749,-1,-1,-1,1,8,-11,-2,10
1570181956704749,-2,1,2,2,1,1,-1,-9
1570181956705743,1,1,1,0,2,3,0,-2
1570181956705743,2,2,-1,1,1,2,3,-2
1570181956727685,3,-1,-1,-1,3,7,-3,3
1570181956727685,-4,-3,-1,0,-6,-2,-1,3
1570181956728716,1,3,2,1,1,-2,-7,-14
1570181956728716,-3,0,0,-2,1,0,-4,-3
1570181956741646,-1,0,-2,0,-1,2,1,1
1570181956741646,1,-1,-3,-3,-5,-3,3,5
1570181956748041,2,-1,-1,1,4,-17,-7,1
1570181956748041,5,3,2,2,6,27,17,3
1570181956764694,8,2,0,-4,-3,9,3,28
1570181956764694,-6,-6,-5,-6,-10,-2,-6,-15
1570181956766579,-1,2,4,2,5,-1,5,-5
1570181956766579,5,-1,-1,-2,-6,-8,-4,19
1570181956803481,-2,2,1,3,-4,-11,-5,-21
1570181956803481,-2,-4,-3,-4,3,2,-5,2
1570181956805507,-10,-3,-4,-2,-2,7,5,-8
1570181956805507,-8,-2,0,-1,-7,-14,-16,-24
1570181956805905,-3,-2,-1,-1,6,14,19,-16
1570181956805905,-1,-1,0,-1,-3,-1,6,-5
1570181956809499,-2,3,1,0,0,-2,-9,-3
1570181956809499,11,0,1,-1,0,-7,-4,17
1570181956824618,-6,-2,-4,-2,-2,-1,-5,-10
1570181956824618,-2,0,0,2,1,-3,7,3
1570181956826450,-1,-3,-2,-2,-2,0,2,1
1570181956826450,-4,-2,-1,-1,1,5,2,-13
1570181956847543,4,1,-1,-1,0,-1,-6,4
1570181956847543,0,-1,1,0,-1,-2,-2,6
1570181956848394,2,0,-2,-3,2,9,-1,6
1570181956848394,-6,-3,-3,-2,-2,-6,-3,-8
1570181956861363,-2,-1,2,-1,1,0,3,-2
1570181956861363,-3,0,-2,2,1,-2,-1,8
1570181956870334,1,-3,-1,-1,-1,-3,-9,-2
1570181956870334,2,-1,-3,0,-2,4,6,14
1570181956885299,0,-1,-1,-3,-2,-13,-2,2
1570181956885299,-1,0,0,2,1,3,2,1
1570181956886298,0,-1,-2,0,-1,2,3,2
1570181956886298,0,-1,0,0,-2,-4,-2,-3
1570181956907235,1,0,-2,-1,-1,5,2,7
1570181956907235,2,0,1,0,-1,-1,1,2
1570181956909232,-1,-1,-1,-1,-1,-1,-5,-1
1570181956909232,-2,0,-1,-1,0,-2,-2,-3
1570181956921200,-3,0,-2,0,-1,5,-2,-13
1570181956921200,-1,0,0,0,0,5,-2,-4
1570181956930175,-1,-1,-2,-3,-4,-12,-1,4
1570181956930175,-1,-1,0,0,0,-3,2,8
1570181956945143,3,-1,-2,-2,-1,-2,-3,9
1570181956945143,0,0,-2,-2,-1,-3,-3,8
1570181956946133,-8,0,1,0,0,3,-4,-22
1570181956946133,1,-3,-5,-4,-2,2,2,-4
1570181956967079,3,2,2,1,-3,-6,-1,8
1570181956967079,-1,-1,-1,1,-1,0,-1,6
1570181956969072,2,-1,-2,-1,0,1,7,8
1570181956969072,-3,-2,-1,-1,-1,-3,-4,-5
1570181956990015,-6,0,1,1,0,3,-4,-10
1570181956990015,2,0,-1,-2,0,-2,-1,2
1570181956991058,1,-3,-2,-2,0,3,0,-1
1570181956991058,0,0,2,1,-1,2,3,-1
1570181957004985,-3,0,-3,-3,-3,-10,-4,-1
1570181957004985,4,2,0,1,2,-2,0,2
1570181957005972,-1,0,0,0,1,0,0,-7
1570181957005972,-1,1,2,0,-1,-1,-2,-3
1570181957027540,-2,-3,0,0,-1,3,0,-1
1570181957027540,-4,-2,0,0,-2,-1,-4,-9
1570181957029000,3,0,-3,-1,-1,-2,1,12
1570181957029000,4,0,-1,-2,-1,3,1,1
1570181957040877,-2,0,-1,0,2,1,-1,-1
1570181957040877,-6,-1,-3,0,-1,-4,-4,-7
1570181957049854,6,1,-1,-1,0,10,5,5
1570181957049854,-3,1,1,1,1,-4,-1,-1
1570181957064814,5,-3,0,-1,0,-3,0,-5
1570181957064814,-1,-2,-1,-2,-2,-2,-3,-9
1570181957065861,-3,0,2,0,0,3,0,-5
1570181957065861,-1,1,-1,-2,-3,8,4,1
1570181957086760,1,-1,-2,0,3,-25,-10,-3
1570181957086760,1,1,1,-1,-2,-3,1,0
1570181957088750,0,-2,-1,-2,-3,-8,-7,-1
1570181957088750,1,-2,-2,1,2,13,8,6
1570181957101721,-4,-2,-1,-1,1,13,1,0
1570181957101721,-1,-1,-2,0,0,-2,-2,2
1570181957109695,0,-1,-2,-1,1,-5,-3,5
1570181957109695,4,0,-1,-2,0,-8,-2,11
1570181957124661,0,0,0,0,-1,20,1,-6
1570181957124661,-1,-1,-1,1,2,-7,0,6
1570181957126737,-1,1,0,0,-1,3,4,-2
1570181957126737,-4,-1,-1,-1,-1,-6,0,-5
1570181957147680,-2,-1,0,1,-2,-1,-12,-1
1570181957147680,-1,0,0,-2,-2,7,1,-5
1570181957149197,-1,1,-1,1,0,0,-1,-1
1570181957149197,-1,-1,-1,-1,-2,-8,-4,-3
1570181957160607,-2,-1,-1,-3,0,-4,5,2
1570181957160607,-2,-1,0,0,-1,-1,-1,-1
1570181957169535,7,-1,-3,-1,0,-1,0,6
1570181957169535,-5,0,-1,0,1,-1,2,6
1570181957184494,2,0,-1,0,-2,0,-1,-8
1570181957184494,-2,-1,-2,-1,0,3,-1,0
1570181957186513,-1,0,1,-2,3,4,3,-2
1570181957186513,-2,0,1,1,1,4,4,-4
1570181957207435,1,0,2,0,0,0,15,-8
1570181957207435,-1,0,0,-1,1,-1,-9,-4
1570181957208430,-4,-2,0,-1,-1,-1,-1,-4
1570181957208430,0,-1,0,-2,0,4,-2,-5
1570181957220398,-5,0,0,2,0,14,7,3
1570181957220398,1,0,-1,1,1,-12,-2,-2
1570181957229518,0,0,-1,-1,-2,1,-1,5
1570181957229518,-2,-2,-2,0,-3,-7,-5,-5
1570181957244872,2,-1,-1,0,-2,1,0,12
1570181957244872,1,-1,0,-1,-1,5,2,4
1570181957246329,-1,-2,-2,-1,-1,-2,-3,-3
1570181957246329,0,0,-2,-1,-1,-8,-2,2
1570181957267400,-3,-2,0,0,1,-4,-5,-13
1570181957267400,3,0,-1,1,-1,1,-5,15
1570181957268549,-2,-1,-1,-1,-1,-5,2,-2
1570181957268549,2,-1,0,0,-1,3,0,-2
1570181957289216,3,1,-1,-1,-1,-2,-5,12
1570181957289216,-6,-3,-2,-2,0,1,4,-8
1570181957291208,1,0,0,-1,0,2,1,1
1570181957291208,1,-1,-2,0,3,11,0,2
1570181957305238,-2,0,-2,2,1,-8,-1,-2
1570181957305238,2,-1,1,-2,-1,0,4,-1
1570181957306168,-2,-3,0,-1,-2,1,0,2
1570181957306168,-1,-2,-1,-1,-3,-6,-3,-6
1570181957327409,2,0,1,-1,-4,0,-2,7
1570181957327409,-3,0,1,1,0,3,-1,-6
1570181957329107,0,-1,0,-1,1,1,-3,-7
1570181957329107,-2,-1,-1,0,-1,-7,-3,-5
1570181957350169,0,-2,-3,-1,-1,-1,0,8
1570181957350169,-3,-2,-1,-1,-2,-2,-1,-5
1570181957351049,-1,-1,-1,0,-3,-2,0,-6
1570181957351049,3,0,-1,0,0,-2,2,16
1570181957365053,-1,-1,0,-2,-1,-1,-1,-2
1570181957365053,-2,-2,-2,0,0,2,12,-11
1570181957366010,-1,-2,0,0,0,-3,-8,0
1570181957366010,-1,-1,0,-2,-4,-4,-3,-6
1570181957387267,1,0,1,-1,0,-7,-2,0
1570181957387267,1,0,-1,0,-1,1,1,1
1570181957388994,-2,-2,0,0,-2,-1,1,-3
1570181957388994,2,-1,0,-1,-1,2,-2,1
1570181957409889,0,0,-2,0,-3,-4,-5,3
1570181957409889,-3,-2,0,-2,2,1,1,-1
1570181957410998,6,2,1,2,-1,-3,1,8
1570181957410998,-1,-1,-3,0,-1,-1,-5,4
1570181957424856,0,1,-2,-1,0,0,3,10
1570181957424856,-1,0,-1,0,-1,-2,-2,1
1570181957430880,-4,0,1,1,1,3,-1,0
1570181957430880,-3,-3,0,-2,-1,-7,2,-6
1570181957446911,-2,0,0,1,0,-4,0,-3
1570181957446911,-2,-1,0,-1,-1,-1,-4,-4
1570181957448789,1,-1,-3,-1,-3,-3,1,7
1570181957448789,-7,-2,-2,-2,-3,3,13,-22
1570181957469739,1,0,-2,0,0,3,-1,0
1570181957469739,0,-1,1,1,-1,-2,0,8
1570181957470730,-2,-1,0,-1,1,2,0,-10
1570181957470730,-2,-1,1,-1,0,1,-1,-4
1570181957483697,0,-1,-1,0,0,3,1,-1
1570181957483697,3,0,-2,0,-1,1,2,8
1570181957490786,-6,-2,-1,-1,-1,-4,-2,-13
1570181957490786,4,1,-1,1,2,3,0,19
1570181957507635,-7,-2,-1,-2,0,-1,3,-2
1570181957507635,0,0,1,-1,-2,-2,-7,-3
1570181957508685,-3,0,-2,-1,0,2,0,-5
1570181957508685,1,0,-2,0,-2,-3,-6,0
1570181957529748,-2,-1,0,-2,1,10,0,-5
1570181957529748,-2,0,-1,0,0,10,6,0
1570181957531697,4,0,-1,2,4,-8,1,13
1570181957531697,-3,-1,1,1,-2,7,-7,-7
1570181957543537,8,3,1,0,-2,0,-8,19
1570181957543537,-2,-3,-2,-3,-3,-1,-1,-5
1570181957550632,1,1,-2,-3,0,4,2,4
1570181957550632,-3,0,-1,-1,-1,-5,-4,-3
1570181957567469,0,-2,-2,-1,0,-3,2,-6
1570181957567469,1,1,-1,0,-1,-3,-3,4
1570181957568468,-3,0,0,0,2,21,2,-2
1570181957568468,-1,0,1,-1,-4,-16,6,-2
1570181957589830,-2,-2,0,-1,-4,-6,-6,-6
1570181957589830,2,0,1,-1,-1,-10,1,4
1570181957591734,1,0,1,0,-2,7,1,-2
1570181957591734,-1,-2,-3,0,2,5,1,5
1570181957604373,0,-2,0,-1,0,-2,0,-4
1570181957604373,0,1,0,0,1,2,-1,0
1570181957610400,-1,-2,-2,-5,-2,-6,-1,1
1570181957610400,-4,-1,-1,-1,-1,1,-4,1
1570181957627452,-1,-1,0,1,-2,-5,0,-5
1570181957627452,2,-1,-1,-1,1,-2,-3,3
1570181957628307,-7,-2,-1,-1,0,10,15,-5
1570181957628307,2,-1,-3,-1,-1,-5,-1,-1
1570181957650254,0,2,0,0,1,7,1,-4
1570181957650254,-3,-1,0,-1,-1,-4,-4,-2
1570181957651423,-2,-2,-2,-3,-4,-10,-1,3
1570181957651423,-1,-1,3,2,-1,2,-3,-6
1570181957664210,0,-2,-2,-4,-3,-6,8,16
1570181957664210,0,-1,0,0,0,-1,2,4
1570181957671192,-5,0,-1,1,-1,-10,-8,-16
1570181957671192,3,-1,-1,-1,2,-5,0,10
1570181957687311,-1,-3,1,-1,-1,4,4,-4
1570181957687311,-1,-1,-2,-1,-3,-2,-3,-1
1570181957689146,-1,-1,1,1,-2,-1,-2,-1
1570181957689146,-1,0,-2,0,5,11,1,-3
1570181957710462,0,2,-1,1,-4,-11,-3,-4
1570181957710462,0,-2,-3,-2,0,10,-1,-1
1570181957711087,0,1,0,-2,-2,-6,1,-5
1570181957711087,1,0,0,-1,1,1,-6,3
1570181957723059,-4,-2,-2,0,1,2,-1,-3
1570181957723059,-1,0,-1,-1,-3,-5,-1,0
1570181957732029,-1,-2,-3,1,-1,-2,-1,-1
1570181957732029,-2,-1,-2,-1,-3,-5,-2,-16
1570181957747097,0,-1,-1,1,2,1,-1,4
1570181957747097,-1,1,1,2,1,7,-3,-2
1570181957749187,0,0,-1,0,-1,-10,-4,4
1570181957749187,0,-1,-1,-1,-2,0,0,-4
1570181957776911,-1,-1,1,0,-2,-3,-5,-8
1570181957776911,-1,-2,0,0,1,0,3,-6
1570181957778905,3,0,-1,-1,-1,5,0,9
1570181957778905,-5,-1,1,-2,-2,-4,-1,-3
1570181957782893,2,0,-1,-1,1,0,0,5
1570181957782893,0,0,0,-1,-1,-3,2,5
1570181957792896,-4,-2,-1,-1,-3,-6,-4,-7
1570181957792896,-7,-1,-2,0,-2,0,2,-8
1570181957806840,1,-2,-1,0,9,22,1,-6
1570181957806840,-4,0,-1,-2,-10,-30,-3,-5
1570181957808825,3,0,-1,0,4,9,0,6
1570181957808825,0,0,0,0,-1,-2,0,-3
1570181957829777,-1,2,1,0,0,3,-19,5
1570181957829777,1,-1,1,0,2,5,0,2
1570181957831794,1,1,0,0,0,-5,-1,-3
1570181957831794,2,-2,-2,-1,-1,0,2,11
1570181957843735,-3,-1,-3,0,-2,-6,5,-7
1570181957843735,-1,-2,-2,-1,0,2,-1,1
1570181957852710,-1,0,0,1,-3,-3,-3,5
1570181957852710,0,-1,2,0,1,3,-2,-2
1570181957867669,-1,0,-1,-1,-3,-12,-1,-3
1570181957867669,-1,0,-2,-1,2,5,2,-7
1570181957868665,-1,-1,1,1,1,2,3,0
1570181957868665,-1,-1,-2,0,-1,-3,0,8
1570181957889610,-1,-2,-2,-1,-2,-3,3,-3
1570181957889610,-2,0,-1,0,-2,0,-1,0
1570181957891603,-1,-3,-2,0,-1,0,-1,1
1570181957891603,0,0,-1,-2,-3,-12,-4,1
1570181957903573,-4,-1,0,-1,-1,-2,2,-2
1570181957903573,3,0,1,0,2,1,-1,10
1570181957912641,2,0,-1,-4,-4,-3,-9,13
1570181957912641,-1,0,0,0,3,2,-1,-4
1570181957927556,1,-1,0,-1,1,-2,3,-2
1570181957927556,0,0,-2,-1,-5,-3,-3,-1
1570181957928505,-6,-2,-1,-1,0,7,1,-10
1570181957928505,4,1,1,1,0,2,3,14
1570181957949457,-1,1,0,2,1,1,0,-3
1570181957949457,0,-3,-3,-2,2,0,7,-1
1570181957951445,1,1,-2,-1,1,-3,2,0
1570181957951445,-1,-1,-2,-1,4,15,2,-1
1570181957963411,-2,0,0,-2,-4,-10,2,2
1570181957963411,-1,0,-1,-2,3,11,0,-4
1570181957973055,0,0,0,1,-1,-2,-1,-3
1570181957973055,4,0,1,-1,-1,-2,-1,4
1570181957987348,-3,-2,-1,-2,-4,-2,-3,-18
1570181957987348,-1,-1,-1,-2,-2,-1,2,-3
1570181957988350,5,0,-1,0,1,-2,-14,10
1570181957988350,-1,3,0,1,-1,-1,0,-6
1570181958009351,-1,0,-2,0,-1,-2,-3,-2
1570181958009351,-3,-1,-2,0,0,-3,-4,-5
1570181958011285,-1,-2,0,-1,0,-1,4,-3
1570181958011285,-3,-4,-2,-1,-2,-4,0,-6
1570181958023349,0,1,-1,-1,1,3,2,13
1570181958023349,-3,-1,0,0,-1,-12,-8,-14
1570181958032652,-1,-2,-2,-3,-6,-12,2,3
1570181958032652,0,1,-1,-1,-2,-3,-3,-2
1570181958047189,-3,-3,-2,-2,-1,1,3,-1
1570181958047189,1,0,0,0,-1,1,-1,1
1570181958049182,1,-2,-2,0,0,5,3,1
1570181958049182,-6,-2,-1,0,-1,-6,-6,-15
1570181958069138,1,-1,0,-1,0,-1,3,9
1570181958069138,-3,-2,-2,-1,-1,0,0,-1
1570181958077107,-2,1,1,1,0,-1,-2,-3
1570181958077107,-1,-2,-2,-1,-1,-1,4,0
1570181958083095,-1,-2,1,1,-2,1,-4,-3
1570181958083095,2,2,1,2,0,-3,-11,11
1570181958092073,0,0,1,0,1,10,6,2
1570181958092073,-2,-3,-2,0,2,5,2,3
1570181958107026,-3,0,-2,-3,-6,-9,-4,-6
1570181958107026,-1,-1,-1,-1,-1,-1,3,-3
1570181958109022,-2,1,0,1,1,1,3,0
1570181958109022,3,-1,-1,-1,-1,-1,-1,2
1570181958129970,-1,-1,-3,1,1,2,1,1
1570181958129970,-1,0,0,-1,0,2,2,-2
1570181958130964,-4,0,-1,-1,0,-3,-1,-4
1570181958130964,-2,-1,-1,-1,-2,1,1,2
1570181958143070,0,-1,-1,0,0,-5,-1,-2
1570181958143070,-2,1,2,0,2,7,1,4
1570181958151908,1,-2,-1,-2,-1,-4,-1,1
1570181958151908,-1,1,0,0,-1,3,-2,-3
1570181958167397,1,-1,-1,-2,1,4,1,-1
1570181958167397,-2,-1,0,-1,2,2,-2,-4
1570181958168899,-1,0,-1,0,-4,-2,2,-5
1570181958168899,4,-1,0,1,-1,-4,-15,17
1570181958189817,0,-1,-1,-2,-3,-3,-1,7
1570181958189817,2,-1,-2,-1,0,-9,-1,-1
1570181958191802,-1,0,-1,0,0,-3,-2,-1
1570181958191802,0,-2,-2,-2,-2,-5,3,-2
1570181958203773,0,1,0,1,0,10,5,12
1570181958203773,0,-1,0,-1,-1,-2,-1,2
1570181958212746,1,-1,-1,-2,-1,-2,-1,-3
1570181958212746,-3,0,-2,0,-1,-1,2,-7
1570181958227705,-2,-3,-1,-1,-1,0,-1,-2
1570181958227705,-1,-1,0,0,0,1,3,-6
1570181958228703,2,0,-2,0,-1,2,0,9
1570181958228703,0,2,0,-2,0,-1,2,-2
1570181958249644,-1,2,-1,1,0,-4,-2,-1
1570181958249644,-1,-3,-2,0,1,16,2,5
1570181958251845,-3,-2,2,-1,0,-11,-6,-16
1570181958251845,-1,-1,-2,-1,-1,-1,10,-5
1570181958272586,0,0,1,0,2,-6,-5,0
1570181958272586,1,-1,-2,0,-3,2,1,1
1570181958273583,1,-1,0,-1,1,3,2,-1
1570181958273583,0,-2,1,-1,-3,-2,2,-4
1570181958287546,-2,-2,0,-1,0,6,2,-5
1570181958287546,0,-2,-2,0,1,-2,-2,0
1570181958288543,-2,-1,-2,-2,-6,-5,-3,-3
1570181958288543,5,-1,-1,-1,-1,2,2,20
1570181958309537,0,-2,-2,-1,1,1,-3,5
1570181958309537,-2,0,0,-1,-2,-6,-7,-5
1570181958311483,-1,-1,-1,-1,2,4,1,1
1570181958311483,-3,-1,-1,-1,-1,3,-4,-6
1570181958332429,-2,-1,0,-1,-2,-2,0,-5
1570181958332429,0,0,0,-2,0,-9,1,1
1570181958333423,-4,-1,-1,0,0,-1,-2,-6
1570181958333423,-3,0,1,1,0,1,-3,-2
1570181958347396,1,-1,0,-1,0,4,-1,-2
1570181958347396,-2,-2,-4,-2,-3,-2,0,-3
1570181958353435,0,-1,0,-1,-2,1,1,1
1570181958353435,0,0,0,1,-1,-1,-2,-3
1570181958369332,-5,-2,-2,-1,0,3,13,-11
1570181958369332,1,-1,-1,0,0,-5,-4,1
1570181958371413,-2,-2,-3,-2,-2,0,-1,-10
