timestamp,emg1,emg2,emg3,emg4,emg5,emg6,emg7,emg8
1570179925517230,-2,1,-1,-2,1,-3,-2,-1
1570179925517230,-1,0,1,-1,1,-1,-2,-2
1570179925518122,-8,-1,-2,-2,-2,-5,-2,-56
1570179925518122,0,1,0,-1,0,0,0,7
1570179925528140,-1,-2,-2,0,-2,0,3,3
1570179925528140,1,-3,-1,1,0,0,-1,0
1570179925529093,0,-2,-2,-2,-1,0,-2,0
1570179925529093,-3,-2,0,-1,1,-1,-4,-8
1570179925531109,0,-1,0,-1,0,0,5,-5
1570179925531109,-1,-1,-1,-1,0,-3,-1,1
1570179925534078,2,1,0,0,-2,-2,0,13
1570179925534078,-1,1,0,-3,-1,-2,2,12
1570179925541058,0,-1,1,-1,-2,1,-1,10
1570179925541058,-1,0,0,-1,-2,1,0,-2
1570179925556019,1,0,-1,0,2,0,0,9
1570179925556019,1,1,-1,-1,-2,-1,-4,2
1570179925565041,-2,-1,-1,-1,-1,0,1,-14
1570179925565041,-2,-2,0,0,-2,1,1,2
1570179925586935,2,0,1,1,-1,-1,-3,9
1570179925586935,0,-1,-1,0,0,1,5,-8
1570179925587936,2,-1,0,-1,-1,-1,-5,4
1570179925587936,-1,1,-2,-2,-1,0,-2,-1
1570179925600898,1,1,1,-1,0,0,-1,4
1570179925600898,-7,-5,-4,-3,-2,1,2,-4
1570179925642785,-1,-1,-2,-1,-1,0,0,-3
1570179925642785,2,2,0,0,0,0,2,5
1570179925642785,-1,-2,-2,-2,-1,0,0,-2
1570179925642785,-5,-2,1,-1,-1,-1,13,-21
1570179925646775,0,-2,-1,0,0,-1,-2,4
1570179925646775,1,-2,-3,-1,-1,-3,0,-4
1570179925647773,-1,0,1,0,-2,-1,-3,0
1570179925647773,-2,-1,-2,-1,0,-1,0,0
1570179925652792,0,1,0,-1,-1,0,0,0
1570179925652792,0,0,2,-2,0,-1,-1,-3
1570179925660737,0,-1,0,0,0,0,2,-2
1570179925660737,1,-2,-1,-1,-1,-1,-4,4
1570179925669999,0,-1,0,-1,0,-1,-1,-5
1570179925669999,3,1,1,-1,-1,-1,-2,4
1570179925683717,-2,1,0,-1,1,1,0,-1
1570179925683717,2,1,0,0,-1,-3,-8,5
1570179925690685,0,-2,0,0,-2,0,0,3
1570179925690685,-2,-2,-1,-1,0,2,0,-6
1570179925714622,-1,0,-2,-1,0,-2,-2,-1
1570179925714622,1,1,-1,-1,-1,0,1,4
1570179925716617,-5,-2,-2,-2,-2,-4,-4,-12
1570179925716617,-3,-2,-1,0,-1,-1,1,-16
1570179925728556,5,-1,-1,-1,0,-2,-8,15
1570179925728556,-1,0,-2,-1,-2,-2,-5,-7
1570179925737544,1,2,1,1,0,-2,0,2
1570179925737544,-2,-2,0,0,-3,-2,0,-4
1570179925751498,-2,-2,0,0,-1,0,2,-7
1570179925751498,0,-1,1,-1,0,-2,0,-1
1570179925753495,0,1,-1,0,-1,0,0,2
1570179925753495,1,0,0,-2,0,2,-2,4
1570179925774474,-1,1,-2,-2,1,0,2,-1
1570179925774474,0,-1,-1,-1,-2,2,-3,2
1570179925780418,-1,0,1,-1,0,1,1,-1
1570179925780418,1,1,0,-1,0,0,0,18
1570179925788401,1,-1,1,-1,-1,-1,-3,-2
1570179925788401,-2,0,-3,-2,-1,1,2,-1
1570179925797416,-1,0,-1,-1,1,0,-1,0
1570179925797416,-1,0,0,1,-1,-2,-2,-3
1570179925812334,-2,-1,-2,-1,-1,-1,1,-4
1570179925812334,7,1,1,2,0,-2,-12,30
1570179925813330,-1,-1,1,0,0,0,-2,-2
1570179925813330,1,-1,-3,-2,-2,-2,-3,-3
1570179925834380,0,0,-1,-1,-1,-2,-3,-2
1570179925834380,-1,-1,0,-2,0,1,2,-8
1570179925836268,-2,-2,-1,0,-1,-2,1,-3
1570179925836268,4,2,2,1,3,1,-1,12
1570179925848270,1,0,1,-1,-1,1,0,-3
1570179925848270,0,-1,-2,-1,0,0,3,0
1570179925863195,-1,-1,-2,-1,0,0,1,-1
1570179925863195,-3,-1,-1,-1,-1,-2,1,-7
1570179925872171,-2,2,-3,1,-2,-2,1,-1
1570179925872171,-2,0,0,0,0,0,-1,-2
1570179925874166,-3,-1,0,-1,-1,-1,-5,-13
1570179925874166,-1,-1,-2,0,0,0,-1,-2
1570179925894151,-2,-3,0,-2,-1,-2,-1,-6
1570179925894151,1,-1,-1,0,-2,-1,1,2
1570179925896109,1,-2,-4,-1,-1,0,1,1
1570179925896109,-2,-1,-1,1,0,0,-2,-4
1570179925908160,-5,-1,0,0,-3,0,6,-10
1570179925908160,1,-1,-2,1,1,-3,-6,-1
1570179925917052,0,-1,1,-2,-1,0,0,-6
1570179925917052,1,-1,-3,0,1,0,2,6
1570179925932076,0,-2,0,-2,1,2,2,4
1570179925932076,-2,-1,0,-1,-3,0,2,-6
1570179925934010,-1,-1,1,0,-1,0,0,5
1570179925934010,-1,-2,-2,-1,-2,-3,-4,-1
1570179925955096,-2,-2,0,0,0,0,1,-8
1570179925955096,-5,-3,-3,0,-3,0,6,-9
1570179925956648,5,1,-1,1,1,1,4,25
1570179925956648,-5,0,-1,0,-1,-1,1,-6
1570179925969195,2,-1,-1,1,-1,-1,-2,3
1570179925969195,0,-1,0,-1,-1,-1,1,0
1570179925976895,-1,-1,-1,-1,-1,-3,0,-6
1570179925976895,1,2,1,0,-1,-1,-1,-2
1570179925992852,2,-1,-2,0,1,-1,-3,7
1570179925992852,-2,-1,-1,0,1,0,-4,-5
1570179925993926,-1,-1,0,0,0,-1,-3,-2
1570179925993926,-2,-1,-1,-1,0,1,-3,2
1570179926014929,1,-1,-1,0,0,-1,-1,1
1570179926014929,2,2,1,0,2,-2,-3,-2
1570179926016423,1,-1,0,1,-2,-1,-2,-1
1570179926016423,-2,-4,0,0,-2,0,1,1
1570179926028811,-4,1,-2,-1,-1,1,8,-15
1570179926028811,0,0,-2,0,0,-2,-2,2
1570179926037732,-1,-1,0,-2,0,-1,-1,-1
1570179926037732,-2,-1,-1,-2,-2,-1,0,0
1570179926052357,0,0,1,0,-1,-1,-1,0
1570179926052357,-1,0,1,0,-1,0,3,6
1570179926053785,0,-1,-1,-1,-2,-2,1,-4
1570179926053785,0,-1,-2,-2,1,1,-2,1
1570179926074630,4,0,-1,0,1,-2,-6,22
1570179926074630,0,0,0,-1,-1,1,-1,-7
1570179926076627,1,-2,-3,-1,-1,0,0,8
1570179926076627,-1,0,1,-1,-2,-1,-2,-4
1570179926088595,1,0,-2,2,-3,-1,-8,0
1570179926088595,-3,0,0,0,-2,-1,-2,-4
1570179926097571,-1,-1,-1,0,2,1,1,-3
1570179926097571,0,0,0,0,0,-1,-1,3
1570179926112658,-1,-1,1,-2,0,-1,-2,-6
1570179926112658,-2,-2,0,-1,1,0,0,0
1570179926114343,-2,-1,0,-1,0,-1,-2,-2
1570179926114343,-4,-2,-1,0,-1,0,10,-13
1570179926134647,1,-1,-1,-1,0,-1,-9,5
1570179926134647,-2,-1,-1,-1,0,0,0,-3
1570179926136468,2,0,0,-2,-3,0,0,2
1570179926136468,0,-3,-1,-1,0,-1,-1,-5
1570179926157419,-2,0,-1,-2,0,0,2,-4
1570179926157419,-3,0,-2,-1,-3,-2,-6,-25
1570179926158408,2,-1,0,1,1,-1,0,9
1570179926158408,0,-1,-1,1,0,-1,-2,1
1570179926172503,1,-2,-1,-1,-1,-1,0,0
1570179926172503,-3,-1,-1,-2,0,0,4,2
1570179926174258,-3,-1,0,0,1,-1,-3,-14
1570179926174258,1,0,-1,0,-1,-1,-1,3
1570179926194319,-1,1,2,0,1,-1,-2,-1
1570179926194319,2,0,-1,-1,0,0,3,9
1570179926196323,-1,1,0,-1,-1,1,-2,0
1570179926196323,0,-1,1,0,-1,0,-2,4
1570179926224284,0,-1,-1,0,-1,0,1,-5
1570179926224284,0,-2,0,0,-1,-1,0,4
1570179926226226,-1,0,-1,-1,-3,-2,0,0
1570179926226226,0,0,-2,-1,0,-2,-3,-2
1570179926232217,-2,-2,-1,-1,0,0,-1,3
1570179926232217,2,-1,0,-2,1,-1,1,2
1570179926233662,-1,0,-3,-1,0,-1,0,0
1570179926233662,-2,-1,-1,-3,-2,-1,-1,-4
1570179926254158,-3,0,0,-1,-2,1,0,2
1570179926254158,0,-4,-2,1,1,0,-2,-11
1570179926262824,-1,-1,-2,-1,-1,-2,-1,-2
1570179926262824,0,-1,-1,-2,0,0,1,2
1570179926277268,-1,-1,0,1,0,1,0,-1
1570179926277268,1,-1,0,1,-2,1,-2,5
1570179926279086,0,0,1,0,0,1,3,0
1570179926279086,0,0,0,1,-1,-1,-1,-2
1570179926292053,0,-1,0,0,-1,-1,-1,1
1570179926292053,0,-3,-2,-1,-1,-2,2,2
1570179926298045,0,-3,-1,-2,-1,-1,-1,-2
1570179926298045,0,2,0,-1,0,-2,-2,4
1570179926315051,0,0,0,-1,0,0,0,-3
1570179926315051,0,0,-1,-1,0,-2,0,4
1570179926316277,-3,-1,-1,-1,2,-1,0,-1
1570179926316277,1,-1,-2,0,0,-1,-1,-4
1570179926336937,1,-2,-1,-1,-1,-1,-1,2
1570179926336937,0,0,0,0,-2,0,0,5
1570179926338925,-1,-1,0,0,-1,-1,-1,-3
1570179926338925,-1,-1,0,-1,-1,0,0,2
1570179926351946,0,-1,0,-1,0,0,1,-3
1570179926351946,-2,-1,0,-1,-2,0,0,-5
1570179926358871,0,-2,-3,0,-2,0,1,4
1570179926358871,0,1,0,1,1,0,-11,4
1570179926374865,-5,-1,-2,-2,-1,-2,6,-5
1570179926374865,0,0,1,-2,-1,0,-1,-3
1570179926375827,0,-1,-1,-1,-1,-2,-1,-2
1570179926375827,0,-1,-1,-2,-2,-1,7,2
1570179926397771,-1,-2,-2,-1,1,6,3,-2
1570179926397771,2,3,2,0,1,0,-1,19
1570179926399026,-2,-1,-3,-1,0,0,-1,0
1570179926399026,1,0,-1,-2,0,-3,1,2
1570179926410979,-7,-1,-2,0,0,-1,7,-16
1570179926410979,0,0,1,0,-1,-1,-1,-2
1570179926419845,-3,0,1,1,-2,-2,-3,1
1570179926419845,-2,0,1,0,1,5,-4,-13
1570179926434672,4,1,-2,-2,-9,-23,-1,8
1570179926434672,0,1,2,0,1,-3,3,-4
1570179926436665,4,2,1,1,5,12,1,4
1570179926436665,-4,-1,-1,-3,-2,-3,2,-8
1570179926457609,6,0,-1,1,2,6,-10,9
1570179926457609,-1,0,0,0,-2,-3,-5,-2
1570179926458605,4,2,1,0,-2,-4,3,7
1570179926458605,-13,-2,-1,0,1,4,-2,-16
1570179926471580,-9,-1,-2,-1,-2,1,-5,-33
1570179926471580,12,1,-1,0,-1,-2,0,30
1570179926479560,0,0,0,0,0,0,-1,2
1570179926479560,4,1,0,-2,0,-2,2,5
1570179926502489,-2,-2,1,0,1,-3,-1,-2
1570179926502489,-5,2,-1,-4,-1,0,-2,-17
1570179926503485,-2,1,-2,-2,-2,-1,0,-5
1570179926503485,-1,-1,-1,0,0,-3,-1,-2
1570179926517611,3,0,-1,0,-1,2,-2,24
1570179926517611,-11,-2,-2,0,1,4,-1,-32
1570179926519133,13,0,-1,0,-1,0,3,31
1570179926519133,5,0,-1,-1,-2,-1,1,6
1570179926539396,-6,-1,0,1,0,1,-2,2
1570179926539396,12,6,-3,0,-2,0,2,4
1570179926541385,-6,-2,1,1,0,-9,-2,-12
1570179926541385,0,-2,-1,-1,-2,-1,-1,2
1570179926554348,-1,-1,0,-1,-2,-5,-3,-4
1570179926554348,-4,-3,-4,0,-1,1,-1,9
1570179926556437,-1,1,-2,-1,2,12,3,-4
1570179926556437,-1,-1,-1,-1,-3,-7,-4,-5
1570179926577287,10,-2,-1,-1,3,7,5,25
1570179926577287,8,3,0,0,1,-5,-3,0
1570179926579285,-1,-1,1,0,-5,-5,-3,3
1570179926579285,-17,-10,-2,-1,1,9,2,-9
1570179926591252,-11,0,-2,-3,-2,-4,-7,-14
1570179926591252,18,9,2,-1,-2,3,2,7
1570179926600228,-4,2,2,-3,1,1,-5,-28
1570179926600228,22,18,-6,-5,-4,5,-3,2
1570179926622169,-15,-13,-1,-2,-1,-10,-2,-7
1570179926622169,-6,-13,-2,0,-2,-4,2,8
1570179926624163,-14,-10,-1,1,1,22,6,-4
1570179926624163,34,4,2,2,-1,-8,-7,3
1570179926636160,-7,9,-1,-2,0,-3,1,3
1570179926636160,-5,0,1,1,-1,0,-3,-7
1570179926643118,1,4,-2,-1,-2,-15,-4,7
1570179926643118,-18,-11,1,1,5,6,4,11
1570179926660068,3,1,0,0,1,4,4,8
1570179926660068,7,3,-2,-3,-4,-4,-3,-3
1570179926661068,13,9,1,0,-1,3,-5,2
1570179926661068,-5,-3,-6,-1,-4,-12,0,-1
1570179926682009,-1,-5,0,-1,0,5,0,-4
1570179926682009,-12,-3,0,-1,0,2,0,-6
1570179926684004,-7,-8,-1,-1,-1,-4,2,-3
1570179926684004,-1,1,1,0,1,1,2,0
1570179926697085,5,9,1,2,1,3,-1,3
1570179926697085,-10,-18,-7,-5,-2,-2,-4,-12
1570179926698962,5,11,-2,-2,-2,-5,-3,-6
1570179926698962,-25,-16,1,2,0,2,1,-4
1570179926719906,31,10,-1,-1,-4,-7,-2,10
1570179926719906,-1,3,0,-1,1,1,0,1
1570179926720905,-6,-4,2,0,-1,-4,-3,-5
1570179926720905,-5,-1,-1,0,-1,0,-1,3
1570179926741847,-12,-8,1,2,1,8,3,-6
1570179926741847,-2,1,-3,1,1,1,2,6
1570179926743848,0,-6,-3,-2,-2,-9,-2,-9
1570179926743848,-5,-2,-1,1,1,-10,-6,-4
1570179926756871,9,2,-1,-2,-2,11,0,-1
1570179926756871,-1,-1,0,-2,-5,-7,1,1
1570179926762792,-3,-3,0,0,2,4,0,4
1570179926762792,5,5,0,0,-1,6,7,4
1570179926779753,1,2,-2,-1,-1,15,-2,-7
1570179926779753,-6,-2,-2,0,2,-9,-7,-4
1570179926780825,-3,-3,0,-2,-5,-6,-1,-2
1570179926780825,4,2,0,-2,-2,0,0,7
1570179926801707,-5,-5,-1,2,0,-4,-3,-4
1570179926801707,-2,-4,-3,-1,0,9,6,10
1570179926803681,-2,0,-2,0,-1,-9,-7,-3
1570179926803681,-7,1,3,2,2,-1,1,0
1570179926815807,27,12,-4,-4,-6,-10,-8,-12
1570179926815807,-10,-13,-5,-2,0,2,-2,-2
1570179926824625,13,9,-1,-3,0,-1,-2,-1
1570179926824625,-4,0,2,0,1,17,3,3
1570179926839584,-18,-13,2,2,-1,-9,3,5
1570179926839584,1,3,3,1,0,0,-1,-6
1570179926840581,-6,-7,-4,-3,1,5,-1,6
1570179926840581,8,6,1,1,1,-3,-6,-3
1570179926861526,-9,-3,0,-1,2,-2,1,0
1570179926861526,1,1,-1,0,3,12,2,-3
1570179926868035,-4,0,0,2,-1,0,17,15
1570179926868035,-5,-6,-2,-1,-3,-6,1,2
1570179926875548,8,7,0,-1,0,-2,-5,-15
1570179926875548,0,2,1,0,-1,-3,-1,5
1570179926884464,-6,-3,-3,-2,-1,2,0,-6
1570179926884464,3,0,-1,-2,0,-4,-3,-2
1570179926899429,-7,-5,0,0,0,-3,0,6
1570179926899429,-1,4,1,-1,-1,1,0,-6
1570179926901419,4,0,1,1,-1,1,-3,1
1570179926901419,3,-2,-4,-1,-2,-2,-1,4
1570179926922511,-7,-3,-1,-2,0,1,-1,-2
1570179926922511,8,4,0,-1,-2,-3,-2,7
1570179926924359,-5,-4,-1,-1,3,-3,-6,-14
1570179926924359,1,1,-1,-1,-1,0,0,3
1570179926936369,0,0,1,1,0,1,3,3
1570179926936369,-2,-2,1,-1,-3,-3,-4,-12
1570179926943425,-1,-3,-1,1,-2,0,-1,6
1570179926943425,3,1,0,-1,1,0,-1,-2
1570179926959354,2,0,0,-1,-1,1,0,1
1570179926959354,-2,0,-1,0,-1,0,0,0
1570179926961263,-1,-1,1,0,-2,-1,-4,-1
1570179926961263,-3,0,-1,-1,-2,-1,-2,-15
1570179926982429,0,-2,0,-2,3,12,3,8
1570179926982429,1,-1,0,-1,-1,-7,2,16
1570179926984206,0,0,0,0,1,2,-3,-9
1570179926984206,1,0,-1,-2,-2,-3,-2,2
1570179926996305,-1,-1,-2,0,0,-1,0,-1
1570179926996305,0,0,-1,0,0,3,0,-1
1570179927003232,1,-1,0,-1,0,-2,0,1
1570179927003232,-1,-1,-1,-1,-2,0,-2,-2
1570179927020106,-1,0,0,0,-2,-3,-1,1
1570179927020106,-2,-1,-1,0,-1,0,0,-8
1570179927021133,-3,-1,-2,0,0,-5,-1,3
1570179927021133,1,0,0,-1,-1,0,1,-2
1570179927042270,-1,-2,-1,-2,-1,-5,-1,2
1570179927042270,0,-1,0,0,1,-2,-2,-3
1570179927044046,-2,0,0,-1,-1,1,0,3
1570179927044046,5,-1,0,-1,0,0,1,5
1570179927057031,2,0,-2,1,-2,-4,0,3
1570179927057031,-6,0,-2,-1,-1,-1,-2,0
1570179927064037,-3,0,-1,0,-3,-4,-2,0
1570179927064037,-2,0,-1,1,-1,0,-1,-7
1570179927078951,0,0,2,-1,-2,-5,-1,7
1570179927078951,0,-1,-1,0,0,1,-2,-1
1570179927079958,2,-1,2,-1,1,11,2,0
1570179927079958,-2,-2,-1,-2,-3,-17,-6,-8
1570179927101885,-2,-1,-2,0,-1,-2,-3,-5
1570179927101885,-1,0,0,-2,-3,1,0,-2
1570179927102466,0,1,-3,-2,-3,-1,-2,-1
1570179927102466,1,-1,0,-2,0,4,1,5
1570179927116002,-3,0,-1,-2,-1,1,-1,-5
1570179927116002,-2,-1,-1,0,-2,-5,-1,0
1570179927124026,0,-1,-2,-1,1,-1,1,2
1570179927124026,0,-1,-1,1,-1,2,-1,-8
1570179927138991,-3,-1,-2,-1,0,0,0,-3
1570179927138991,1,1,-1,0,0,2,1,6
1570179927139793,-2,0,1,-1,-1,-1,-2,-9
1570179927139793,1,-1,-1,-1,1,2,0,6
1570179927161732,-2,-1,1,1,-1,-1,-1,-4
1570179927161732,1,-2,0,-1,-2,1,-2,3
1570179927161732,-1,-3,0,0,-2,-2,0,1
1570179927161732,-1,1,0,-1,0,1,0,1
1570179927175806,-1,-1,-3,-1,-1,0,-3,-1
1570179927175806,-1,0,0,-2,0,-1,0,-5
1570179927183883,1,-2,-1,0,-1,-2,0,0
1570179927183883,-2,0,-1,-1,-1,1,1,5
1570179927198774,4,-1,-2,-1,0,-1,-1,-3
1570179927198774,-3,-1,-1,1,-1,0,0,-3
1570179927199633,-1,-1,-1,-1,0,-2,-2,-2
1570179927199633,1,1,-1,1,1,0,0,6
1570179927221573,-2,0,-1,-2,-2,-1,-2,1
1570179927221573,1,-1,-2,0,1,-1,-1,-1
1570179927222568,-3,0,-1,0,-2,0,-2,-6
1570179927222568,1,-2,0,0,0,0,0,3
1570179927235715,-3,-1,-1,-2,-2,-2,0,0
1570179927235715,-1,-1,0,1,-2,0,-1,-1
1570179927244534,1,0,-2,-1,-1,-1,1,1
1570179927244534,-1,-1,1,-1,-1,0,0,-5
1570179927259519,2,-1,0,-1,-1,0,4,12
1570179927259519,1,0,-2,0,0,0,0,-1
1570179927259519,-1,-1,1,0,0,0,-2,-3
1570179927259519,-3,0,-1,-1,-1,-2,-1,-4
1570179927282533,-2,-3,0,-1,1,-1,-2,-2
1570179927282533,-2,0,0,-2,2,-1,-1,-3
1570179927282533,2,1,0,0,0,1,0,-1
1570179927282533,-1,0,-1,0,-1,0,0,5
1570179927297374,-1,1,-1,1,0,1,-1,-1
1570179927297374,-1,2,0,-2,1,0,1,1
1570179927304343,-3,-2,-1,1,-1,-2,-3,-3
1570179927304343,-5,-2,-1,-1,1,9,-1,-2
1570179927319303,4,1,0,-2,-5,-15,-3,-1
1570179927319303,0,-2,-4,-1,-1,-2,-2,3
1570179927319870,4,-1,1,-2,0,0,3,6
1570179927319870,0,-1,-1,0,-1,-3,0,5
1570179927341442,2,0,1,0,2,5,6,14
1570179927341442,-5,-1,-1,-2,-2,-3,11,-15
1570179927342370,0,-1,0,0,2,10,-3,6
1570179927342370,1,-1,-1,-1,-2,-8,0,-4
1570179927356204,0,-1,-1,2,1,3,-2,-3
1570179927356204,-2,-2,-1,-1,-2,-3,0,-4
1570179927364190,0,1,-1,-2,0,-1,1,4
1570179927364190,-1,-2,-3,-2,0,1,0,-3
1570179927379250,-4,-2,0,0,0,0,-1,-5
1570179927379250,1,0,0,0,0,-1,-5,-5
1570179927380145,-3,0,-1,-1,-1,-3,-2,-6
1570179927380145,-1,0,0,-1,-1,0,-2,1
1570179927401303,-2,-1,-2,-2,-1,-2,-1,-7
1570179927401303,5,-1,0,-1,-2,3,-2,17
1570179927402389,-2,2,1,0,-2,-5,-2,-3
1570179927402389,-1,-1,0,-3,-2,-3,-4,-18
1570179927416196,0,-1,0,0,-1,2,1,4
1570179927416196,-2,0,0,0,-1,0,-4,-1
1570179927424246,0,-2,-3,-1,-1,-1,2,-2
1570179927424246,0,0,-1,0,0,-1,0,3
1570179927439176,-4,-1,0,-1,1,1,-3,-9
1570179927439176,1,-1,-1,-1,-2,1,1,13
1570179927439993,-3,0,-2,-3,-2,-1,9,-15
1570179927439993,3,1,2,1,0,-2,-8,8
1570179927461924,0,-3,-2,-2,-1,-1,0,1
1570179927461924,-2,-1,2,-2,-1,0,-1,-4
1570179927461924,-1,-1,0,0,-1,0,1,0
1570179927461924,1,2,-1,0,0,-1,1,4
1570179927485077,-3,-1,0,-2,0,0,-1,-5
1570179927485077,3,-1,-1,0,-1,-1,-3,3
1570179927485868,-3,-1,0,-1,-1,-2,-5,-1
1570179927485868,1,1,0,0,0,-1,2,2
1570179927498955,-1,0,-1,0,-1,0,-3,4
1570179927498955,-4,0,-2,-1,-2,0,0,0
1570179927499832,1,-2,-1,-1,0,0,-3,-3
1570179927499832,-1,-1,1,-2,-2,-1,1,3
1570179927521968,0,-2,-1,0,-1,-1,-1,-5
1570179927521968,-2,-1,0,0,2,-1,-2,-4
1570179927522765,0,1,0,0,-1,-2,-2,4
1570179927522765,-3,-2,-3,-2,0,1,3,1
1570179927544802,-1,1,1,-1,-1,-2,-3,-7
1570179927544802,-1,-1,-1,-2,-1,-1,0,-3
1570179927545700,2,0,0,-1,-3,-2,-2,5
1570179927545700,-1,-1,-2,-1,0,-1,-1,-2
1570179927558706,-1,0,-1,1,0,0,-1,0
1570179927558706,-2,-1,1,-1,-1,1,-1,-3
1570179927559661,0,1,0,0,0,-3,-4,1
1570179927559661,-2,0,-1,0,-3,-1,-1,-3
1570179927581607,1,2,0,-1,0,0,1,-1
1570179927581607,0,1,1,2,2,-1,-3,-2
1570179927582600,-1,-2,-2,-3,0,0,-4,-14
1570179927582600,0,-2,-1,-2,1,-1,2,4
1570179927604594,3,-1,-1,-1,-2,-4,-3,-3
1570179927604594,0,0,0,-1,0,0,-1,-3
1570179927605540,-1,0,0,-1,0,-1,2,8
1570179927605540,0,1,0,2,0,-1,-3,-4
1570179927618552,-2,1,2,0,-2,0,0,0
1570179927618552,0,0,-2,-1,0,-2,-3,3
1570179927619509,-1,-2,-2,0,-1,0,0,2
1570179927619509,-1,-1,1,1,0,-1,-1,-1
1570179927641442,-2,1,0,1,-2,1,-1,2
1570179927641442,-3,-1,-2,0,0,-2,1,-9
1570179927642443,4,0,1,-1,0,0,2,14
1570179927642443,0,0,0,-1,-1,0,0,1
1570179927664385,0,-1,-1,-2,0,-1,1,-1
1570179927664385,0,-1,2,-1,0,-2,-2,2
1570179927665379,-2,1,-3,-2,0,-1,-1,2
1570179927665379,-2,-1,1,0,-1,0,-4,-1
1570179927679342,-1,0,1,1,-1,1,0,-1
1570179927679342,-1,-1,0,-1,-2,-1,-2,1
1570179927679342,0,0,-1,0,-2,0,0,1
1570179927679342,0,-1,-1,-1,0,0,2,-3
1570179927701408,0,-1,-2,-1,-1,-2,0,1
1570179927701408,-1,-1,1,-1,1,-2,-1,2
1570179927702279,0,-3,0,-1,-1,0,-1,-5
1570179927702279,-1,-2,0,-2,-1,-2,-2,-7
1570179927724273,2,-1,-4,-1,-1,1,1,9
1570179927724273,0,0,-1,-1,0,-2,-1,5
1570179927725220,-2,-1,0,-1,0,-1,0,-3
1570179927725220,3,-2,-3,-2,-1,1,1,7
1570179927739182,-1,0,1,-1,-2,-2,-3,-5
1570179927739182,2,-1,-2,0,-2,2,0,-2
1570179927739182,-5,-2,-2,0,-2,-3,-6,-17
1570179927739182,-2,-2,-1,-1,-1,-1,0,-1
1570179927761204,-1,-1,-2,-2,1,-1,0,0
1570179927761204,0,0,-3,0,0,-1,1,1
1570179927762123,0,-1,-1,2,-2,-1,-2,0
1570179927762123,2,0,0,0,-1,-1,0,5
1570179927784735,-3,-1,-2,-3,1,-2,-1,-4
1570179927784735,-2,0,2,-2,0,-2,-2,-17
1570179927785449,1,0,-1,-1,0,1,0,7
1570179927785449,-3,2,0,1,0,1,-2,-2
1570179927799163,-1,-1,-1,-2,0,2,1,0
1570179927799163,6,0,1,2,0,-1,-15,21
1570179927800085,-4,1,-1,0,-1,-1,-4,-7
1570179927800085,-1,-1,0,-1,1,0,0,-4
1570179927821963,0,1,0,1,0,-1,0,5
1570179927821963,-6,-3,-1,-1,-1,1,3,-7
1570179927821963,3,1,-1,-2,0,-2,2,6
1570179927821963,1,-1,-1,-2,-1,-1,-3,0
1570179927844898,0,-1,-2,-2,-1,-2,0,-6
1570179927844898,-2,-1,0,-1,0,-2,3,-4
1570179927844898,-1,-1,0,1,-1,-1,-3,-4
1570179927844898,-1,0,1,0,0,0,2,-3
1570179927858924,1,-2,-2,-1,0,1,-1,1
1570179927858924,-1,2,2,2,-1,-1,1,-5
1570179927859860,0,-2,-1,-1,-1,-1,0,6
1570179927859860,0,-1,-1,-1,-1,-1,-3,-2
1570179927890011,0,-1,2,0,1,-2,-2,-3
1570179927890011,-2,-2,-3,0,-1,0,0,3
1570179927890785,-1,-1,-1,-1,0,0,1,-4
1570179927890785,-3,-2,1,0,-1,0,0,-2
1570179927905163,2,0,1,0,-1,-1,1,-1
1570179927905163,-1,-2,-2,-3,-1,0,2,-3
1570179927905750,1,-1,0,0,0,-2,-1,-1
1570179927905750,-1,0,-1,1,0,-1,-1,-6
1570179927918702,1,0,-2,1,0,0,0,4
1570179927918702,1,0,-1,0,1,1,0,-1
1570179927919706,-2,-1,-1,0,-2,0,-1,1
1570179927919706,-1,0,0,-1,-2,-2,0,1
1570179927941650,-5,-2,0,-2,-1,1,1,1
1570179927941650,0,0,0,-1,-1,1,-1,-4
1570179927942639,2,0,0,-1,-1,0,1,1
1570179927942639,0,1,-2,-2,-1,-1,-1,1
1570179927964914,-5,0,-2,-1,0,1,0,-6
1570179927964914,0,1,1,1,-1,-1,1,1
1570179927965579,-1,-1,-3,0,-2,0,0,1
1570179927965579,-1,0,-2,0,0,-1,-1,0
1570179927979096,0,-1,-1,-1,1,-3,0,-1
1570179927979096,-3,-1,-2,-3,-1,-1,-1,-2
1570179927979539,0,-1,-1,-1,0,-1,-1,2
1570179927979539,0,0,-1,-1,-2,-1,0,0
1570179928001659,-1,0,0,1,-1,-1,-2,4
1570179928001659,3,0,-3,-2,-2,-2,2,10
1570179928002481,-1,-1,0,-2,1,0,0,-2
1570179928002481,0,0,-2,0,-2,-2,-1,-1
1570179928024642,2,0,1,-2,0,0,0,0
1570179928024642,-2,-1,1,1,-2,-3,-1,-3
1570179928025427,0,0,0,0,0,0,-1,-3
1570179928025427,-2,-2,0,0,-1,-2,0,-2
1570179928039433,3,0,-2,0,-2,-1,-1,0
1570179928039433,2,-1,-1,0,1,0,4,15
1570179928039433,-2,-2,-1,-1,0,0,1,0
1570179928039433,-1,-1,2,0,0,0,-1,-1
1570179928061569,-1,-1,0,1,-1,-1,0,-3
1570179928061569,0,-2,-1,0,-2,0,0,-5
1570179928062328,-2,0,-2,0,1,0,1,2
1570179928062328,0,1,0,-1,0,1,-2,-1
1570179928085258,-1,-2,-1,-2,-2,0,-1,-1
1570179928085258,-2,-1,0,-1,-3,0,-3,-3
1570179928085258,2,-1,0,-2,-1,-2,-1,4
1570179928085258,-2,-1,-1,0,1,1,0,-3
1570179928099349,-1,-1,0,-2,-2,0,-1,-1
1570179928099349,-1,-1,-1,-1,0,1,0,-2
1570179928100219,-1,-1,-1,1,-1,1,0,-1
1570179928100219,-1,0,-1,0,-1,-1,-1,1
1570179928121169,4,-1,0,0,-1,-2,-1,6
1570179928121169,0,0,-1,-3,-1,-2,0,0
1570179928122219,-2,-1,-1,0,0,-2,-2,-5
1570179928122219,1,-1,-2,0,-1,0,-1,-2
1570179928145138,-3,0,-1,1,-2,0,-1,-4
1570179928145138,-1,-1,2,1,0,1,-1,-7
1570179928145138,-1,0,0,0,0,-2,0,-1
1570179928145138,-1,-1,-2,-1,-1,-2,1,9
1570179928167092,-1,1,0,0,-1,1,0,-4
1570179928167092,-1,0,1,1,0,0,-1,1
1570179928168039,-1,1,0,0,-1,-1,0,1
1570179928168039,0,0,0,-2,1,1,0,0
1570179928181999,-2,-1,-3,-1,0,0,0,0
1570179928181999,1,2,-1,1,1,1,2,11
1570179928181999,-2,-3,-1,0,-1,-1,-3,-2
1570179928181999,-1,0,-1,-2,-1,1,-2,-2
1570179928205182,-1,0,0,-1,-1,-3,-1,0
1570179928205182,-2,-1,-3,-2,0,0,6,-6
1570179928205182,0,1,0,0,-1,-1,-4,-7
1570179928205182,-1,0,-1,1,-1,-1,0,1
1570179928217905,2,0,-1,0,0,0,-2,8
1570179928217905,-2,-1,0,-1,-1,-1,-3,-10
1570179928226881,0,-1,0,-1,-1,1,1,2
1570179928226881,1,-2,-2,-1,-1,-2,-1,-4
1570179928241839,-3,-1,-1,0,0,1,2,-2
1570179928241839,0,0,-2,1,-1,-2,-4,-2
1570179928241839,0,-2,-2,-2,0,0,-1,1
1570179928241839,0,-2,0,0,-2,-2,-1,0
1570179928264990,-1,-1,0,-1,0,0,-3,-8
1570179928264990,2,1,-1,-2,-2,-2,-3,1
1570179928265776,3,0,-2,0,-1,-1,0,5
1570179928265776,-3,-1,0,2,-1,0,0,-6
1570179928278775,-1,-1,0,-1,-2,-2,-2,-2
1570179928278775,-5,-1,-1,0,0,-1,-4,-12
1570179928287014,3,-1,-1,-2,1,-1,3,2
1570179928287014,1,0,-1,0,0,-1,1,9
1570179928301676,-1,0,1,2,1,-1,-4,-6
1570179928301676,0,-2,0,0,-2,-1,2,11
1570179928301676,-2,0,1,0,-1,0,0,-5
1570179928301676,-1,-1,-1,-3,0,1,-2,1
1570179928324823,1,-1,-2,-1,-1,1,2,6
1570179928324823,-1,-1,1,0,-1,-2,-3,-5
1570179928325625,-3,-1,-2,-2,-1,0,0,-2
1570179928325625,1,-1,-1,-2,0,0,0,-2
1570179928338725,-2,0,-3,-3,0,-2,1,-1
1570179928338725,-1,0,-1,-2,0,0,-2,0
1570179928346783,0,-1,0,0,0,0,-1,0
1570179928346783,-3,-1,0,0,0,-1,-3,-7
1570179928361882,4,0,-1,-1,-1,-1,1,8
1570179928361882,0,0,0,-1,-2,0,2,1
1570179928362517,0,-1,-1,-1,0,-1,5,2
1570179928362517,4,2,0,0,-2,-1,-14,11
1570179928384464,-4,-1,-2,0,0,-1,0,-2
1570179928384464,0,-1,-2,0,1,-2,-2,-3
1570179928385454,-2,-2,-3,0,-1,1,1,-2
1570179928385454,-3,-1,0,0,0,1,4,-5
1570179928398516,0,0,-2,-3,-1,1,-2,-2
1570179928398516,0,-1,-1,-2,-2,-1,-2,1
1570179928406398,-3,-1,-1,-3,-2,-3,-5,-15
1570179928406398,-1,1,0,-1,1,-1,1,-3
1570179928421574,-1,-1,0,-1,-1,0,0,0
1570179928421574,-1,-3,-2,-1,-1,0,3,-5
1570179928422354,1,-1,0,-2,-2,-1,-3,0
1570179928422354,-2,-2,-2,-1,-1,-1,3,-2
1570179928444409,0,0,1,2,0,0,-1,2
1570179928444409,3,-1,-3,-1,-2,0,1,4
1570179928445292,-1,0,0,1,-1,0,0,4
1570179928445292,2,-1,-3,-1,-2,-1,-2,6
1570179928458293,-3,-1,0,-1,-1,0,0,1
1570179928458293,-4,-1,1,-1,-1,-1,0,-7
1570179928466236,6,4,1,0,0,-3,-16,20
1570179928466236,-1,-2,-2,-1,-2,1,11,-15
1570179928481332,3,2,0,0,-1,-3,-6,-3
1570179928481332,-1,0,0,-1,0,1,-1,-6
1570179928482194,0,0,1,0,0,2,9,4
1570179928482194,-12,-6,-1,-2,1,-2,2,-2
1570179928505046,6,3,-1,-1,0,-1,-1,1
1570179928505046,17,9,4,3,1,-1,-4,1
1570179928505135,-40,-14,-1,1,-1,-1,-1,-7
1570179928505135,6,1,-1,1,-1,1,-4,-2
1570179928527074,-2,-4,-1,1,-1,0,3,0
1570179928527074,1,-1,-2,-2,0,-1,-1,2
1570179928528072,6,4,0,0,-2,1,-1,-8
1570179928528072,3,0,-1,-1,-2,-1,0,12
1570179928541089,-10,-4,-1,0,-1,1,-1,-4
1570179928541089,2,1,-1,-1,-1,0,1,2
1570179928542036,7,0,-2,0,0,0,-2,-4
1570179928542036,-4,0,-1,-1,0,-2,-3,-5
1570179928564977,4,1,0,1,1,1,1,2
1570179928564977,-4,-2,-1,-1,-1,-1,0,3
1570179928564977,1,0,-1,-2,1,0,3,-2
1570179928564977,1,2,0,0,0,-1,-2,1
1570179928587396,-1,0,2,-1,0,-3,-3,-5
1570179928587396,-7,-3,-1,0,0,-1,0,4
1570179928587912,2,1,-2,-2,-1,-2,1,-3
1570179928587912,3,1,1,-2,-1,0,0,-3
1570179928601876,-1,-1,-2,-2,-2,-1,-1,2
1570179928601876,-7,-3,-1,-1,-1,0,0,-2
1570179928601876,5,3,0,-1,-2,0,0,0
1570179928601876,0,0,-1,0,-1,-1,-1,-3
1570179928624820,-2,-1,-3,-3,-1,-1,0,-5
1570179928624820,3,0,-1,-1,0,1,3,16
1570179928625811,2,0,-1,-1,-1,-3,0,2
1570179928625811,0,-1,-1,0,2,0,-1,-1
1570179928646860,0,-1,-1,-1,-2,1,1,0
1570179928646860,-3,-2,-1,-1,-1,0,-2,-6
1570179928647758,0,0,-1,0,-1,0,1,1
1570179928647758,-2,-1,-1,0,0,-1,-1,-2
1570179928661774,-4,-2,-1,1,-2,1,3,-1
1570179928661774,-2,-1,0,0,0,-1,-2,-6
1570179928661774,-1,0,-1,-1,-1,-1,-1,0
1570179928661774,0,2,0,0,-1,-2,-3,2
1570179928684761,-1,0,1,-1,0,-1,-1,-3
1570179928684761,-1,-2,1,-1,0,-1,-2,-4
1570179928685651,1,0,0,0,-1,-1,-1,4
1570179928685651,0,-2,-1,1,0,-1,3,-5
1570179928706636,-2,-1,-3,-3,-2,0,-5,-18
1570179928706636,-5,-2,-2,-3,-2,-2,-3,-6
1570179928707592,3,2,-1,-2,0,-2,0,0
1570179928707592,1,0,0,0,-1,-1,0,7
1570179928721634,0,-2,-1,-1,0,0,-1,1
1570179928721634,-2,-1,0,0,0,-2,-2,-3
1570179928722552,-1,-2,-1,0,-2,1,2,-5
1570179928722552,-1,1,-1,-1,-1,0,-2,-2
1570179928745491,-1,-1,0,0,-1,-2,-2,-1
1570179928745491,-1,1,-1,-2,-1,-1,2,-3
1570179928745491,1,-1,0,1,0,-2,0,3
1570179928745491,0,-1,-2,-1,-1,0,1,4
1570179928767432,0,0,0,1,-2,-2,-1,0
1570179928767432,-2,-1,-1,1,1,1,-1,-1
1570179928768429,1,-1,-1,0,-1,0,-1,-1
1570179928768429,-2,-2,0,-2,0,-1,-2,-7
1570179928781396,1,-1,-2,-1,1,0,2,5
1570179928781396,-3,-3,-1,0,-2,0,6,-12
1570179928782456,0,0,0,-1,-1,-2,-14,-10
1570179928782456,-1,-1,0,1,-1,0,1,-1
1570179928804333,0,0,-1,-2,-1,-1,1,5
1570179928804333,1,0,-1,1,0,-1,3,5
1570179928805332,-2,-3,-1,-2,1,1,1,-7
1570179928805332,-2,-1,-1,-2,-2,0,0,-3
1570179928827271,4,1,1,-1,-1,-2,-2,4
1570179928827271,2,-1,0,0,-1,0,-4,6
1570179928828268,2,-1,-2,0,0,0,4,13
1570179928828268,1,0,0,-1,0,-3,-4,-1
1570179928841235,-2,-1,-2,-1,0,0,2,-1
1570179928841235,-1,0,-1,-1,-1,-1,-3,-1
1570179928842233,-1,0,1,-1,-2,-1,1,0
1570179928842233,-1,0,-1,-1,0,0,2,0
1570179928864172,-3,0,0,-2,0,2,-2,-3
1570179928864172,1,-1,0,2,1,-1,-1,1
1570179928865174,-1,0,-2,1,-1,-1,2,2
1570179928865174,-1,-1,-1,0,-1,0,-1,-4
1570179928887110,1,-2,-1,0,0,-1,-1,9
1570179928887110,-1,1,-1,0,1,1,-3,2
1570179928888106,2,0,-1,-1,-1,0,-12,18
1570179928888106,1,-1,-1,0,-1,-1,0,-2
1570179928901072,-1,-1,-1,0,0,-1,1,-1
1570179928901072,-1,-2,-3,-1,-1,-1,-1,0
1570179928902070,-5,-1,-1,-1,-2,-2,-2,-23
1570179928902070,-1,2,-1,-2,-1,-1,-1,5
1570179928924011,0,1,-1,-2,-2,-1,-2,-2
1570179928924011,0,-2,-2,0,-2,-1,1,6
1570179928925007,-1,-1,1,-1,-1,0,3,-3
1570179928925007,0,0,-1,-1,-2,0,-1,-1
1570179928946949,1,-2,-2,-2,-2,0,1,-2
1570179928946949,0,0,0,-2,0,-1,-1,-7
1570179928947980,-3,1,-1,-1,1,0,4,0
1570179928947980,1,0,-1,0,1,0,0,1
1570179928960913,1,-1,2,1,-1,0,-1,0
1570179928960913,-2,1,-1,0,-2,-1,-2,-7
1570179928961909,-1,1,-2,0,0,0,-1,2
1570179928961909,0,-2,-1,-2,0,1,0,2
1570179928984853,-1,1,-1,-1,-1,-1,1,-3
1570179928984853,2,0,0,-2,-1,-1,0,0
1570179928984853,0,-2,0,0,-1,0,2,1
1570179928984853,-5,-3,-2,-1,-1,1,11,-20
1570179929006794,0,0,-1,-2,-1,-1,-4,2
1570179929006794,0,-1,-2,-2,-1,-1,0,2
1570179929007788,0,-1,0,1,0,-1,-1,-2
1570179929007788,3,-1,-1,1,0,1,4,18
1570179929021749,-1,-1,1,1,0,-2,-1,1
1570179929021749,-1,0,-1,0,-2,1,0,-3
1570179929021749,-2,-1,0,-1,-1,-2,-1,-4
1570179929021749,1,-1,-1,0,-1,-2,-4,2
1570179929044690,0,-1,-1,-3,-1,1,0,3
1570179929044690,0,1,0,0,-1,-1,-2,4
1570179929045688,-1,0,-1,0,-1,-1,1,-3
1570179929045688,0,0,0,-1,-1,-1,-5,1
1570179929067627,-4,-3,-1,0,1,1,-2,-7
1570179929067627,3,-1,-1,0,-2,-2,3,7
1570179929067627,0,-1,-1,-2,-2,0,1,0
1570179929067627,3,0,-1,-1,-2,0,-1,4
1570179929089571,2,0,-1,0,-1,-1,-1,0
1570179929089571,-5,-2,0,0,1,0,9,-20
1570179929090569,0,-1,0,-2,0,-1,-8,-12
1570179929090569,0,0,1,-1,0,-1,1,8
1570179929104531,-2,0,0,1,-2,0,2,7
1570179929104531,-1,-2,-1,-1,-1,0,0,-6
1570179929105530,-1,1,0,-1,0,-1,-2,-5
1570179929105530,-3,-1,1,0,-2,0,-5,-10
1570179929127478,0,-1,-2,-1,0,-1,1,2
1570179929127478,0,-2,-1,0,-1,-2,-4,1
1570179929127478,5,0,1,-1,-2,0,2,15
1570179929127478,0,0,-1,0,-2,-3,-3,0
1570179929140616,-2,1,-1,-1,0,0,2,-6
1570179929140616,1,-2,0,0,1,0,-2,7
1570179929148596,-1,-2,-2,-3,0,-2,2,1
1570179929148596,-1,0,0,-2,0,-2,-1,0
1570179929164868,0,0,-1,-1,-1,-1,-2,-4
1570179929164868,-1,1,-2,0,-1,0,-2,-3
1570179929165530,-1,0,-1,-1,-1,-2,0,0
1570179929165530,2,0,2,0,1,-2,-15,18
1570179929187345,3,-2,1,-2,0,-1,-1,4
1570179929187345,4,1,1,0,0,0,0,15
1570179929187345,0,-2,-1,-1,-1,0,-2,1
1570179929187345,-2,-1,-1,-1,0,-1,4,-7
1570179929200274,-3,0,-1,-1,-2,-1,-1,-2
1570179929200274,0,1,1,0,0,-1,-4,0
1570179929209317,-1,0,-1,0,-2,2,2,-4
1570179929209317,-2,-1,-1,-1,-1,-1,2,0
1570179929224246,0,-1,1,-2,-1,-1,-1,-2
1570179929224246,-2,-1,0,0,0,-2,1,-6
1570179929225210,-3,1,-3,1,0,-1,0,4
1570179929225210,1,-1,0,-1,-1,-2,1,0
1570179929247147,-2,-1,-1,-1,-2,-2,-3,-1
1570179929247147,-1,-1,-2,-2,-1,-1,-2,1
1570179929248190,1,-1,0,0,-1,-1,1,4
1570179929248190,0,-2,-1,0,0,1,1,-3
1570179929261109,1,-1,-1,-1,0,-1,2,5
1570179929261109,-1,-2,-2,-2,0,-1,-1,-13
1570179929276070,0,0,0,0,-1,-2,0,-2
1570179929276070,1,-1,-2,0,0,0,2,-3
1570179929284052,-1,-1,0,0,0,1,2,6
1570179929284052,-5,-3,-1,-1,-2,1,8,-16
1570179929285115,2,0,0,-1,-2,-1,-4,7
1570179929285115,-1,-2,-1,-2,-1,1,-1,-4
1570179929307024,-5,-1,-1,1,0,-2,-2,-11
1570179929307024,3,0,-1,1,1,1,2,7
1570179929307986,-1,-2,0,-2,-1,0,1,2
1570179929307986,-3,-1,-1,-1,-1,0,-1,-6
1570179929320949,-2,1,2,0,-2,-1,-5,-7
1570179929320949,-3,-1,1,-1,-2,-2,-4,-4
1570179929329015,1,-1,0,-2,0,-1,2,3
1570179929329015,-1,0,-1,0,0,-1,-2,0
1570179929344887,1,-2,-3,-1,1,0,1,3
1570179929344887,0,1,1,1,0,-2,-5,-6
1570179929345521,-1,1,2,1,0,1,-3,-4
1570179929345521,-3,0,-1,0,-1,-1,0,-5
1570179929366831,1,0,-3,-1,-1,-1,2,1
1570179929366831,-1,0,0,-1,-1,0,-3,6
1570179929367964,-1,-1,-2,0,-1,0,0,-5
1570179929367964,1,-1,-1,-1,-1,0,0,0
1570179929380874,0,0,1,-1,-1,-3,-4,-17
1570179929380874,1,0,1,-2,-1,0,-3,9
1570179929388824,4,0,0,0,0,-2,-9,16
1570179929388824,-3,0,1,-2,-2,-2,0,-4
1570179929404725,1,-1,-1,-1,-1,-1,0,4
1570179929404725,0,-1,-1,-1,-1,-2,-2,2
1570179929405722,-3,-2,0,-1,1,0,2,-8
1570179929405722,1,-2,-1,-2,-2,-1,0,4
1570179929426671,-3,0,-1,-1,1,0,-3,-13
1570179929426671,1,1,-3,-1,-4,-1,1,11
1570179929427665,-1,0,0,-1,0,-1,0,-1
1570179929427665,-2,1,-2,-2,0,-2,-1,-2
1570179929449610,-1,-1,-2,1,-1,-1,3,1
1570179929449610,0,0,0,-2,1,0,0,0
1570179929450603,-3,0,-1,-1,-2,0,2,-10
1570179929450603,4,0,1,0,-2,-1,-2,8
1570179929464603,-1,-1,-1,0,1,0,-2,3
1570179929464603,-2,-1,-1,2,2,0,-1,-4
1570179929465564,0,-2,-2,-1,-1,-1,-1,0
1570179929465564,-2,-2,-1,0,0,0,0,-4
1570179929487503,1,0,-2,0,-1,0,1,2
1570179929487503,-3,-1,0,0,-1,-1,-1,-1
1570179929488159,-1,0,-1,-1,1,-1,-1,-9
1570179929488159,1,-1,1,0,1,-1,4,0
1570179929509446,1,-1,0,1,-1,0,-2,2
1570179929509446,-4,-3,-1,-1,-2,1,9,-18
1570179929510444,1,-2,-2,0,-3,-1,-1,-2
1570179929510444,-5,0,0,-1,-2,1,-3,-5
1570179929524442,0,0,0,-2,-1,0,0,4
1570179929524442,0,0,-3,1,0,0,2,10
1570179929525467,-5,-1,0,1,1,-2,2,-1
1570179929525467,5,1,-1,0,-2,0,1,3
1570179929546535,-2,-2,-1,-2,-1,-1,1,-4
1570179929546535,0,-1,1,0,0,0,-4,2
1570179929555215,-2,-1,0,-1,2,0,0,-1
1570179929555215,-1,-1,-2,1,-1,-1,-2,1
1570179929569288,-3,0,-2,0,1,-1,-1,-3
1570179929569288,1,-1,0,-1,-1,-1,-1,12
1570179929576266,-1,-1,1,1,-2,-2,-5,-14
1570179929576266,-1,0,-2,-1,-1,2,3,-1
1570179929583251,3,1,0,0,0,-1,5,21
1570179929583251,-2,0,-1,-1,0,-1,-2,-1
1570179929592226,-2,-1,-1,0,-1,-1,2,2
1570179929592226,0,0,-1,0,0,-1,0,2
1570179929607412,-2,-2,0,-2,-2,-2,-2,-6
1570179929607412,0,-1,-2,-1,-2,-2,-1,-6
1570179929609181,0,-3,-2,-1,-3,-1,11,0
1570179929609181,1,-1,-1,-1,-1,-2,-4,-2
1570179929629300,-4,-2,1,-1,-1,0,-1,-3
1570179929629300,1,0,-2,-2,-3,0,3,3
1570179929631231,-2,0,1,1,-1,0,-1,-1
1570179929631231,-1,0,-1,-1,0,0,1,0
1570179929643280,0,-2,1,1,1,-1,-1,-1
1570179929643280,1,0,1,1,-1,-1,-5,-15
1570179929652195,-2,-2,-1,-1,0,0,-3,0
1570179929652195,0,-1,-1,1,0,-1,-2,-1
1570179929667265,2,0,-1,-1,0,0,-1,1
1570179929667265,0,-2,-1,-1,0,-1,-2,2
1570179929668772,1,2,0,-1,0,0,0,6
1570179929668772,-4,-1,-1,-2,-3,-2,-5,-21
1570179929690040,0,-1,-2,0,-2,1,1,-4
1570179929690040,-1,1,0,0,-1,-3,-2,1
1570179929691069,-2,-1,-1,-3,-1,-1,-3,-5
1570179929691069,2,-1,0,-1,-1,0,2,7
1570179929703929,0,1,-2,-2,0,-1,-2,-3
1570179929703929,-1,-2,-1,-2,-1,-1,-2,2
1570179929711962,1,-1,0,-1,-2,-1,-2,2
1570179929711962,-5,-3,-1,-1,0,-1,8,-7
1570179929727190,0,1,0,-1,-1,-1,0,1
1570179929727190,0,0,-2,0,0,1,-1,-2
1570179929728862,2,-2,-2,-1,-1,1,-2,-1
1570179929728862,-2,-2,-1,0,-1,-1,1,1
1570179929749809,0,-1,0,2,0,-1,-2,-2
1570179929749809,-1,-1,-2,-2,0,-1,0,-3
1570179929750801,-3,1,0,-1,1,-2,3,7
1570179929750801,3,1,0,0,1,0,-3,7
1570179929764006,-1,-1,1,0,-1,-1,-2,-4
1570179929764006,-1,0,1,-1,1,0,-1,4
1570179929771054,2,-1,-1,0,-1,0,-4,-1
1570179929771054,1,-1,1,-1,-1,-1,-2,1
1570179929787704,-1,0,-1,-1,-2,-2,-2,0
1570179929787704,-1,0,0,-1,0,-2,-1,-2
1570179929788918,-1,-1,-2,-1,-1,-1,1,1
1570179929788918,-1,1,-1,-1,-1,0,-2,-4
1570179929809650,1,-1,-1,0,-1,0,2,-2
1570179929809650,-7,-2,-2,-2,-1,1,11,-19
1570179929811641,0,-1,-1,0,-1,0,-3,7
1570179929811641,3,0,-1,-1,1,0,-1,1
1570179929824127,-2,-2,1,-1,0,1,-1,-1
1570179929824127,0,-1,0,1,-1,0,-1,3
1570179929832583,2,2,1,1,1,1,0,1
1570179929832583,-2,0,-3,0,-1,-1,0,-2
1570179929847543,-1,-2,-2,0,-1,2,1,-2
1570179929847543,1,-1,-2,0,0,0,-2,4
1570179929848542,-1,0,-1,0,-1,-1,0,-3
1570179929848542,-5,-3,-1,0,-2,-1,-6,-11
1570179929869484,3,2,-1,0,-1,1,0,13
1570179929869484,1,0,-2,0,-1,1,-3,4
1570179929871478,-1,-1,-1,0,-1,-1,-1,1
1570179929871478,-1,0,-2,-1,0,-2,-1,-3
1570179929883504,-1,-2,-1,-2,-2,-1,-1,-2
1570179929883504,2,0,0,0,-1,-1,-4,2
1570179929891429,1,0,0,-1,0,1,0,-1
1570179929891429,0,0,0,0,1,0,0,2
1570179929907563,-2,0,-1,-1,0,1,-1,-4
1570179929907563,-2,-2,0,-1,-1,2,5,0
1570179929908442,4,1,-2,-1,-1,-3,-12,2
1570179929908442,0,0,1,0,-1,-1,0,4
1570179929929440,-2,-2,-2,0,-2,-1,0,-4
1570179929929440,-2,-1,-1,0,-1,-2,0,-5
1570179929931319,-3,0,-2,-1,-2,1,3,-2
1570179929931319,1,0,-1,-2,1,2,-1,3
1570179929943399,-2,1,0,0,-1,0,-4,-3
1570179929943399,-1,1,-1,-3,-2,-1,-3,1
1570179929952265,-1,-2,-2,-2,2,2,6,12
1570179929952265,2,1,1,1,0,-2,-4,-1
1570179929967381,-2,-1,-1,-1,1,-2,1,-4
1570179929967381,0,0,1,-1,0,0,-2,5
1570179929973384,-2,-2,-1,-1,-1,-1,0,-4
1570179929973384,-2,-1,0,-2,-2,-1,2,-1
1570179929989435,1,0,-1,0,0,-2,-1,-1
1570179929989435,1,0,-2,-1,1,0,-1,0
1570179929991160,0,-1,0,1,-1,0,-1,-4
1570179929991160,-1,-1,-2,-2,0,-1,1,0
1570179930003351,-2,-1,-1,0,-1,-2,-1,1
1570179930003351,0,-1,-1,-1,-1,-2,-3,-1
1570179930012107,-1,-2,1,-1,-2,0,1,-5
1570179930012107,0,-1,-2,-1,0,-1,-1,1
1570179930027244,0,-1,-3,-2,-1,1,5,3
1570179930027244,-2,-2,-1,0,0,1,0,0
1570179930029059,-4,-1,-1,-2,0,-2,-1,-17
1570179930029059,-3,-1,0,0,-1,1,-5,0
1570179930050002,-1,-1,-1,-3,0,0,0,-1
1570179930050002,-2,1,2,-1,-1,-1,-2,1
1570179930051380,-1,2,0,1,-1,-2,-3,-1
1570179930051380,0,-1,0,-1,-1,-2,2,-6
1570179930062968,1,0,0,0,0,-2,-1,-1
1570179930062968,0,0,-2,1,-1,-1,-1,-3
1570179930072177,1,-1,-2,-1,-1,0,1,3
1570179930072177,-1,0,0,1,0,1,1,-2
1570179930086904,1,1,-1,1,-1,-1,0,4
1570179930086904,0,-2,-1,0,0,-1,-4,1
1570179930088899,0,0,0,0,0,0,0,2
1570179930088899,1,-1,-1,-3,0,-1,2,4
1570179930109842,-2,-1,0,0,0,0,-1,-6
1570179930109842,1,-1,-1,-1,-2,-1,1,3
1570179930110844,0,-1,-1,-1,-1,1,1,1
1570179930110844,0,-1,0,0,-2,-2,-2,-2
1570179930122807,-1,-2,1,0,0,0,-1,-2
1570179930122807,-2,-2,0,-3,0,0,12,-13
1570179930132113,1,0,-1,-1,1,0,-2,2
1570179930132113,-2,-1,1,-1,0,1,3,14
1570179930146743,-1,0,-1,1,-2,-2,-2,1
1570179930146743,-6,-1,-2,1,0,0,-1,-2
1570179930148739,5,2,0,1,0,-1,1,7
1570179930148739,-2,0,-2,-1,0,-1,0,-7
1570179930169685,0,1,0,0,0,-1,2,-5
1570179930169685,3,0,1,-1,-2,-2,-6,-1
1570179930170749,-2,-1,-1,-1,-2,-1,-1,-1
1570179930170749,2,-2,0,1,0,0,-4,0
1570179930183644,-1,-1,-1,-2,-1,0,-1,0
1570179930183644,-1,1,1,-1,-1,-2,-4,2
1570179930192619,-2,0,-1,0,0,-1,0,-3
1570179930192619,0,-2,0,0,-2,1,-1,-4
1570179930206630,1,-1,0,0,2,0,-1,0
1570179930206630,1,-1,-1,-1,-1,1,-1,2
1570179930208576,-2,1,-1,-1,0,-2,-1,-6
1570179930208576,-1,1,0,-1,-1,0,0,-1
1570179930229519,1,-1,-1,0,0,0,2,14
1570179930229519,1,-1,-2,-1,1,0,-2,2
1570179930231517,-6,-3,0,-1,-1,0,9,-17
1570179930231517,1,-1,-3,0,-1,1,-5,3
1570179930243603,-1,0,-1,-1,-1,0,-1,-1
1570179930243603,0,1,-3,-2,0,-1,1,-4
1570179930252460,0,0,1,-1,-1,0,1,3
1570179930252460,0,-1,0,-1,-2,-3,-2,-2
1570179930267442,-2,-1,-3,-1,-2,-1,-2,-4
1570179930267442,3,0,-2,1,0,1,-2,3
1570179930268416,1,-2,-1,-1,1,-1,-4,-2
1570179930268416,-1,0,0,-1,0,0,1,1
1570179930289361,-1,-3,-1,-3,-1,0,-3,-2
1570179930289361,-3,0,0,0,-2,-2,-2,-4
1570179930291400,1,0,0,0,-2,-1,-2,9
1570179930291400,0,-1,-2,-1,0,0,2,-1
1570179930303322,0,0,2,0,0,0,1,-2
1570179930303322,-1,0,1,1,-1,1,1,0
1570179930312299,1,0,-1,1,-1,0,-2,0
1570179930312299,-1,-1,0,-1,-2,0,1,10
1570179930327258,0,-1,-2,-1,-1,-1,0,1
1570179930327258,0,0,1,0,1,-2,-1,0
1570179930328257,-2,-1,0,-2,0,-1,-2,4
1570179930328257,-4,-1,0,-2,0,-2,-2,-6
1570179930349201,1,-1,-1,0,-2,-1,-3,0
1570179930349201,0,0,1,1,-2,-2,-9,11
1570179930351406,-2,-1,-1,0,-2,1,3,1
1570179930351406,-2,-1,-1,-1,0,-3,0,-6
1570179930363659,0,0,-1,-1,0,-2,-3,0
1570179930363659,0,-1,-2,-1,0,-1,2,-3
1570179930372351,0,-1,-1,-1,-2,-1,0,2
1570179930372351,1,-1,-2,1,-1,0,-2,1
1570179930386519,-1,-1,0,0,-1,0,2,0
1570179930386519,-1,-2,0,-1,0,-1,0,-1
1570179930388512,-2,-1,-2,0,1,-2,0,-2
1570179930388512,-2,-2,-1,0,0,2,2,-1
1570179930409599,-1,-1,-1,-1,-1,-1,1,-4
1570179930409599,1,0,-1,-3,0,1,2,0
1570179930411452,1,1,1,1,-1,-2,-1,13
1570179930411452,0,-1,0,0,0,-2,-1,-2
1570179930431764,0,-3,-1,-2,-1,1,0,-4
1570179930431764,-1,-1,0,0,0,1,-1,-3
1570179930433759,-1,-2,-2,-1,-1,-1,-1,-5
1570179930433759,-1,1,0,0,-2,-1,0,0
1570179930446934,-3,-1,-2,0,-1,0,7,-1
1570179930446934,-1,-2,-1,0,-3,-2,0,-4
1570179930448823,-1,-2,0,-2,0,0,-1,-4
1570179930448823,-1,-1,0,0,0,-1,-5,-3
1570179930469684,0,0,-2,-2,0,0,2,2
1570179930469684,-1,-2,-1,-1,0,0,-1,-1
1570179930471532,0,-1,0,-1,0,0,-2,0
1570179930471532,-1,-1,-1,-2,-1,0,4,-11
1570179930491966,-1,1,2,-1,0,-1,-5,-4
1570179930491966,-2,0,-4,-1,1,0,1,0
1570179930493671,-1,0,-1,0,-2,-2,-3,-4
1570179930493671,0,-2,-2,0,-1,-1,0,6
1570179930506680,2,0,1,1,1,-1,1,16
1570179930506680,0,-1,0,0,-1,-2,-1,1
1570179930508632,0,0,-1,-2,0,0,0,-2
1570179930508632,-1,0,0,-1,-1,0,-1,2
1570179930529746,0,0,0,-1,-2,-2,-3,-3
1570179930529746,0,0,-2,-1,0,-1,0,0
1570179930530742,-4,-3,1,0,0,-1,-1,-4
1570179930530742,-1,-1,-2,-1,-2,-2,7,-9
1570179930551972,2,-1,1,0,-1,-3,-10,2
1570179930551972,-2,-1,0,-1,0,-1,-1,-2
1570179930553749,-2,0,-2,-1,-2,1,-1,-5
1570179930553749,-1,-1,-2,0,1,1,1,-1
1570179930566780,-4,0,-1,-1,-1,-1,1,-5
1570179930566780,3,0,0,2,0,-2,-1,7
1570179930573819,2,0,0,0,-1,-2,-3,0
1570179930573819,-1,-1,-1,-1,0,-1,-2,2
1570179930589779,-3,-1,-2,-1,-1,-1,1,0
1570179930589779,-2,-2,0,-1,-2,1,-1,-1
1570179930591860,0,0,-1,0,0,1,1,-1
1570179930591860,0,1,0,-1,0,0,-4,5
1570179930611719,1,0,1,-2,0,0,-2,-6
1570179930611719,-3,-1,-1,-1,-2,-1,1,-5
1570179930613785,-2,-2,-2,-2,-2,0,-2,-1
1570179930613785,0,0,0,1,-1,-1,-2,-1
1570179930626682,0,1,-1,0,0,-1,-2,-2
1570179930626682,-1,-2,1,0,0,-1,2,-5
1570179930633660,4,3,1,2,0,-2,-15,17
1570179930633660,-1,0,0,1,-1,0,-2,0
1570179930649939,1,1,-1,1,0,1,2,2
1570179930649939,0,0,0,-1,-1,-2,0,-1
1570179930650800,-2,0,-2,-1,-1,0,3,-7
1570179930650800,-2,0,-1,0,0,1,1,5
1570179930671788,0,-3,-3,0,-1,-1,-6,-10
1570179930671788,-1,0,0,-2,0,1,-2,-2
1570179930674010,0,-2,0,-1,-1,-1,1,-2
1570179930674010,1,-2,1,-1,-2,0,0,3
1570179930686706,-1,0,-1,0,-1,1,7,12
1570179930686706,1,-1,-1,2,0,-1,-1,1
1570179930693687,-1,-1,-1,-1,3,0,1,-5
1570179930693687,1,2,0,0,1,0,-3,-1
1570179930709644,-4,-1,-1,-2,0,0,-1,-9
1570179930709644,0,-2,0,-1,0,0,-1,5
1570179930710641,-1,-1,-3,0,-2,-2,1,0
1570179930710641,1,-1,-3,-1,0,-1,0,1
1570179930731584,0,-1,-1,0,-1,-2,0,-2
1570179930731584,-2,0,0,-1,-1,-1,-1,-2
1570179930733578,-4,0,0,0,0,-2,2,-8
1570179930733578,0,-1,-1,-2,0,-1,0,6
1570179930746844,-1,-2,-2,0,-1,1,-1,-4
1570179930746844,3,2,1,2,0,-1,-13,15
1570179930753525,-2,1,-1,0,-2,0,1,0
1570179930753525,-1,0,0,0,-1,1,0,-4
1570179930769978,0,-1,0,-3,-2,-1,-2,7
1570179930769978,-6,-1,-1,-2,-2,0,3,-8
1570179930771477,-1,0,-1,0,0,-1,0,0
1570179930771477,1,0,0,0,0,2,0,16
1570179930791023,-2,-1,1,1,-1,-1,1,-5
1570179930791023,2,-1,-1,-1,0,0,3,-2
1570179930800001,0,-1,-1,-1,-2,1,-1,-3
1570179930800001,-2,-2,-1,-2,0,-2,-1,-7
1570179930807318,-1,2,0,1,-1,-2,-1,0
1570179930807318,-2,-1,0,-1,-1,-1,-1,-5
1570179930812966,1,-1,-1,-1,0,-1,-1,0
1570179930812966,-1,-1,-1,-1,-2,-2,-1,-6
1570179930830080,-1,1,0,-1,-2,1,0,-1
1570179930830080,-2,-1,-2,0,0,0,0,-5
1570179930830917,1,-1,1,0,0,-2,0,-4
1570179930830917,-1,0,0,0,0,-2,0,-4
1570179930852013,1,-1,-1,-1,0,0,0,3
1570179930852013,-2,0,-1,-2,-3,0,2,-1
1570179930853863,-1,0,0,0,-2,1,0,-1
1570179930853863,-3,-3,-1,0,-3,0,-1,-5
1570179930866823,1,0,1,2,-2,-2,-2,-1
1570179930866823,-1,-1,-2,0,-1,-1,1,-2
1570179930872805,1,-1,-1,-1,-1,0,0,2
1570179930872805,-2,0,-1,1,0,-1,-1,-4
1570179930889925,-3,-2,-1,-2,-1,1,0,-5
1570179930889925,1,-2,-1,-2,-1,1,0,0
1570179930891162,-2,-2,1,-1,0,-1,0,-1
1570179930891162,-1,-1,-1,1,0,-1,-2,-3
1570179930912864,-1,0,-2,0,1,-2,0,0
1570179930912864,-1,-1,-1,-1,0,0,0,0
1570179930913863,-2,-2,-2,-1,0,0,-5,-13
1570179930913863,-3,-2,-2,-3,0,1,8,-11
1570179930925829,3,2,1,0,-1,-1,-9,4
1570179930925829,-1,0,-1,-1,0,0,-1,-2
1570179930940789,0,1,2,-1,0,-1,0,1
1570179930940789,-1,0,-2,-2,-1,-2,1,4
1570179930949874,1,-2,0,-1,-1,-1,1,-6
1570179930949874,-1,0,-2,-1,-1,-2,1,1
1570179930950764,0,0,0,0,-2,-1,-2,-1
1570179930950764,1,0,0,-1,0,-2,-4,4
1570179930971706,-1,-2,-2,-2,0,0,1,4
1570179930971706,2,1,1,-1,-1,-1,-3,-1
1570179930974206,-2,-1,-2,0,1,0,2,2
1570179930974206,2,-1,-1,-2,-1,-1,-2,0
1570179930985672,-2,-2,-1,-1,-1,0,0,-4
1570179930985672,1,0,1,1,-2,-2,2,-1
1570179930994646,-2,-2,-3,1,-1,0,2,2
1570179930994646,1,0,1,-1,-1,0,-3,-3
1570179931009608,-3,-1,-1,-2,-1,-1,-3,1
1570179931009608,1,-1,-1,0,1,0,0,1
1570179931011599,1,0,1,1,-2,-2,0,3
1570179931011599,2,-1,0,-2,0,-1,1,16
1570179931032546,-3,-1,-2,1,-1,-1,2,-5
1570179931032546,-1,0,-1,-2,-2,0,-1,0
1570179931033677,0,1,-1,0,0,0,0,2
1570179931033677,-3,-2,-1,0,-1,1,-2,-8
1570179931045510,-1,-2,-1,0,-2,0,0,1
1570179931045510,-5,-1,0,0,0,0,11,-16
1570179931054486,2,0,0,-1,-2,1,-6,0
1570179931054486,-3,-2,0,0,-1,-3,-3,-1
1570179931069446,1,1,-1,1,0,0,0,-1
1570179931069446,0,-1,-2,-1,-1,1,0,1
1570179931071533,-2,-2,0,-2,-1,1,2,-1
1570179931071533,0,-1,-1,-1,1,0,-1,-1
1570179931092390,2,-1,0,-2,-2,0,0,-1
1570179931092390,1,0,-2,0,1,-1,-3,6
1570179931093382,-1,-2,-1,-2,0,0,1,3
1570179931093382,-2,0,-2,-2,0,-2,-3,2
1570179931105349,0,0,-1,-1,0,1,0,1
1570179931105349,-1,0,-2,1,0,-3,-5,-1
1570179931114324,-1,-2,-2,-2,0,-2,2,-5
1570179931114324,1,0,0,0,-2,-1,2,2
1570179931129284,-2,-3,-1,-1,0,0,1,-3
1570179931129284,1,-2,1,-2,0,1,-3,2
1570179931131278,0,-1,-3,0,-1,-1,0,2
1570179931131278,-5,-3,-1,0,-2,-1,-3,-21
1570179931152357,0,-1,1,-1,-1,-2,0,1
1570179931152357,0,-1,0,-1,-1,-1,-3,-1
1570179931153221,0,-2,-1,-1,0,0,0,3
1570179931153221,0,0,0,1,-1,-1,-2,-1
1570179931165189,-1,1,-1,-1,0,-1,-1,-2
1570179931165189,0,-2,-1,-1,-2,-2,2,3
1570179931175163,0,-1,-2,1,-1,-1,-2,-4
1570179931175163,-3,0,-1,0,-1,-1,-1,-1
1570179931190122,0,-3,-2,0,-2,-1,3,5
1570179931190122,-1,-2,0,0,0,0,0,8
1570179931191119,-2,-1,-1,0,-1,0,0,-6
1570179931191119,0,-1,0,-1,-1,0,-2,5
1570179931219080,-2,-1,0,0,-1,-1,2,-1
1570179931219080,-3,0,0,-1,-1,-1,-1,-5
1570179931221041,-1,-1,1,1,0,0,-2,-1
1570179931221041,1,-1,-1,0,-1,0,4,-2
1570179931226025,-3,0,-1,-1,-1,0,0,-4
1570179931226025,0,0,0,-1,-1,1,-1,-3
1570179931235004,-1,-1,-1,-1,0,-1,0,1
1570179931235004,1,-1,0,0,0,-1,-1,0
1570179931249962,-1,-2,-3,-2,0,0,-1,0
1570179931249962,-1,-1,-1,0,-1,-2,-8,-14
1570179931250962,2,1,1,-1,-2,-1,3,2
1570179931250962,0,-1,0,0,-2,-1,-2,1
1570179931272041,0,-1,-2,0,-2,-3,-2,2
1570179931272041,0,-2,-3,0,0,0,1,-2
1570179931273899,-2,0,-1,-2,0,-2,-3,6
1570179931273899,1,-1,0,0,0,0,0,-3
1570179931285949,-1,-1,0,-1,-1,-1,-1,-2
1570179931285949,0,-1,-1,0,-1,-1,0,1
1570179931295044,-1,-1,0,-1,-1,-1,0,-2
1570179931295044,2,2,-1,-2,0,-1,1,11
1570179931309802,-2,-2,-2,-1,0,-1,-3,-5
1570179931309802,-3,0,0,-1,-1,-2,0,2
1570179931310799,0,1,0,1,-3,0,0,0
1570179931310799,-1,0,0,-1,-1,-1,-1,-4
1570179931331743,1,0,0,1,0,-1,0,-2
1570179931331743,5,0,0,1,2,0,-17,18
1570179931333742,-2,-1,-1,-1,0,0,-1,-7
1570179931333742,1,-1,-2,0,0,-2,0,-2
1570179931354691,4,1,0,1,0,-1,-2,9
1570179931354691,-1,-2,1,0,-2,-3,4,-2
1570179931356678,-2,-1,-1,-1,1,-1,0,-2
1570179931356678,-1,-1,1,-1,1,1,-2,1
1570179931369728,-1,0,0,-1,0,0,1,-2
1570179931369728,-1,-1,-1,-1,-2,1,0,-6
1570179931371023,1,-3,-1,1,-1,-2,0,0
1570179931371023,-4,-2,-1,1,-1,0,1,-3
1570179931391586,-1,0,-1,-1,-2,2,-3,-11
1570179931391586,-2,-3,-3,-1,0,0,-1,-15
1570179931393577,-1,0,-1,-2,-1,-2,-2,1
1570179931393577,2,1,-1,-2,-1,-1,0,2
1570179931414522,-2,-2,-1,0,0,-1,0,1
1570179931414522,0,-1,1,-1,-1,1,2,2
1570179931416517,0,-1,-1,0,-2,1,-1,-3
1570179931416517,-2,-2,-1,0,-2,-3,-2,-2
1570179931429482,-2,0,0,-1,-1,0,-2,-3
1570179931429482,0,0,-2,-1,-1,0,3,3
1570179931430479,-1,-1,-2,-1,0,0,0,3
1570179931430479,0,1,1,-1,1,-2,-1,1
1570179931452422,0,-2,0,-1,2,0,-1,-1
1570179931452422,-1,1,0,0,-1,0,1,0
1570179931453419,0,0,0,0,-1,-1,-2,-1
1570179931453419,-2,-1,-3,0,-3,0,-1,-1
1570179931474496,-1,0,0,1,1,-1,-1,3
1570179931474496,-5,-1,-1,-1,1,-1,4,-5
1570179931476358,10,1,0,-1,0,-3,-12,22
1570179931476358,-2,-2,0,-1,-2,-1,1,-4
1570179931488358,-1,0,-1,0,-1,-2,-1,-1
1570179931488358,0,1,0,-1,-1,0,1,0
1570179931497300,0,0,-1,-1,0,2,5,-5
1570179931497300,-1,-2,-2,-2,1,0,-2,3
1570179931512373,2,0,0,0,-1,-1,-4,4
1570179931512373,-1,0,-1,1,-2,0,-2,1
1570179931513260,-5,-1,-1,-1,0,-1,2,-5
1570179931513260,1,0,1,1,-2,-3,-2,-4
1570179931534210,-2,-1,0,1,0,1,3,-5
1570179931534210,1,-1,-1,-3,0,0,-2,-2
1570179931536196,-2,0,0,0,-1,0,1,-7
1570179931536196,-1,-1,-1,-1,-3,1,-2,-3
1570179931549164,0,-2,-2,-1,-1,-2,0,0
1570179931549164,0,-1,-1,0,0,-2,1,0
1570179931556144,-2,-2,0,0,-1,-1,0,1
1570179931556144,0,-1,-1,0,0,-1,-2,3
1570179931572265,1,-1,-1,-2,-2,-1,-1,-6
1570179931572265,1,-1,-2,-2,-1,1,-2,1
1570179931574096,-1,1,-2,-1,0,-1,0,-3
1570179931574096,-2,-1,0,0,0,1,1,0
1570179931594285,-2,0,1,-1,0,1,-1,-3
1570179931594285,1,0,1,-1,0,-1,1,3
1570179931596037,-1,0,-2,-1,0,0,-1,-3
1570179931596037,3,1,0,-1,0,-2,-17,3
1570179931609002,5,0,-3,-1,-1,-1,4,21
1570179931609002,-2,-2,0,0,-1,-2,-2,-6
1570179931615130,1,0,-1,0,-1,1,1,3
1570179931615130,-3,-1,-2,0,-2,-1,3,-8
1570179931632114,-1,-1,-1,-1,0,1,-1,-4
1570179931632114,-2,-1,-1,0,0,-1,-2,3
1570179931633936,0,0,-1,0,-2,0,2,-2
1570179931633936,-1,0,-1,-1,0,-1,2,-2
1570179931654884,-2,-1,1,0,0,-1,-3,-1
1570179931654884,-3,-1,-2,-1,-3,0,2,2
1570179931655878,-4,-2,0,0,-2,-2,-2,-7
1570179931655878,1,1,-2,0,0,0,4,2
1570179931668845,-2,1,0,0,1,-1,0,8
1570179931668845,-1,0,0,-1,0,-1,-2,-5
1570179931675828,0,-1,-2,-1,1,0,-1,-2
1570179931675828,0,-1,-1,-1,-1,1,-1,1
1570179931692322,-3,0,0,-1,-3,-1,1,-4
1570179931692322,1,0,-1,-1,-1,-1,1,2
1570179931693777,0,-1,-1,-2,-1,-2,-1,-1
1570179931693777,-2,0,1,0,-1,0,1,-1
1570179931714722,-2,-2,0,-2,-1,0,2,-3
1570179931714722,0,0,-1,-2,0,0,-1,1
1570179931720705,0,0,0,-1,-1,0,0,4
1570179931720705,0,0,-2,0,-2,-2,1,3
1570179931728792,0,-1,-2,-2,0,1,0,-5
1570179931728792,1,-1,-1,1,0,0,1,2
1570179931735667,-2,0,0,-1,0,-1,0,0
1570179931735667,-7,-2,-1,-1,-2,0,2,-12
1570179931751624,6,0,-1,0,-1,-1,-1,14
1570179931751624,1,0,-2,-2,-2,-2,-1,-4
1570179931753994,-1,0,-2,0,0,1,-1,0
1570179931753994,1,1,0,-1,1,-1,-2,-9
1570179931774561,-2,3,0,-1,1,-1,-1,-6
1570179931774561,-3,-2,2,1,0,1,-2,0
1570179931776916,0,-2,0,0,-1,0,1,-1
1570179931776916,1,-1,0,0,0,-1,0,4
1570179931788532,0,-1,-1,0,-2,0,-1,-2
1570179931788532,1,-1,-2,0,-1,-1,2,-1
1570179931795505,0,-1,-2,1,0,-1,-1,-2
1570179931795505,0,-2,0,-1,0,0,0,1
1570179931812462,-2,0,-1,-1,0,-1,-1,-2
1570179931812462,-3,0,1,0,0,-1,-1,-3
1570179931813540,0,-1,-1,0,-3,0,-1,-1
1570179931813540,0,0,1,0,-1,-1,-2,0
1570179931834404,-1,-1,-2,1,0,0,0,-2
1570179931834404,0,-1,0,-1,0,1,1,-2
1570179931836395,-3,-1,-1,-2,-1,0,-1,-4
1570179931836395,1,-1,-1,-1,-1,0,0,2
1570179931849359,-1,-1,0,0,1,0,-1,-2
1570179931849359,0,0,-2,0,0,-2,-2,1
1570179931855345,-1,1,-2,-2,-1,-1,0,-2
1570179931855345,-1,0,-1,-1,0,1,1,3
1570179931872306,-3,-2,-1,-1,-2,0,0,2
1570179931872306,0,-2,-1,-1,-1,-1,-2,-11
1570179931873299,0,0,-1,-1,-2,-1,2,1
1570179931873299,-2,-3,-1,0,0,-2,0,-1
1570179931894241,1,0,-1,-1,0,0,-2,3
1570179931894241,-2,0,-1,1,0,0,0,2
1570179931896234,1,0,0,-1,0,2,1,14
1570179931896234,-2,-1,-2,-2,-1,0,1,-1
1570179931908243,-1,0,2,-1,-2,-2,-3,-4
1570179931908243,0,0,0,-2,-2,1,-2,-3
1570179931917179,-4,-1,0,-3,-1,1,11,-17
1570179931917179,2,0,-1,-1,-1,1,-2,4
1570179931932732,-3,-1,-1,-1,-2,0,-1,-14
1570179931932732,1,-2,-2,-3,0,0,-1,5
1570179931934133,-1,-1,0,1,-1,-2,-4,-4
1570179931934133,2,-2,0,-3,-2,2,0,0
1570179931954206,-1,-2,-1,0,1,-1,-1,-3
1570179931954206,-3,-1,-1,-2,0,-1,2,-7
1570179931957073,2,0,-1,0,0,0,-4,0
1570179931957073,1,1,2,2,0,-1,4,13
1570179931969040,1,0,-1,0,-1,-1,-2,2
1570179931969040,0,0,1,0,-3,0,-1,6
1570179931977020,0,1,0,-1,0,-2,-3,2
1570179931977020,-3,-1,-4,-1,-1,0,-4,-6
1570179931992105,0,-1,-1,-3,-1,1,3,-1
1570179931992105,0,-1,-1,0,0,0,1,2
1570179931993973,-1,-2,-1,-1,-1,0,0,1
1570179931993973,3,3,1,1,-2,-3,-16,12
1570179932014919,-4,-3,-2,-1,-1,0,-1,4
1570179932014919,-1,-1,-1,-4,1,0,0,-1
1570179932015915,1,-1,-1,-1,-1,-1,-3,1
1570179932015915,-4,-1,-2,-1,-1,-1,3,-11
1570179932027892,0,-1,-1,1,0,0,-1,1
1570179932027892,0,-1,-2,-1,-2,0,-4,4
1570179932037038,-1,0,-2,0,-1,-1,1,-3
1570179932037038,-4,-1,1,-1,1,-3,1,-7
1570179932051821,1,0,1,-1,-2,0,0,3
1570179932051821,0,-2,-1,1,0,-1,1,-6
1570179932053813,1,0,0,-2,0,0,1,3
1570179932053813,-2,-1,-2,1,-2,0,-2,-9
1570179932074903,0,-1,-2,0,0,-2,-1,0
1570179932074903,-1,0,-1,-1,3,-1,-1,-2
1570179932075754,1,-2,-2,-1,0,0,-2,5
1570179932075754,1,-1,-1,0,0,-2,-1,-8
1570179932088721,0,1,0,-4,-1,-1,1,0
1570179932088721,0,0,0,0,-3,-2,0,6
1570179932097699,-3,-2,-1,-1,-2,0,-3,-5
1570179932097699,-2,0,-1,0,0,0,2,0
1570179932111697,-1,-1,-1,0,0,-1,-1,1
1570179932111697,0,-1,0,0,-1,-1,-3,-2
1570179932113805,-1,-2,-1,-2,-2,-2,-2,-1
1570179932113805,-1,-1,-1,-2,-1,1,2,0
1570179932134602,0,-2,0,-3,0,-1,-1,-3
1570179932134602,-2,-1,-2,0,-2,-2,-1,2
1570179932136593,-3,-1,-1,1,0,1,8,-4
1570179932136593,0,-2,0,0,0,0,1,0
1570179932148561,-2,-1,0,1,-2,-1,1,-1
1570179932148561,2,-1,-1,-1,0,-1,-2,2
1570179932157636,1,1,-2,0,0,-3,-1,2
1570179932157636,-1,0,-2,-2,0,-2,1,2
1570179932172500,-1,0,0,0,-1,-1,-2,-2
1570179932172500,-2,0,0,-1,-1,0,4,-6
1570179932173498,-1,0,0,-1,0,0,-4,-2
1570179932173498,-1,0,-1,1,0,0,-1,1
1570179932194441,1,-1,-2,0,-1,0,-2,-1
1570179932194441,0,-1,-1,-1,-1,0,-1,1
1570179932196432,1,-1,0,-2,-1,0,-2,0
1570179932196432,-4,-1,-1,0,-2,-2,-1,-1
1570179932208444,0,1,-1,-2,-1,0,1,-1
1570179932208444,-2,-1,2,-1,0,-1,0,4
1570179932217376,-1,-1,0,-1,-1,1,-2,1
1570179932217376,0,-1,-2,-1,-1,-2,1,-2
1570179932232335,-2,-1,-1,1,-2,-1,0,-2
1570179932232335,2,0,0,0,0,1,-2,0
1570179932233862,-1,-1,-1,1,0,-1,-3,-7
1570179932233862,0,0,0,-2,1,-1,0,0
1570179932254280,-3,0,0,-1,1,-2,-2,-3
1570179932254280,0,-1,-2,-1,-1,-1,1,3
1570179932256273,-1,-2,-2,-1,-2,-1,0,2
1570179932256273,0,-1,0,-1,0,-1,-1,-2
1570179932268243,-1,-1,-1,-1,-1,0,0,1
1570179932268243,-4,-1,0,0,-1,-1,1,-4
1570179932277216,-1,0,0,1,0,-2,-2,3
1570179932277216,0,-2,0,1,-1,2,0,1
1570179932292330,-1,0,0,0,-1,2,-1,-2
1570179932292330,1,0,0,-1,0,-3,-1,1
1570179932298161,1,1,-3,-1,-1,0,-1,0
1570179932298161,-1,-2,-2,-2,-1,0,-1,0
1570179932314270,0,-1,-1,0,-2,0,1,0
1570179932314270,-2,0,-1,-1,-1,1,0,-2
1570179932316199,-1,0,1,0,-1,-1,-3,-12
1570179932316199,2,0,-2,-2,0,-1,2,3
1570179932337244,-3,-1,-1,-2,-1,-2,1,-1
1570179932337244,5,-1,-3,1,-1,0,0,5
1570179932339050,-3,0,0,1,1,-1,-1,0
1570179932339050,-1,-2,-1,-2,-1,-1,-2,-2
1570179932352323,0,-1,-1,-2,2,0,-2,0
1570179932352323,-1,0,-1,-2,-1,0,-2,-2
1570179932354011,0,0,-1,-2,2,-2,0,2
1570179932354011,0,1,-2,0,0,-1,-3,0
1570179932374965,1,0,-1,-2,-1,-1,-1,-1
1570179932374965,-5,-2,-2,0,0,-1,-7,-17
1570179932375951,0,0,0,-1,-2,-1,2,2
1570179932375951,0,0,-1,0,-2,-1,-2,-2
1570179932396895,-2,-2,0,1,0,-3,-1,-4
1570179932396895,2,-1,0,-1,0,-2,1,-4
1570179932398891,-1,-1,-1,-1,-2,-1,-1,2
1570179932398891,0,-2,-1,0,2,1,0,-2
1570179932411857,0,1,0,1,1,0,-1,0
1570179932411857,0,-1,-1,-2,0,1,0,2
1570179932418068,-1,-2,-1,-2,0,-1,-1,-1
1570179932418068,-3,0,0,-2,-2,0,1,0
1570179932441777,0,-1,0,-1,0,1,-1,3
1570179932441777,-2,0,0,1,-1,-1,1,3
1570179932443770,-1,0,-2,0,-1,0,0,0
1570179932443770,-1,-2,0,1,-1,0,-2,-4
1570179932456843,0,-2,-1,-2,0,-1,-1,0
1570179932456843,-2,-1,0,-2,-1,0,0,0
1570179932458740,-3,-2,-2,0,0,1,0,5
1570179932458740,3,0,-1,-2,-1,0,-1,1
1570179932471696,0,0,-1,-1,-1,0,0,-1
1570179932471696,0,1,-1,-2,-1,0,2,6
1570179932478680,-1,0,1,-2,0,-2,-2,-1
1570179932478680,-2,0,0,-2,0,-1,0,-1
1570179932494663,3,0,-2,-1,0,-1,1,4
1570179932494663,-2,-1,-2,0,-1,0,-3,-12
1570179932496674,1,-1,-1,-1,-2,-1,-2,-2
1570179932496674,-1,1,0,1,0,1,0,0
1570179932517574,0,-1,-2,0,-2,0,0,-2
1570179932517574,-2,0,0,0,-1,-1,0,3
1570179932518570,1,0,-2,-2,0,-1,0,0
1570179932518570,-3,0,0,-1,-2,-2,-1,-2
1570179932531539,-1,-2,0,0,-1,1,-3,6
1570179932531539,1,-1,1,1,1,-1,0,5
1570179932538517,2,-2,1,-1,-1,0,1,1
1570179932538517,-1,-1,-2,0,0,0,0,-2
1570179932554485,-4,0,0,-2,-1,-2,-1,-6
1570179932554485,-2,0,-1,0,-1,-1,0,1
1570179932556470,0,0,0,-2,1,1,0,-3
1570179932556470,0,-1,-1,-1,-1,-1,-1,-1
1570179932577415,1,-1,-2,0,-1,-1,-2,1
1570179932577415,0,0,-2,-2,-1,0,0,1
1570179932578410,-3,-1,0,0,2,0,-1,-5
1570179932578410,0,-3,-1,0,0,-1,2,1
1570179932591378,-1,-1,0,-1,0,0,-1,-1
1570179932591378,-2,-1,0,-1,-2,-2,-1,-4
1570179932605339,0,1,1,1,0,-2,-2,0
1570179932605339,3,-1,0,1,1,0,5,20
1570179932614450,-1,-1,0,0,-2,-1,-1,-2
1570179932614450,1,0,-2,-1,0,1,-2,-10
1570179932616313,-1,0,-2,0,-2,1,0,1
1570179932616313,-1,-1,0,-1,-1,-1,-3,-5
1570179932637338,0,-1,-2,-1,0,1,1,-2
1570179932637338,-2,-1,1,0,-1,1,-2,1
1570179932638251,2,1,0,-1,-1,0,-1,-4
1570179932638251,-4,-3,-1,-1,-1,1,13,-17
1570179932651260,1,0,0,-1,1,0,-2,1
1570179932651260,0,-2,-1,-1,-1,-1,-1,3
1570179932658359,-2,0,0,0,-1,0,0,-3
1570179932658359,-2,-1,-1,-1,-1,-1,0,-2
1570179932674259,0,0,0,-1,0,1,0,2
1570179932674259,0,-1,1,2,-1,0,1,0
1570179932676149,1,0,-2,-2,0,-1,-3,4
1570179932676149,1,2,0,-2,-2,-1,-5,2
1570179932697093,-2,-1,-1,0,-1,-1,-2,-7
1570179932697093,0,1,-1,-1,0,-1,-2,3
1570179932699089,-1,-2,-1,-1,0,0,0,-2
1570179932699089,0,1,-1,0,0,-2,-5,-3
1570179932711058,0,-1,0,0,-1,-1,1,1
1570179932711058,-2,-1,-1,1,-1,-1,4,0
1570179932718040,-3,-2,-1,0,-1,0,-4,-4
1570179932718040,4,1,1,1,0,0,1,20
1570179932734993,-1,-2,-2,-1,-1,0,0,0
1570179932734993,0,0,-1,-1,-1,-1,-1,0
1570179932736047,-1,0,-2,1,-1,0,1,-1
1570179932736047,-3,0,-1,0,0,-1,-6,-6
1570179932756935,1,-2,-2,-2,-2,0,-1,2
1570179932756935,1,0,0,-1,-1,1,1,8
1570179932758929,-2,-1,1,-1,-1,-1,-2,4
1570179932758929,-2,-1,-1,-1,-3,0,-2,-5
1570179932771894,-1,1,1,0,0,-2,0,-2
1570179932771894,-1,-1,0,-2,-2,0,0,-6
1570179932777879,0,0,-1,0,0,1,1,0
1570179932777879,-1,-1,0,-1,0,0,0,-1
1570179932794832,-1,0,-1,1,-1,-1,-1,-1
1570179932794832,0,-1,0,0,-1,-1,-2,1
1570179932795831,0,0,-1,-1,-2,-1,1,0
1570179932795831,0,-2,-1,-1,-1,0,-2,-2
1570179932816780,-1,-1,-1,-2,-1,0,-1,-2
1570179932816780,2,1,0,0,-1,-2,1,-1
1570179932818768,-1,-1,-1,0,-2,-1,0,1
1570179932818768,-1,-1,0,-1,1,-2,-3,-6
1570179932839718,0,-1,-1,-2,-1,-2,0,0
1570179932839718,-2,0,-1,-2,-1,0,-2,0
1570179932840710,-5,0,0,0,-1,0,-1,-7
1570179932840710,6,1,-2,-2,-1,-1,-1,13
1570179932854714,0,-1,-2,0,-1,-1,-1,1
1570179932854714,-2,-1,-2,0,1,-1,-3,-6
1570179932855671,-1,0,0,0,0,0,-1,-4
1570179932855671,-2,-1,-1,0,-3,0,-3,-2
1570179932885590,-1,0,-1,0,-1,-1,0,0
1570179932885590,-4,-1,-3,-1,-1,-1,-4,-16
1570179932886589,2,-1,-1,-1,0,-2,0,1
1570179932886589,-1,0,-2,-2,0,1,-2,-2
1570179932890711,-1,0,0,0,1,0,0,-1
1570179932890711,-2,-1,1,-2,0,-1,0,-1
1570179932905537,3,-1,-1,-1,-1,-2,0,2
1570179932905537,-2,-1,-1,0,0,-1,1,-4
1570179932914513,0,0,1,0,0,-1,1,-1
1570179932914513,0,0,-1,1,-1,-1,0,0
1570179932916508,1,-1,0,-1,-1,0,1,7
1570179932916508,-1,-1,-1,-1,0,0,1,0
1570179932937453,-1,-1,0,-1,0,1,0,-2
1570179932937453,-1,0,-1,-2,-1,0,-1,0
1570179932938448,-3,0,1,-2,-1,0,-2,-7
1570179932938448,-4,-5,-2,0,-1,1,12,-17
1570179932950417,-1,1,-1,-1,-1,-2,-5,0
1570179932950417,2,-2,0,-1,0,0,0,6
1570179932959477,-4,-1,-1,-1,1,0,-2,-4
1570179932959477,-2,0,0,0,-1,-2,-1,0
1570179932974352,-1,-2,0,-1,-1,-1,-1,1
1570179932974352,1,0,-1,0,0,2,0,5
1570179932976347,1,0,-1,0,1,-1,0,-4
1570179932976347,1,-3,-1,0,1,-1,-4,3
1570179932997290,-3,-2,0,-1,0,-1,0,-2
1570179932997290,2,2,-2,1,-1,0,-1,1
1570179932998366,1,-3,0,-1,-2,0,0,5
1570179932998366,2,0,0,0,-2,-2,-1,2
1570179933010255,0,1,0,-2,-1,1,-1,-2
1570179933010255,-7,-2,-2,0,-2,-1,14,-20
1570179933019372,2,0,-2,0,-1,0,-3,4
1570179933019372,-1,-1,-2,-1,0,0,-2,2
1570179933034264,-1,-1,0,1,0,0,-1,-2
1570179933034264,-1,-2,1,-1,0,-2,2,0
1570179933036198,0,-1,0,-1,-2,-1,1,1
1570179933036198,-3,-2,0,0,-1,-2,-7,-18
1570179933057132,-1,1,-1,-1,0,-1,0,0
1570179933057132,0,0,-1,-2,-1,-1,-3,4
1570179933059124,0,0,-1,-1,0,-1,0,0
1570179933059124,-1,0,-1,-1,1,-1,-1,6
1570179933071171,0,-2,-1,0,0,1,-3,-10
1570179933071171,0,-1,-1,-1,-1,-1,0,3
1570179933080163,-5,-2,0,-2,-1,-2,-3,-6
1570179933080163,-4,2,2,0,0,-1,1,-2
1570179933094285,0,1,0,1,-2,-2,1,2
1570179933094285,2,0,0,-1,1,-1,-4,5
1570179933096028,0,-1,0,0,-1,0,0,-2
1570179933096028,2,0,-1,-1,-1,0,0,4
1570179933116975,-4,-1,0,1,0,-1,-1,-3
1570179933116975,-2,0,0,0,-2,-3,-4,1
1570179933118965,1,1,0,2,1,-2,1,1
1570179933118965,1,-3,-1,-1,-1,0,-3,0
1570179933130933,2,-3,-3,-1,0,-1,0,2
1570179933130933,1,-2,-1,-1,-1,0,-2,0
1570179933139910,-1,0,-1,-1,-1,1,0,0
1570179933139910,0,1,1,0,-2,-1,-1,2
1570179933153874,-1,-1,-1,0,-1,0,0,9
1570179933153874,-3,-1,-1,-1,0,0,-3,-3
1570179933160852,5,0,1,2,1,-3,-14,19
1570179933160852,-1,-1,0,-1,-2,-1,-1,1
1570179933176894,0,0,0,-1,-2,0,3,2
1570179933176894,-1,0,0,1,0,-1,-3,1
1570179933178812,-4,-1,-3,-1,-1,0,4,-4
1570179933178812,1,0,0,0,-1,-1,0,-1
1570179933199962,-1,-1,-1,-1,0,-1,-4,-1
1570179933199962,0,1,0,-1,0,-2,2,4
1570179933200755,1,-2,0,-1,-1,1,2,-5
1570179933200755,-6,-2,1,-1,-1,-1,-4,-9
1570179933214715,4,0,-1,-1,-1,1,2,8
1570179933214715,1,-2,-1,0,0,0,0,0
1570179933215707,-2,2,0,-2,0,0,2,-2
1570179933215707,2,1,0,-1,-1,0,-3,3
1570179933237648,-4,-1,-1,1,-1,0,-2,-6
1570179933237648,1,0,1,0,1,-2,-1,6
1570179933239655,0,-1,-2,-1,-2,-1,-2,-6
1570179933239655,0,0,-3,1,-1,0,2,4
1570179933259589,-6,-1,1,-2,-1,-1,-1,-9
1570179933259589,1,-1,-1,-1,-1,1,-1,7
1570179933261585,-2,-1,-3,0,-1,-1,2,0
1570179933261585,0,0,0,-1,0,-1,1,0
1570179933274555,-2,-2,0,0,0,-2,2,-1
1570179933274555,-1,0,0,-2,-1,-1,-1,-2
1570179933276551,-1,-1,1,1,-2,1,-3,-4
1570179933276551,1,0,0,0,0,-2,2,0
1570179933297488,1,0,-1,0,-1,-1,-1,0
1570179933297488,2,0,0,1,-1,0,1,8
1570179933298847,-6,-2,-2,-2,0,-1,0,-10
1570179933298847,3,-3,-2,0,0,1,2,7
1570179933319574,-2,1,-1,-1,-1,0,-1,1
1570179933319574,-1,0,-1,-1,-1,-1,-1,-5
1570179933321427,-2,-1,-2,-2,0,-1,0,0
1570179933321427,-3,0,0,-1,0,0,-1,1
1570179933334394,-3,-2,-4,-2,-2,0,6,-2
1570179933334394,-2,0,-2,0,0,-1,-2,-6
1570179933336384,4,0,0,0,0,0,-1,2
1570179933336384,0,-2,0,-2,-2,-2,-2,0
1570179933357579,1,0,-1,-1,0,-2,1,0
1570179933357579,-1,-1,-1,-1,-1,0,0,-2
1570179933359324,0,1,1,0,-2,0,2,5
1570179933359324,-1,-2,-2,-2,0,1,2,-7
1570179933379359,-1,1,1,-1,0,-1,-2,0
1570179933379359,-2,-3,-2,-2,-2,-1,-3,-9
1570179933381274,1,-1,1,-1,0,0,1,6
1570179933381274,0,0,0,0,-1,-2,-3,-1
1570179933394235,2,-2,-1,-2,0,0,-2,3
1570179933394235,-1,0,-1,0,-1,0,-2,-1
1570179933396226,-1,0,-2,0,0,-1,-2,-3
1570179933396226,-1,-1,-1,-1,-1,-1,-1,-1
1570179933417173,0,-1,-1,-1,-1,1,2,6
1570179933417173,-2,0,0,-1,1,0,3,-8
1570179933419164,3,0,0,-1,-1,-1,2,3
1570179933419164,-1,0,-2,-1,-2,0,-3,-1
1570179933439113,0,-1,-1,-1,-2,0,-4,-1
1570179933439113,-5,-2,-2,-1,-1,1,11,-16
1570179933441189,-2,0,-1,-1,-1,-1,-4,-3
1570179933441189,-2,-1,-2,1,0,-2,-2,0
1570179933454117,2,1,1,0,0,0,1,-5
1570179933454117,-1,0,-2,-1,-1,-2,0,3
1570179933461052,-1,1,-2,-1,-1,0,1,0
1570179933461052,-1,0,0,-1,0,0,-1,-3
1570179933477378,-2,-3,-1,-1,-1,-4,-5,-17
1570179933477378,1,1,1,-1,0,0,-1,12
1570179933479002,0,-1,-2,-1,0,-1,1,-5
1570179933479002,0,0,0,1,0,0,-3,2
1570179933499947,0,0,-1,-1,-1,-1,-1,-3
1570179933499947,1,0,0,-1,0,-2,-6,2
1570179933500945,-2,-1,-1,-1,-2,-1,-2,-3
1570179933500945,0,0,-1,-1,-1,0,2,6
1570179933513952,-1,-2,-1,-3,0,-1,-3,-9
1570179933513952,1,-2,-1,0,-1,-1,-3,3
1570179933520952,-2,-1,0,0,0,-1,0,-1
1570179933520952,-1,-2,-1,0,-1,-1,-1,-2
1570179933536850,-3,0,0,0,-1,-1,9,-12
1570179933536850,4,0,-1,-1,1,-3,-6,5
1570179933538845,-2,-1,0,-1,-1,-1,-2,-4
1570179933538845,-1,-1,-2,-1,-1,-1,-2,-3
1570179933559893,-2,-1,-1,1,-1,1,0,3
1570179933559893,-1,0,1,0,-2,0,0,-2
1570179933560785,0,-1,-1,-2,0,-3,-2,2
1570179933560785,0,0,0,-2,-1,-1,-1,-5
1570179933573754,2,0,0,1,1,0,2,24
1570179933573754,-2,-2,-2,1,2,1,1,0
1570179933580730,0,-1,0,0,0,-1,-2,2
1570179933580730,-1,-1,0,-2,-2,0,1,-1
1570179933596691,0,0,-1,0,-1,-2,-4,-1
1570179933596691,0,-1,-1,-2,0,-2,1,1
1570179933598684,-2,0,-1,0,2,0,2,-11
1570179933598684,0,0,-2,-1,-1,-1,-2,5
1570179933619626,-1,-1,-2,-1,-1,-1,-3,-1
1570179933619626,0,-2,-1,-1,-3,-1,0,2
1570179933621621,-2,-2,1,0,-2,-1,-4,2
1570179933621621,0,-1,0,-1,0,0,1,-3
1570179933633633,-1,0,1,-1,-1,-1,-3,2
1570179933633633,-1,0,1,-1,-1,-2,0,-1
1570179933640671,0,-3,-2,0,-1,1,3,-2
1570179933640671,-2,1,0,-1,-1,0,-1,-3
1570179933657526,-1,1,-1,0,-1,-1,-1,2
1570179933657526,0,0,0,-1,1,-1,-1,0
1570179933658522,-1,0,0,0,0,-1,0,0
1570179933658522,-2,-3,-2,0,-1,1,2,-5
1570179933679467,4,-1,-1,-1,-1,0,-1,6
1570179933679467,0,0,-2,-1,-2,1,1,0
1570179933681546,-5,-1,-1,-3,-2,1,11,-16
1570179933681546,0,-1,-2,-1,-2,-3,-3,0
1570179933693465,-2,-1,-1,0,-2,-1,0,-4
1570179933693465,-1,-1,-2,-1,-2,0,-3,-1
1570179933700460,-1,0,-1,-1,0,0,0,1
1570179933700460,0,1,0,-1,0,1,0,4
1570179933717365,-1,0,-1,-2,0,0,-1,-2
1570179933717365,0,-2,0,-1,-1,-2,2,-2
1570179933718388,1,-2,-2,-2,0,0,-3,8
1570179933718388,-2,1,0,-1,1,-2,-2,-3
1570179933739306,1,-1,0,2,1,0,-3,0
1570179933739306,-1,0,0,-1,0,-1,-2,0
1570179933741388,-1,0,-1,0,-2,0,-2,1
1570179933741388,2,-2,-2,-1,0,0,-2,-1
1570179933753306,-2,-2,-1,0,-1,-1,0,-8
1570179933753306,-1,2,1,1,0,2,2,5
1570179933762246,-1,-1,0,-2,-1,0,-1,3
1570179933762246,0,0,0,-1,-1,0,1,-2
1570179933777606,-1,-2,-2,-1,0,-2,-1,2
1570179933777606,-2,-1,-2,-3,0,-1,-4,-6
1570179933779201,1,-1,-1,1,-1,-1,-3,5
1570179933779201,-1,0,1,-2,-1,0,0,-13
1570179933799627,2,-2,1,0,0,-1,-11,14
1570179933799627,0,-2,0,0,-2,1,0,0
1570179933801621,1,-1,-1,-1,0,-2,-1,2
1570179933801621,0,0,-1,0,-1,0,-2,2
1570179933813639,-2,1,0,-2,-2,0,3,-5
1570179933813639,-1,-2,0,0,1,-1,-1,-3
1570179933829947,-2,-1,0,0,0,-1,-4,-1
1570179933829947,-1,-1,-2,-1,-1,-1,2,0
1570179933837702,0,1,-2,-1,-2,0,0,-1
1570179933837702,0,-2,-1,0,-2,0,-1,1
1570179933838426,-2,0,1,-1,-1,0,-1,-5
1570179933838426,2,-1,-1,-1,-1,-1,-1,2
1570179933859408,-1,-1,0,-2,0,-2,3,-3
1570179933859408,2,0,0,0,0,1,3,19
1570179933861383,-1,-1,0,0,0,0,-1,0
1570179933861383,-2,-2,0,2,0,-2,-1,0
1570179933872974,1,0,0,0,-1,-1,3,0
1570179933872974,-5,-3,-2,-2,-2,0,6,-20
1570179933881851,3,1,-2,0,-2,-3,-12,8
1570179933881851,-1,-2,0,-1,0,-1,-3,-3
1570179933896567,-1,0,-2,-3,0,-1,0,-6
1570179933896567,-3,0,0,0,-1,-1,1,-5
1570179933898491,1,-1,-2,1,-2,0,4,-2
1570179933898491,-1,-2,-1,0,-1,-1,-1,-2
1570179933919110,1,-2,0,0,1,-1,-3,1
1570179933919110,1,0,0,0,-2,0,-4,3
1570179933921066,-3,-2,-2,-1,1,0,3,-3
1570179933921066,-1,0,-1,-1,-1,1,1,5
1570179933933032,-2,-3,-1,0,-1,-1,1,-1
1570179933933032,-1,1,-2,1,-2,-1,-1,1
1570179933942580,-6,-2,-1,-1,-3,-2,-4,-23
1570179933942580,6,3,-1,0,1,1,3,6
1570179933957423,-1,0,-1,-1,-2,1,-1,-3
1570179933957423,-1,-1,1,0,0,-1,-3,-2
1570179933958695,1,0,-1,-1,-3,-2,-1,3
1570179933958695,-4,-2,1,-1,-1,-2,0,2
1570179933979487,1,0,0,0,0,-1,-1,-2
1570179933979487,-1,-2,-1,1,0,-2,-2,-2
1570179933981481,5,2,1,-2,0,-1,-13,17
1570179933981481,-2,-1,-1,0,-1,-2,0,7
1570179933993449,-2,0,-1,-1,-1,0,0,-1
1570179933993449,1,-1,-1,-1,0,-1,-2,8
1570179934002425,-1,-1,-1,-1,0,-1,6,-5
1570179934002425,1,0,0,0,-1,0,1,1
1570179934017411,-1,-1,-2,0,1,-1,-5,-2
1570179934017411,2,1,-2,-1,1,0,2,0
1570179934018853,-1,1,-1,0,-2,0,2,0
1570179934018853,1,-1,1,0,1,0,-1,0
1570179934046507,0,-1,-1,0,0,-1,3,-5
1570179934046507,-2,0,-1,1,0,-1,-3,1
1570179934048500,0,-2,1,-2,-1,1,1,-7
1570179934048500,-1,0,-2,0,-2,0,-1,5
1570179934053488,-2,-2,-1,-3,0,0,-3,-3
1570179934053488,-2,0,-1,-1,-1,-1,0,1
1570179934062497,-6,-2,-2,-2,-1,-1,-1,-7
1570179934062497,3,1,1,2,0,-2,1,-2
1570179934077424,-5,0,1,3,0,-1,-1,-4
1570179934077424,-1,-2,-1,-1,-1,-1,-1,7
1570179934078423,-4,-4,0,2,0,1,4,-2
1570179934078423,22,11,-2,-3,-3,-1,-1,-2
1570179934099406,-3,1,-1,3,-1,-3,0,10
1570179934099406,4,0,-1,-3,-1,-1,-2,0
1570179934101359,-5,-5,-4,-4,-3,-1,-1,1
1570179934101359,-9,-7,-1,2,-1,1,-1,-4
1570179934113327,3,-2,5,4,-2,1,1,6
1570179934113327,-10,-11,-4,-6,-3,1,1,-1
1570179934122303,20,26,-9,-5,-1,-2,-4,-8
1570179934122303,-21,-12,-8,-3,-3,0,-1,-3
1570179934136267,8,30,18,3,3,1,3,5
1570179934136267,-10,-29,-10,7,4,0,-3,-19
1570179934143369,8,-4,10,1,1,1,4,10
1570179934143369,-1,-1,10,2,3,-1,-1,-6
1570179934159206,-5,-8,3,0,1,-1,-1,-2
1570179934159206,-14,0,-4,-1,-5,-1,0,2
1570179934161241,-5,10,-11,-8,-2,-1,-2,4
1570179934161241,16,-8,1,-7,-7,-3,-5,-2
1570179934173212,12,0,-24,-14,-7,-2,-1,-1
1570179934173212,21,4,-4,-1,-3,-1,-1,4
1570179934182188,-20,-19,-16,0,3,-2,-1,-8
1570179934182188,-41,7,12,7,4,1,0,-7
1570179934196182,9,6,-1,6,2,-1,0,3
1570179934196182,10,17,15,4,2,1,1,3
1570179934203255,-3,-41,7,4,-3,1,-1,-6
1570179934203255,-4,-2,-10,-8,-1,0,1,-3
1570179934219091,3,-5,-13,-4,-1,0,-3,-7
1570179934219091,-4,16,5,-3,-1,1,-2,-8
1570179934221090,-5,2,7,-1,-1,1,1,3
1570179934221090,9,5,-2,1,-1,-3,-2,-5
1570179934242063,-5,-6,5,1,0,-1,-2,-7
1570179934242063,3,5,1,-3,-2,-2,-4,-9
1570179934244024,0,5,-3,-1,1,-2,1,-7
1570179934244024,6,-2,-13,-8,1,1,0,-4
1570179934255991,4,2,1,3,-1,0,1,0
1570179934255991,-8,-3,8,5,0,0,-1,1
1570179934263044,-1,-7,-4,0,-3,0,-1,3
1570179934263044,10,7,2,6,-1,-1,0,7
1570179934279930,-16,-10,3,-1,8,-1,-1,-2
1570179934279930,5,-5,-15,-11,-16,-5,-2,0
1570179934280926,0,4,16,2,-5,-3,-1,5
1570179934280926,3,17,10,6,-1,-1,-2,1
1570179934301875,-8,-17,-14,-8,-2,-2,-4,1
1570179934301875,0,-2,-8,-1,4,-1,-2,2
1570179934303866,6,22,9,2,3,2,2,10
1570179934303866,-3,0,9,1,-6,-2,-3,0
1570179934316834,-6,-11,-9,-7,-9,0,-1,1
1570179934316834,4,-6,-17,-3,4,0,1,4
1570179934322998,11,7,3,2,6,1,1,5
1570179934322998,-13,-11,5,-2,1,-1,-1,-1
1570179934339823,0,12,7,5,6,1,0,3
1570179934339823,-6,-10,-10,-5,-5,-3,-2,-3
1570179934340958,6,-6,-11,-4,-5,2,2,0
1570179934340958,2,-2,4,4,-4,-4,-2,2
1570179934361711,-4,1,12,4,7,0,3,9
1570179934361711,3,8,25,6,-2,1,0,1
1570179934364057,0,3,-26,-4,4,-2,-3,-6
1570179934364057,2,-21,-14,-9,-5,2,7,10
1570179934375811,-7,-7,-6,-3,1,-1,-4,-6
1570179934375811,-1,0,-1,-4,4,1,6,12
1570179934384924,-2,1,5,-3,-3,-1,-5,-7
1570179934384924,10,18,-9,-4,0,0,0,1
1570179934399615,10,24,12,4,0,-4,-5,-17
1570179934399615,-10,-5,19,13,5,2,4,8
1570179934401604,-12,-27,-4,-1,-7,-5,-5,-18
1570179934401604,-2,-9,-12,-3,0,-1,-2,-10
1570179934422595,10,12,3,0,1,4,9,21
1570179934422595,-2,3,-1,-4,-4,-1,-1,-4
1570179934423613,-9,-7,-3,-4,-5,2,2,11
1570179934423613,-2,0,-8,-4,0,-4,-4,0
1570179934435621,1,0,4,4,-6,-3,-5,-8
1570179934435621,-3,1,1,0,5,1,4,9
1570179934444495,11,5,4,-4,-4,-1,2,14
1570179934444495,7,13,3,1,4,-2,2,9
1570179934459448,2,-16,-8,-2,-3,3,2,3
1570179934459448,2,-5,-14,-7,-7,-2,-7,-14
1570179934461492,-4,6,9,5,6,-1,-1,-9
1570179934461492,14,-6,6,1,0,1,7,24
1570179934482389,-1,9,10,4,-5,-2,-10,-23
1570179934482389,2,-9,-2,-1,7,-1,-6,-16
1570179934483388,-11,0,6,5,-4,-1,-3,-15
1570179934483388,-9,-3,2,3,6,-3,-3,-10
1570179934495453,4,-3,-8,-3,0,0,7,17
1570179934495453,-2,-11,-8,0,-1,0,-3,-5
1570179934504332,-7,3,2,-1,-8,0,-1,-2
1570179934504332,11,3,-2,-1,5,2,1,6
1570179934519341,-9,-4,-1,-2,-12,-4,-7,-8
1570179934519341,2,9,4,0,7,1,0,-2
1570179934521342,-1,4,4,4,5,-1,-2,2
1570179934521342,-2,-2,-1,0,-4,0,-4,-11
1570179934542231,4,-1,-4,-6,-5,3,14,39
1570179934542231,4,-8,2,5,-1,-4,-10,-19
1570179934548407,3,3,-3,-4,-2,0,4,19
1570179934548407,-11,-3,-6,-8,-3,2,-2,-12
1570179934556201,-2,-21,2,9,9,-2,-2,8
1570179934556201,-9,7,1,2,-3,-1,4,11
1570179934565165,-2,-9,1,-2,-3,3,7,13
1570179934565165,15,15,1,4,5,-5,-9,-21
1570179934579132,-7,-4,1,-7,-2,-1,-3,-19
1570179934579132,-15,3,2,1,-1,0,0,-12
1570179934581124,9,-2,-14,-10,3,-5,-5,-5
1570179934581124,-9,-8,0,-2,-7,0,1,0
1570179934602071,4,3,4,4,-3,-1,-2,-11
1570179934602071,11,20,7,1,-9,-2,-11,-31
1570179934604272,-9,-3,-4,-3,2,-2,0,-10
1570179934604272,6,-6,1,1,3,-1,-2,-2
1570179934616114,-16,14,-13,-5,2,0,-1,-7
1570179934616114,7,-13,15,3,-4,1,2,14
1570179934625078,19,4,-7,0,-5,-5,-7,-13
1570179934625078,-7,-12,-6,-11,-8,-2,-4,-11
1570179934639968,-13,3,4,6,11,0,1,1
1570179934639968,6,4,-12,-6,-1,0,3,-7
1570179934640963,-2,6,5,-7,-16,-3,0,8
1570179934640963,-2,-12,-2,6,0,3,1,7
1570179934661942,7,10,8,6,16,-1,-4,-3
1570179934661942,-3,-2,0,9,15,2,5,4
1570179934663935,-11,-6,7,6,5,3,-4,-21
1570179934663935,-6,-10,-12,-9,-11,-2,1,6
1570179934675922,-1,-6,0,-4,-9,-2,-6,-6
1570179934675922,3,4,9,1,-5,-3,-4,10
1570179934684847,0,-3,-5,4,13,3,4,5
1570179934684847,-16,1,-2,-3,-1,2,8,13
1570179934699945,8,1,-10,-11,-9,-1,-5,-17
1570179934699945,-8,-3,6,9,7,-2,-8,-67
1570179934701807,-5,3,1,-4,-10,-3,-7,-49
1570179934701807,0,8,-4,-2,4,1,1,1
1570179934721747,4,-10,12,7,6,-3,0,-28
1570179934721747,-8,-14,-17,-16,-15,0,2,-37
1570179934723744,-2,0,3,2,7,1,3,7
1570179934723744,2,-1,6,8,12,-1,-7,-47
1570179934735714,-8,-2,-7,-5,-5,-1,6,-14
1570179934735714,3,2,-9,-11,-5,0,1,-25
1570179934744723,10,5,5,1,4,-2,-1,-124
1570179934744723,-14,-8,-6,-10,-9,-1,3,-84
1570179934759649,-1,-1,-9,-3,-2,2,6,19
1570179934759649,17,-5,11,7,5,-2,-2,5
1570179934761736,-15,-1,-8,2,2,3,4,68
1570179934761736,39,14,18,2,-1,-1,-5,62
1570179934781590,-23,-13,-13,-4,-6,-2,3,77
1570179934781590,3,2,-5,-3,0,0,3,70
1570179934783848,0,-2,-4,-3,2,-2,-2,59
1570179934783848,-1,5,1,3,1,1,1,42
1570179934795549,-17,-9,-3,-4,-6,-1,-2,29
1570179934795549,19,0,-6,-1,-3,-1,0,38
1570179934804999,5,5,5,-2,-13,0,-4,17
1570179934804999,-9,8,11,12,22,5,4,28
1570179934818568,-1,-6,-2,14,11,3,-4,-3
1570179934818568,-5,4,2,-3,3,1,2,31
1570179934819487,-1,-8,-11,-10,-12,2,14,55
1570179934819487,-2,-5,-3,-7,-15,-7,-6,-2
1570179934849415,6,0,1,5,10,2,-3,4
1570179934849415,0,4,-1,-6,-6,0,4,23
1570179934850403,-3,-3,-3,1,4,-1,-8,-2
1570179934850403,-5,4,11,8,-6,-5,-5,22
1570179934864425,5,2,-1,-4,6,-1,-1,9
1570179934864425,-8,-3,-11,-4,-2,0,-1,6
1570179934864425,2,2,6,5,5,-3,-4,-17
1570179934864425,-13,-3,-8,-2,-2,2,0,-14
1570179934879327,8,0,-3,-6,-12,-5,-4,-26
1570179934879327,-12,-1,0,-3,-1,0,3,1
1570179934879327,-18,-9,-3,4,6,1,-2,-26
1570179934879327,-11,7,17,5,-3,-1,-1,-26
1570179934901271,56,5,-2,-3,-2,-2,5,22
1570179934901271,-13,-7,-5,1,6,0,0,-12
1570179934902545,5,-1,2,2,3,-1,2,-17
1570179934902545,-9,-7,-13,-8,-4,1,6,8
1570179934924215,-6,2,7,4,4,0,0,-32
1570179934924215,-21,6,13,3,1,-1,-3,-17
1570179934924215,38,12,-2,-2,-1,-1,2,14
1570179934924215,-7,-12,-14,-5,-2,3,7,12
1570179934939176,2,5,-9,-9,-10,-3,-7,-6
1570179934939176,-13,-15,0,0,-2,-1,2,8
1570179934939176,-6,-7,5,0,-2,0,-8,-20
1570179934939176,13,12,14,-2,-9,-6,-1,20
1570179934961115,-16,-2,-5,18,26,6,2,-11
1570179934961115,10,-3,-8,-1,-3,-4,-7,-15
1570179934962548,-3,2,0,-5,-3,2,9,26
1570179934962548,-2,-12,-11,-4,-14,-2,3,0
1570179934984099,0,15,15,9,21,5,5,-16
1570179934984099,-25,-3,-1,4,6,6,6,-6
1570179934985043,-10,-5,1,9,10,3,7,14
1570179934985043,68,10,-16,-14,-10,-10,-18,15
1570179934999005,-12,-3,1,-11,-15,-3,-6,2
1570179934999005,14,2,-6,-8,-4,-1,5,34
1570179935000006,-31,-5,0,-6,-8,-2,-9,-12
1570179935000006,-23,-5,-5,-15,-8,-6,-12,-15
1570179935020994,9,-8,-5,15,13,3,5,32
1570179935020994,-6,5,10,4,-5,-2,-8,-13
1570179935021946,10,4,-3,2,2,-3,-3,30
1570179935021946,-2,-1,-1,-1,3,2,4,2
1570179935043894,0,3,-4,-17,-18,-2,1,1
1570179935043894,-8,-28,-13,-5,-5,-3,-2,-2
1570179935044947,7,14,8,0,1,0,-1,-1
1570179935044947,10,0,5,6,9,2,2,20
1570179935058851,-14,-23,5,-7,-12,0,-1,0
1570179935058851,6,6,-2,2,3,-2,-2,-5
1570179935059929,12,6,3,1,3,-2,-6,-2
1570179935059929,-20,0,-4,8,3,2,-2,-8
1570179935081789,-3,1,-3,-4,0,1,3,-5
1570179935081789,14,5,-2,-13,-14,-8,-10,-7
1570179935081789,-4,2,4,-2,-2,-3,-3,-15
1570179935081789,-11,2,6,26,27,5,8,12
1570179935105725,-4,-1,-1,-7,-9,-3,-7,-4
1570179935105725,3,4,1,-2,0,1,3,16
1570179935106548,15,-6,-19,-7,-6,-2,1,-12
1570179935106548,-14,-12,0,1,3,0,-11,-8
1570179935118687,-2,-15,-3,-5,-10,-3,3,23
1570179935118687,-20,-3,-7,-1,1,1,37,-25
1570179935119721,8,0,-3,0,0,-6,-11,-9
1570179935119721,4,0,-1,-2,1,3,10,45
1570179935141625,14,8,3,0,0,-4,-19,-30
1570179935141625,-7,-4,-3,-2,-2,1,-5,-5
1570179935142624,9,17,16,4,2,1,5,12
1570179935142624,-21,-31,-7,-5,-4,-2,0,-31
1570179935163750,-8,18,10,0,-4,1,12,-5
1570179935163750,16,-11,-4,2,3,1,-2,25
1570179935164565,-7,-2,-10,-5,-4,0,9,54
1570179935164565,1,11,7,2,4,-1,-9,-10
1570179935178525,2,-6,-5,-2,-6,-2,-5,-29
1570179935178525,12,17,5,4,3,-1,-10,-10
1570179935179531,-25,-11,-9,1,1,1,1,25
1570179935179531,3,6,13,-1,-3,0,5,-9
1570179935201513,18,-4,-8,-2,-4,-2,-1,8
1570179935201513,26,12,7,1,1,2,7,48
1570179935202464,-15,-10,-10,-5,-2,-3,-17,-55
1570179935202464,-29,-3,-5,0,-1,1,8,48
1570179935224403,-4,3,2,-5,-4,0,-10,-14
1570179935224403,-3,0,5,9,6,-4,-23,0
1570179935224940,17,5,4,0,-1,0,-10,21
1570179935224940,1,-1,-3,-3,-1,0,-3,0
1570179935238366,-13,-4,-2,-1,2,1,7,31
1570179935238366,3,6,-7,-6,-6,0,3,-19
1570179935246348,1,-1,11,4,3,1,8,-21
1570179935246348,-9,-4,-5,-1,-1,-1,5,-3
1570179935261306,-10,-1,-2,3,0,-1,2,-22
1570179935261306,6,0,-1,-1,0,-1,1,6
1570179935262305,-2,-4,0,0,1,-2,-1,-11
1570179935262305,12,7,-3,-5,-1,-1,-4,-23
1570179935284247,8,4,1,2,-2,-1,-8,-19
1570179935284247,-10,1,0,-1,0,-1,-2,-3
1570179935285700,0,-3,5,6,2,4,18,0
1570179935285700,-6,1,2,1,1,-1,-4,13
1570179935299299,23,1,-5,-5,-4,-3,4,5
1570179935299299,-29,-10,-3,-3,-2,-1,-12,-47
1570179935299299,25,11,5,2,-2,2,5,12
1570179935299299,26,3,-1,3,2,-2,-3,-19
1570179935321149,-23,-12,-5,-6,-4,-2,9,34
1570179935321149,-14,2,2,-1,-2,-2,-5,-24
1570179935322142,-4,2,-6,-2,-3,-4,2,5
1570179935322142,2,1,2,0,1,1,9,-31
1570179935344088,10,2,2,4,3,3,-5,-65
1570179935344088,-6,-4,-3,0,-1,0,4,-40
1570179935345084,-12,-3,1,0,-1,0,-3,-37
1570179935345084,25,5,1,-4,-3,0,0,7
1570179935359047,-13,-1,0,0,2,-1,0,19
1570179935359047,5,-3,-2,-1,-6,0,1,21
1570179935360042,4,3,-11,-6,5,-4,-10,41
1570179935360042,-20,-3,3,1,-1,-2,-4,2
1570179935382394,67,20,6,6,5,3,7,48
1570179935382394,-83,-35,-10,-9,-7,-6,-5,-24
1570179935382984,39,11,1,-2,-6,-1,-10,27
1570179935382984,-8,1,-6,2,10,3,-1,19
1570179935403935,-38,-15,1,-3,-7,-2,-5,-14
1570179935403935,20,6,6,12,13,5,12,40
1570179935404923,16,2,-7,-7,-3,1,2,27
1570179935404923,-14,-8,-4,-1,-3,-3,4,34
1570179935419173,7,14,12,10,4,-2,-2,7
1570179935419173,27,7,1,-4,-14,1,5,60
1570179935419883,-33,-21,-11,-5,16,-2,4,6
1570179935419883,25,14,1,3,-4,0,-1,27
1570179935441883,-21,-11,-6,1,8,0,-7,3
1570179935441883,25,-2,-2,-3,-1,-4,-6,5
1570179935441883,-37,-5,4,2,-5,4,5,23
1570179935441883,5,-1,-2,-8,-8,-1,-9,-14
1570179935463764,-41,-9,-6,-2,-3,-1,5,-3
1570179935463764,22,-5,8,5,5,3,8,-12
1570179935464764,76,44,13,7,2,-1,-11,24
1570179935464764,-21,-16,-17,-14,-12,-9,-12,-7
1570179935478724,-9,-11,-5,-9,-13,-2,13,-41
1570179935478724,-72,-19,-8,-7,-2,-8,-16,-10
1570179935479720,-2,-5,-1,6,-3,0,-5,-77
1570179935479720,70,22,14,13,22,10,9,2
1570179935501672,-7,1,0,-8,-9,-5,-12,0
1570179935501672,0,6,1,6,14,0,-1,-35
1570179935501672,46,4,8,1,0,2,21,-11
1570179935501672,-54,-25,-13,-5,-19,-10,-22,-52
1570179935523608,-6,24,18,10,11,8,12,18
1570179935523608,71,5,-13,-12,-11,-6,-3,8
1570179935524667,-93,-31,3,-1,-6,2,2,-12
1570179935524667,28,13,5,4,7,6,4,6
1570179935548697,4,-1,2,2,-3,-2,-4,15
1570179935548697,-19,7,-5,-5,-4,-2,-3,33
1570179935549536,-17,-8,1,-1,-5,0,0,-3
1570179935549536,45,29,3,-1,-10,1,10,31
1570179935561502,-9,-22,-14,-13,-16,-12,-11,-8
1570179935561502,24,7,6,4,25,4,-15,18
1570179935562500,19,-8,6,4,9,2,0,-2
1570179935562500,-99,-12,7,8,7,3,3,-20
1570179935584440,75,11,-20,-16,-15,-11,-11,19
1570179935584440,-10,-7,-1,1,-7,2,8,14
1570179935584823,-12,-6,-7,-8,-4,-7,-1,-52
1570179935584823,-46,-20,7,7,2,2,-6,-3
1570179935599401,26,12,4,7,4,5,15,-10
1570179935599401,10,3,1,5,3,0,-12,-9
1570179935599401,-48,-2,1,-3,-5,4,7,32
1570179935599401,19,-2,-13,-11,-5,-4,-2,12
1570179935621342,-47,-25,2,4,11,3,-1,-36
1570179935621342,76,32,-1,-6,-13,-1,4,17
1570179935622339,13,-2,-6,1,-30,-5,-3,18
1570179935622339,-34,-15,-3,6,38,0,3,-12
1570179935644400,16,11,14,5,13,2,-7,31
1570179935644400,-18,-15,-9,-8,-3,0,4,-22
1570179935644400,24,8,-2,-3,-5,-5,-8,14
1570179935644400,16,22,16,8,-24,-5,-2,-4
1570179935660633,-22,-18,-7,-4,4,0,6,4
1570179935660633,6,19,13,7,1,4,22,18
1570179935661288,2,-6,-13,-4,9,1,-8,19
1570179935661288,19,-13,-6,-3,1,3,-8,-6
1570179935681186,-6,-4,-6,-4,-2,-5,-10,-42
1570179935681186,-12,15,4,-1,-8,-2,6,1
1570179935682186,11,3,0,1,9,-1,-5,3
1570179935682186,-2,-8,-7,-1,-8,1,-11,7
1570179935704126,7,0,-4,0,5,0,1,30
1570179935704126,-30,-18,1,2,11,1,-11,-19
1570179935704126,14,15,4,2,15,-3,0,-29
1570179935704126,37,14,3,-9,-1,-2,9,15
1570179935720079,1,-11,-10,-9,-26,-4,-6,-44
1570179935720079,77,37,12,10,23,3,-3,45
1570179935720079,-102,-63,-15,-11,-16,-12,0,-54
1570179935720079,20,2,-1,-4,-13,2,13,11
1570179935741466,1,7,0,2,6,4,1,16
1570179935741466,33,10,8,4,4,1,8,33
1570179935742020,-61,-27,-8,-6,-6,-2,1,-15
1570179935742020,-31,-24,-5,-5,-5,-7,-7,9
1570179935763966,-11,-9,0,5,0,-1,-1,8
1570179935763966,-19,-4,-2,-2,-21,-1,-2,-21
1570179935764959,35,20,1,1,26,-1,-5,7
1570179935764959,-21,-15,5,-5,-11,3,8,-3
1570179935777923,3,16,-8,-3,6,1,-6,-4
1570179935777923,-46,-16,3,5,-2,-7,-9,-4
1570179935786903,30,15,4,0,-15,4,2,43
1570179935786903,12,2,-8,-2,7,-7,1,55
1570179935801862,-10,-1,10,-1,5,1,2,3
1570179935801862,-26,-2,-2,-2,-12,1,3,32
1570179935801862,41,4,-8,-5,-8,-2,-1,25
1570179935801862,32,10,-2,0,2,1,7,33
1570179935823808,-22,-2,2,4,-4,0,-7,-20
1570179935823808,1,-5,-7,-2,9,0,3,-5
1570179935824798,8,6,5,6,2,3,-1,-9
1570179935824798,-6,5,3,-4,-3,-1,15,-47
1570179935837770,18,3,-5,-1,1,-1,2,-27
1570179935837770,9,2,9,8,7,6,2,-27
1570179935846739,-17,-18,-12,-10,-1,-6,-11,-32
1570179935846739,-10,-5,-7,-3,-6,-5,-6,-30
1570179935861698,1,3,6,2,-8,0,5,11
1570179935861698,-20,-7,-1,-1,5,0,0,-3
1570179935861986,12,14,5,2,0,5,21,9
1570179935861986,29,13,1,7,9,4,-28,5
1570179935883639,-4,-7,-1,1,0,0,1,23
1570179935883639,13,-2,-1,-4,2,0,-1,1
1570179935884715,5,5,4,3,-5,-1,-2,26
1570179935884715,-8,2,-1,-2,-1,0,2,-22
1570179935897696,12,15,4,2,3,2,0,10
1570179935897696,-11,-25,-25,-8,0,2,-6,-24
1570179935906582,2,6,26,8,1,1,1,-13
1570179935906582,-9,-6,-1,0,1,-1,3,-12
1570179935921546,9,4,1,1,-1,3,4,1
1570179935921546,-10,5,3,-4,-5,-4,-2,23
1570179935922536,-2,-1,-4,0,1,-2,0,2
1570179935922536,16,7,4,4,3,0,-8,-9
1570179935943626,-5,-7,-5,-7,-3,-5,0,-7
1570179935943626,-7,-6,-5,-4,-6,-4,-9,-33
1570179935944481,18,11,1,5,5,6,0,0
1570179935944481,-22,-9,0,-2,-1,-3,-1,-7
1570179935958440,7,7,-4,-3,-3,-3,17,47
1570179935958440,14,-1,2,1,-2,-2,-6,24
1570179935966526,0,0,3,2,1,0,-3,127
1570179935966526,10,-1,-7,-3,-1,0,-2,98
1570179935981380,2,5,-3,-2,-2,-2,-10,127
1570179935981380,-20,-6,0,1,-3,1,7,54
1570179935982375,16,2,-5,0,3,3,3,12
1570179935982375,26,9,7,6,0,0,7,-7
1570179936004320,-43,-19,-3,-3,-3,-3,-3,-58
1570179936004320,12,10,4,1,-1,-2,-3,-33
1570179936004320,-7,-5,-7,-6,0,10,5,-40
1570179936004320,25,-2,-2,-2,-5,-6,1,95
1570179936018280,-5,-1,-1,0,1,1,-3,99
1570179936018280,-6,1,1,0,-4,-1,-2,9
1570179936026352,-8,-4,-3,1,0,-3,-8,-58
1570179936026352,-30,-9,-8,-7,-3,0,7,-126
1570179936049200,28,6,-4,-4,-2,2,-10,-107
1570179936049200,2,-4,4,7,3,-3,1,-77
1570179936050195,-7,6,6,11,2,-5,-13,-77
1570179936050195,-5,-3,-1,-3,-3,-1,14,-82
1570179936063203,10,0,7,8,6,4,14,-70
1570179936063203,22,-5,-12,-13,-6,-1,6,-49
1570179936071138,-7,0,-1,-5,-4,-5,-12,-32
1570179936071138,-10,-10,-7,-2,5,3,-1,-38
1570179936078444,35,17,13,5,0,-1,7,-34
1570179936078444,-47,-15,-2,-5,-3,-2,-6,-14
1570179936086102,44,16,-3,-8,-1,0,25,2
1570179936086102,3,-1,5,5,-2,-4,-3,-15
1570179936101059,-13,-5,-3,0,3,-7,-16,-19
1570179936101059,41,14,8,4,3,4,8,1
1570179936102062,-44,-13,-6,-7,3,3,5,4
1570179936102062,-6,-2,-10,-11,-2,10,7,-14
1570179936124000,0,-4,-3,0,1,-11,-2,-11
1570179936124000,0,18,16,8,4,4,-15,3
1570179936124998,17,-8,-5,-1,-1,-3,-18,3
1570179936124998,-1,-3,-4,-3,-1,0,-10,-7
1570179936147054,-12,-2,0,3,12,10,-1,-2
1570179936147054,5,-8,-14,-13,-6,-3,6,3
1570179936147937,11,-4,0,2,-6,-4,3,1
1570179936147937,-17,5,4,4,3,1,-9,-3
1570179936160902,-5,-11,-19,-15,-10,-5,-2,-2
1570179936160902,-13,-2,8,11,4,-8,-6,-1
1570179936161907,7,10,10,9,5,8,7,1
1570179936161907,19,0,-7,-11,5,-10,0,-3
1570179936183841,-74,-24,-7,0,-5,4,-3,-3
1570179936183841,15,6,-6,-4,-7,-11,-4,0
1570179936184836,-2,-7,-4,-3,-11,-5,-5,3
1570179936184836,6,5,5,5,1,1,-11,-1
1570179936205784,3,6,1,-3,0,2,0,-26
1570179936205784,-17,-6,-3,0,-1,5,-11,20
1570179936213760,2,7,-1,-2,4,-3,3,0
1570179936213760,-34,-12,-4,-3,3,-1,-2,-72
1570179936221740,26,4,-3,-4,-10,-7,0,-60
1570179936221740,1,6,12,11,7,7,-7,-16
1570179936221740,-10,-2,-2,2,-1,3,-4,-28
1570179936221740,-4,11,11,10,1,0,-1,-17
1570179936243682,24,11,9,1,-1,5,0,-12
1570179936243682,-52,-27,-17,-10,-13,-4,4,-47
1570179936244674,-19,-2,0,-5,-4,-2,-4,-16
1570179936244674,30,-2,-7,-2,2,-3,-1,-6
1570179936267613,1,5,11,13,8,0,-3,6
1570179936267613,20,8,-1,-3,11,1,9,-48
1570179936267613,-20,-8,-5,-7,-4,-6,0,-2
1570179936267613,-13,-1,-2,-3,-10,-4,2,-1
1570179936281576,6,1,2,0,-4,5,-2,17
1570179936281576,-2,1,-6,-1,6,-3,1,17
1570179936282574,-1,0,3,4,5,4,1,0
1570179936282574,-7,-2,-2,0,2,1,0,1
1570179936303523,-15,-7,-1,-2,-3,-4,0,-31
1570179936303523,10,4,2,1,0,-4,-15,31
1570179936304516,-3,-2,1,2,0,-4,4,-4
1570179936304516,-14,7,2,0,-4,3,-3,-2
1570179936327459,11,-15,-11,-11,-5,-6,0,0
1570179936327459,16,5,0,-1,-5,0,4,-2
1570179936327459,-6,-5,-6,-4,-1,-4,-3,-26
1570179936327459,-1,3,7,8,0,2,5,35
1570179936341505,-5,-1,-1,-1,4,1,-6,15
1570179936341505,-5,-6,-5,-4,-2,9,-8,-9
1570179936342414,19,5,-1,-3,-3,-4,-1,14
1570179936342414,0,2,1,5,1,-2,-1,-21
1570179936364356,8,3,2,1,-2,1,8,17
1570179936364356,10,3,1,-3,-3,-2,-7,20
1570179936364356,12,3,5,6,-1,-6,2,42
1570179936364356,-23,-7,-1,-1,12,17,1,1
1570179936387303,12,4,-1,-4,-7,-11,-2,69
1570179936387303,-3,-1,2,-1,-2,-9,-10,20
1570179936388329,-9,-1,0,-1,-2,3,-1,-5
1570179936388329,18,3,0,-2,5,-5,-2,26
1570179936401260,-13,-7,-3,-3,-13,5,14,-21
1570179936401260,9,2,1,2,2,7,-7,76
1570179936402256,8,-3,-2,0,0,-4,-7,28
1570179936402256,8,2,3,2,-5,5,-1,4
1570179936424199,-16,-1,-2,0,3,-1,-4,-44
1570179936424199,-12,-7,-7,-3,-6,1,15,-30
1570179936425243,8,3,2,2,1,1,2,4
1570179936425243,0,-2,-2,-3,-4,-7,-5,-1
1570179936447136,8,4,0,2,3,1,-2,44
1570179936447136,1,0,-1,1,0,-5,4,35
1570179936448139,-8,-5,-4,-4,2,7,0,-7
1570179936448139,-4,-1,-2,1,-4,-4,3,-9
1570179936461649,-1,0,2,0,2,-2,14,0
1570179936461649,-2,0,3,1,3,14,-10,-11
1570179936462094,-6,-2,0,1,0,-13,-10,25
1570179936462094,-18,-15,3,2,-2,-9,-12,28
1570179936484282,45,22,-3,-3,-5,-3,-6,-12
1570179936484282,-3,-3,-4,-2,0,-4,-7,-11
1570179936485102,-11,-9,-3,-2,-5,-1,-1,-28
1570179936485102,3,0,-1,-1,2,1,3,-4
1570179936506973,-16,-8,3,3,5,11,-4,16
1570179936506973,-6,-2,-3,-3,0,-1,14,-33
1570179936507971,-4,1,-2,0,-3,0,-8,-25
1570179936507971,1,2,-1,0,-2,0,5,1
1570179936521061,-7,-2,1,0,2,-1,-5,-11
1570179936521061,1,2,-1,-1,-3,-2,8,-11
1570179936521938,-7,-3,-1,0,0,0,1,4
1570179936521938,7,2,-1,-1,-2,0,3,15
1570179936543877,-3,-4,1,0,-2,-2,4,10
1570179936543877,4,0,-3,-2,-2,-7,0,-2
1570179936544873,-5,-2,0,-1,0,4,2,42
1570179936544873,3,-5,1,0,-2,-1,1,3
1570179936566816,16,9,-3,-2,1,-1,-2,13
1570179936566816,-9,-7,0,-1,-1,0,6,10
1570179936568141,5,3,-3,-4,-2,2,1,0
1570179936568141,-8,-1,-3,-3,-4,0,5,-57
1570179936581773,-5,-6,4,2,2,-6,-27,19
1570179936581773,-7,-3,-1,0,0,-1,5,-8
1570179936581773,15,9,0,-1,2,0,0,-6
1570179936581773,1,2,0,0,-2,-1,-2,1
1570179936603714,-11,-4,-3,-2,-3,-13,1,-11
1570179936603714,4,7,0,-4,-4,-5,0,-12
1570179936604726,2,0,2,2,1,2,4,12
1570179936604726,-8,-6,-2,0,-2,-5,-1,6
1570179936626657,4,12,2,2,-1,6,3,-20
1570179936626657,5,1,-1,-3,-3,-6,-3,-2
1570179936627732,-7,-4,-3,-3,-1,3,1,-11
1570179936627732,-2,3,0,-1,-1,2,0,3
1570179936641612,-1,-5,1,2,0,0,-2,28
1570179936641612,-15,-9,-4,-3,-1,-3,-4,-9
1570179936642610,-3,0,-1,-2,-2,-3,-9,1
1570179936642610,-4,0,-3,-3,-3,-3,-1,-9
1570179936663555,-1,-3,1,1,-1,0,5,-8
1570179936663555,-4,1,-1,1,-2,-1,5,-29
1570179936664552,0,-2,-3,-2,-4,-2,6,3
1570179936664552,7,2,-1,-2,-2,-3,1,10
1570179936687491,-11,-2,0,-1,-2,2,4,-18
1570179936687491,8,-1,-1,-1,0,5,3,11
1570179936687640,-15,-4,0,0,1,-1,-1,-9
1570179936687640,11,4,-2,-3,-1,-1,-1,-1
1570179936700463,-6,-1,-1,0,-1,0,3,-10
1570179936700463,-4,-2,1,1,-1,0,-5,2
1570179936709570,2,2,1,-1,0,2,-7,-6
1570179936709570,-4,-2,-3,-1,-3,-9,8,11
1570179936723943,-8,-13,-2,-1,1,0,13,13
1570179936723943,13,13,1,0,0,-1,1,-10
1570179936724402,-11,-1,-3,-2,-4,-7,2,-29
1570179936724402,18,6,2,1,1,3,0,9
1570179936747340,-19,-8,-4,-2,0,0,-3,-58
1570179936747340,-4,-4,3,1,3,2,7,30
1570179936748333,0,-5,2,2,3,9,9,-6
1570179936748333,-12,-1,-1,-4,-6,-8,-13,-1
1570179936769352,-1,2,0,1,0,0,-8,-16
1570179936769352,-1,1,-1,0,0,1,-3,9
1570179936770318,-2,0,-1,-3,-2,-1,-2,0
1570179936770318,3,-2,-2,-4,-1,2,11,-34
1570179936792217,6,3,-2,-1,-3,-8,-4,31
1570179936792217,-5,-4,0,1,2,12,6,4
1570179936793209,-12,-4,-1,1,0,0,8,-4
1570179936793209,11,3,3,2,2,2,-3,1
1570179936807253,-19,-6,-3,-1,-2,-2,-3,-3
1570179936807253,13,12,-1,-2,-2,-2,1,1
1570179936808168,4,-3,-1,1,0,-4,-3,6
1570179936808168,-3,-3,1,0,0,2,-7,12
1570179936821136,2,-1,-1,-3,-1,-1,-2,2
1570179936821136,-8,-9,0,-1,-1,3,-2,6
1570179936829120,6,3,2,3,1,0,-14,4
1570179936829120,10,2,0,-1,-1,-5,-5,19
1570179936844117,11,2,1,1,2,-2,-1,24
1570179936844117,-9,-3,-2,-1,0,-4,-1,-7
1570179936845069,3,2,0,-1,-1,-3,0,-4
1570179936845069,-4,1,-1,1,1,5,-1,-7
1570179936867011,10,1,-2,-2,-1,5,5,10
1570179936867011,1,1,-2,0,-1,-3,-1,5
1570179936868009,1,1,1,0,-1,2,-3,-5
1570179936868009,-6,-2,-2,-1,-1,0,-3,2
1570179936880978,8,1,-1,1,0,3,-7,35
1570179936880978,-2,-2,1,0,-2,-5,-2,-5
1570179936889150,-2,0,-1,0,0,0,-1,1
1570179936889150,5,3,-1,0,1,3,2,16
1570179936903912,3,0,-2,-2,0,-1,5,4
1570179936903912,2,-4,-1,0,-1,-1,-3,5
1570179936904909,3,-1,-2,-2,-2,-1,0,5
1570179936904909,-3,-1,0,-2,-1,-1,2,-1
1570179936926853,-8,-4,0,-2,-1,1,-2,-18
1570179936926853,-1,-1,-2,-1,0,-2,0,-1
1570179936928026,3,2,0,1,-1,-1,1,0
1570179936928026,-6,-2,-1,-1,0,-2,0,-3
1570179936940818,2,1,-1,-1,0,3,2,-8
1570179936940818,2,-2,-3,-1,-2,-3,0,6
1570179936948971,-4,0,0,0,-1,-2,-2,-9
1570179936948971,-8,-2,-1,-1,0,2,-3,-18
1570179936963848,1,-1,-2,-1,0,-1,0,3
1570179936963848,0,-2,-1,0,-1,7,3,-2
1570179936964997,3,-1,0,-2,-3,-4,0,5
1570179936964997,5,3,2,2,1,-2,3,29
1570179936986792,-6,0,0,0,-1,0,-2,-16
1570179936986792,3,-1,1,0,5,6,-3,1
1570179936987786,-1,-1,-2,-2,-7,-2,0,5
1570179936987786,-8,-1,-1,0,-2,-1,-4,-12
1570179937000817,4,0,-3,-2,0,-2,-1,-3
1570179937000817,-2,-1,-1,0,0,-5,0,2
1570179937009727,2,0,-1,0,1,2,-1,-2
1570179937009727,0,-2,-1,-1,0,-2,-2,-3
1570179937023693,-1,-1,0,0,-2,1,2,3
1570179937023693,-5,-2,-2,0,-3,-3,-1,-4
1570179937024686,2,-1,0,-1,-1,1,3,2
1570179937024686,-1,-2,-1,-1,-2,1,1,0
1570179937047631,-4,0,-1,-2,-2,-1,-2,-2
1570179937047631,2,-2,-1,-1,-1,-1,1,0
1570179937048624,-8,-2,-1,-2,0,-1,9,-20
1570179937048624,-1,1,-1,0,-1,-1,-3,0
1570179937069566,-1,2,4,3,0,-1,0,0
1570179937069566,0,0,0,1,-2,-4,-2,8
1570179937070568,-1,0,0,0,-1,1,-2,-8
1570179937070568,-1,-1,-1,-2,-1,0,0,-11
1570179937083529,0,-1,0,-2,1,2,-1,0
1570179937083529,-6,-1,-1,-3,-1,-1,2,-13
1570179937084525,8,-2,0,-1,0,-1,-1,22
1570179937084525,-2,-1,-2,-2,-2,-1,-2,-3
1570179937107465,-1,0,0,0,0,-2,-2,-3
1570179937107465,-9,-2,-3,-3,-4,-8,-5,-3
1570179937107465,8,2,2,1,5,12,9,9
1570179937107465,4,0,2,0,3,-1,-12,8
1570179937129406,-2,-4,-2,-3,-5,-6,0,-4
1570179937129406,-1,0,-1,0,1,6,3,-2
1570179937130403,-3,1,1,0,-1,-8,-6,-3
1570179937130403,-1,-2,-1,0,-3,0,3,0
1570179937143373,-2,0,1,-2,1,3,0,-6
1570179937143373,1,-1,0,-1,-1,0,-2,0
1570179937144367,-1,-3,-1,0,-2,-2,-2,-4
1570179937144367,-4,-3,-1,-2,1,3,16,-24
1570179937167306,-2,-2,-2,1,-1,-1,-10,-18
1570179937167306,-1,0,-1,0,-3,-1,1,1
1570179937167306,-1,-2,-3,-1,-3,-1,-3,-2
1570179937167306,3,0,-3,0,-3,-1,2,11
1570179937189250,-1,0,-1,1,1,1,-1,-5
1570179937189250,3,-1,0,0,-2,-4,0,6
1570179937190244,-2,0,-1,-1,0,-1,-2,2
1570179937190244,2,-1,1,0,0,1,-3,6
1570179937203368,0,-1,0,1,-2,-1,0,1
1570179937203368,1,2,2,0,2,-2,-3,-1
1570179937211188,-1,-2,-2,0,0,-1,0,1
1570179937211188,-5,-2,-1,-2,-2,-3,-3,-11
1570179937227150,9,0,0,-1,2,-3,5,20
1570179937227150,-5,-2,-2,0,-2,-2,-2,-18
1570179937228143,-1,-1,1,0,0,0,-2,4
1570179937228143,1,0,1,1,-1,1,-1,1
1570179937250083,-2,-1,0,0,-2,1,-1,-6
1570179937250083,2,-1,-1,-2,-1,-2,4,-4
1570179937250610,-1,1,1,0,0,-2,-14,3
1570179937250610,11,0,-2,-1,-1,0,0,23
1570179937264055,-10,-3,-3,-1,-2,-3,0,-9
1570179937264055,1,-1,-1,-2,2,4,3,5
1570179937265092,-1,0,-1,-1,-3,0,1,-1
1570179937265092,-5,-1,-2,-1,-1,-1,0,-15
1570179937286985,-1,-1,-1,-1,1,1,-3,4
1570179937286985,4,1,1,0,1,-3,-2,9
1570179937287982,-5,-1,-3,-3,2,3,9,-7
1570179937287982,-3,-1,-2,1,-1,-1,-9,-16
1570179937309925,7,0,0,1,0,0,5,23
1570179937309925,3,-2,0,-1,-2,1,-2,-2
1570179937311166,-6,0,0,-1,-2,0,10,-25
1570179937311166,1,0,-2,-2,0,0,-1,10
1570179937322894,-5,-1,0,-1,1,0,-2,-11
1570179937322894,-3,0,-1,2,-1,-2,-1,-1
1570179937332864,-2,-1,-1,0,-2,-1,-2,2
1570179937332864,0,-2,1,-1,2,-10,-3,8
1570179937346828,4,0,-1,-1,3,13,5,8
1570179937346828,-2,1,1,1,-1,-2,-3,2
1570179937349153,1,-2,0,-3,-2,-3,-3,3
1570179937349153,-5,-1,-2,-3,0,-1,-10,-19
1570179937370030,-4,-1,-1,-2,-2,-2,-3,-12
1570179937370030,0,-2,-1,-1,-1,-2,2,3
1570179937370762,-15,0,3,0,3,2,-10,-24
1570179937370762,8,3,0,-1,1,2,2,28
1570179937383063,-17,-8,-5,-4,-5,-7,-6,-67
1570179937383063,1,-1,-3,-1,-2,1,1,-13
1570179937391705,4,0,0,3,-1,-3,-8,4
1570179937391705,-2,-2,-1,-1,0,3,9,-1
1570179937407118,3,1,1,2,0,-5,-7,2
1570179937407118,-1,0,-1,-2,2,0,0,5
1570179937408660,3,-2,-1,-1,0,-1,0,8
1570179937408660,-26,-8,-4,-5,-8,-6,0,-102
1570179937429609,11,3,0,1,0,7,17,34
1570179937429609,-2,-2,0,-1,0,-1,-5,-2
1570179937431685,4,-1,0,-2,-1,1,1,12
1570179937431685,0,-3,-1,0,1,1,-2,-3
1570179937443567,-3,0,-1,0,-1,-3,-3,-2
1570179937443567,-1,-2,-2,-2,-2,0,2,11
1570179937452545,-3,1,-2,-2,-1,-1,8,-10
1570179937452545,12,4,0,-1,1,2,-14,45
1570179937467504,1,-2,0,0,-2,0,13,27
1570179937467504,-7,-1,-1,-3,0,-2,0,-44
1570179937468500,7,2,-1,-2,1,1,-4,17
1570179937468500,0,0,1,1,0,-1,2,8
1570179937489495,-3,0,0,-1,0,-3,-4,-10
1570179937489495,-13,-1,1,-1,-1,-1,-3,-33
1570179937491439,2,0,-2,0,-1,-2,-2,5
1570179937491439,2,-1,-3,0,0,1,5,25
1570179937503456,-1,2,-1,-2,-1,-2,-6,-14
1570179937503456,4,0,0,-1,-1,1,4,18
1570179937512384,2,-1,-2,-1,-1,-1,-2,6
1570179937512384,-3,0,0,1,0,-1,1,2
1570179937527348,3,0,0,-1,-1,0,-3,7
1570179937527348,-1,-1,-4,-1,-2,-1,-3,7
1570179937528341,0,1,0,0,1,0,5,6
1570179937528341,1,1,0,-1,-1,-1,3,-1
1570179937549403,-26,-10,-7,-6,-3,-1,16,-74
1570179937549403,14,4,3,3,3,1,-1,37
1570179937551282,-6,-2,0,0,-2,-1,7,-15
1570179937551282,3,3,1,0,-1,1,4,3
1570179937563351,2,1,0,0,0,0,-7,13
1570179937563351,-2,-2,-1,-2,-3,-2,-3,-4
1570179937572223,-1,-2,-2,-1,0,0,-1,-4
1570179937572223,1,0,0,2,0,1,1,19
1570179937587225,4,0,0,0,0,-1,-5,13
1570179937587225,-1,-1,-3,-1,-1,-2,2,-6
1570179937589175,5,1,0,0,1,-1,-6,9
1570179937589175,-3,0,0,-2,0,-2,-2,-11
1570179937609123,4,2,-1,-1,-2,-4,-5,10
1570179937609123,6,1,1,2,0,1,0,16
1570179937611205,-7,-3,-1,-2,-1,-1,-1,-9
1570179937611205,4,0,-1,1,-2,0,-2,0
1570179937623215,3,2,0,2,-1,0,-3,13
1570179937623215,-3,-3,-1,-1,-1,0,-2,-2
1570179937632265,0,-1,-1,-1,-2,-2,-2,-2
1570179937632265,-4,-1,0,-1,0,-2,-1,-5
1570179937647448,4,2,0,1,1,-1,-3,12
1570179937647448,0,-1,-2,-1,2,11,2,-2
1570179937649017,4,-1,1,2,0,-10,-2,4
1570179937649017,-4,0,1,-1,-1,-3,-2,-14
1570179937670252,-1,-2,-1,-1,1,-1,-6,-9
1570179937670252,-4,0,-2,-2,-6,-2,1,-3
1570179937670960,3,2,1,0,0,2,-11,16
1570179937670960,1,-3,-4,-2,-1,1,0,4
1570179937682927,2,0,-2,-2,-3,0,2,8
1570179937682927,-1,-1,1,0,-1,-3,-4,-10
1570179937691948,-2,-1,-2,-2,0,1,2,-8
1570179937691948,4,0,-1,-1,-1,-3,0,7
1570179937714840,2,-1,-2,-1,1,-2,-6,11
1570179937714840,-3,-2,-1,2,0,-3,2,3
1570179937715930,3,-1,-1,0,-2,0,1,-8
1570179937715930,-2,0,-1,-1,0,0,0,-2
1570179937729847,-4,0,0,-1,-2,0,3,-6
1570179937729847,-1,-1,-2,-2,0,-2,-2,-11
1570179937730871,-1,-1,1,-2,0,0,-1,-2
1570179937730871,-4,-2,-1,-1,0,1,-1,-3
1570179937742766,4,-1,1,0,0,-2,-1,5
1570179937742766,-2,-2,-2,-1,-1,-3,-1,0
1570179937751937,-1,0,-2,0,0,2,-1,-3
1570179937751937,-1,0,-1,0,-1,0,-2,-9
1570179937766847,-3,0,-2,1,-2,0,1,4
1570179937766847,-2,1,0,-1,1,-2,-2,-4
1570179937768802,3,-1,-1,-1,0,1,6,17
1570179937768802,-2,-1,0,0,0,-2,-2,-4
1570179937789867,-2,0,-1,1,1,-1,1,-2
1570179937789867,3,1,-1,1,0,-1,-1,5
1570179937790750,-6,-1,-2,-1,0,-1,-4,-3
1570179937790750,7,1,0,0,1,0,-13,22
1570179937803226,1,-1,1,0,1,-1,2,2
1570179937803226,2,0,-1,1,-2,-3,-2,4
1570179937817964,-1,1,0,-1,0,-1,-1,-5
1570179937817964,-6,-1,0,-1,-1,-1,2,-8
1570179937827339,6,0,-2,0,-2,-1,-4,-3
1570179937827339,3,0,1,-1,-1,0,-1,2
1570179937829072,0,-2,-1,0,-2,0,1,-3
1570179937829072,-3,-2,0,-1,-1,2,1,-8
1570179937849807,1,-1,0,-1,-2,-1,1,-1
1570179937849807,-3,-2,-1,0,0,-2,1,-6
1570179937850748,-3,-2,0,1,-1,-1,-2,-4
1570179937850748,-1,-2,-2,1,0,-2,4,6
1570179937864096,-4,0,0,-1,0,-1,-1,-3
1570179937864096,-1,-2,-2,-1,-1,-1,2,8
1570179937878676,2,0,0,-1,0,-1,4,15
1570179937878676,-3,0,0,-1,-1,2,-1,-5
1570179937887017,0,0,-2,0,0,0,-1,-2
1570179937887017,1,0,0,-2,1,1,0,2
1570179937888763,0,-1,-1,0,1,-2,-3,-11
1570179937888763,2,-1,-2,0,-1,0,3,-3
1570179937909659,2,-1,-1,-1,-1,0,0,11
1570179937909659,-2,-1,-1,-1,2,0,0,0
1570179937911651,-1,0,0,-1,-1,1,-2,-4
1570179937911651,0,0,-1,-1,0,-1,0,-2
1570179937923801,2,2,-1,-1,-1,0,-4,1
1570179937923801,-2,-1,-1,0,-2,1,7,-3
1570179937932600,-2,-2,-5,-2,-2,-1,-1,9
1570179937932600,-1,-1,-2,0,-2,0,1,0
1570179937947552,-1,-1,0,-2,0,0,-2,-1
1570179937947552,-1,-2,-1,-1,-2,-2,-1,-7
1570179937948596,0,0,2,0,1,-1,-1,-7
1570179937948596,-2,0,-1,0,1,-1,0,-5
1570179937970183,-6,-2,-1,-2,-3,-3,-3,-24
1570179937970183,-8,-4,-3,-2,-2,4,15,-1
1570179937971278,-1,-4,-1,-1,-2,-2,-2,-4
1570179937971278,-2,-1,-1,0,-2,0,-2,1
1570179937983811,-1,0,1,0,-1,-1,0,2
1570179937983811,0,-1,0,1,0,-2,-5,-3
1570179937991898,-2,0,-1,-1,-1,-3,-1,-4
1570179937991898,1,0,0,-1,0,0,3,-1
1570179938006912,-1,-2,-3,-1,0,2,13,-9
1570179938006912,3,0,-1,0,0,-2,-12,7
1570179938008903,-3,1,1,-2,1,0,3,-1
1570179938008903,0,-2,-1,0,-1,-2,-5,0
1570179938029846,-3,0,1,-1,1,-1,0,1
1570179938029846,4,1,2,-1,0,0,-1,2
1570179938030842,1,-1,0,1,-1,0,-2,-3
1570179938030842,-1,-1,-2,0,-1,-2,0,-9
1570179938052785,-2,-1,0,0,0,1,-1,15
1570179938052785,2,-1,-2,-1,-2,-2,-2,6
1570179938054026,0,0,-1,0,1,1,0,1
1570179938054026,2,0,-1,-1,1,-1,0,3
1570179938065415,4,1,2,1,1,1,-2,15
1570179938065415,-2,-2,-1,-2,0,-4,-5,-6
1570179938074384,0,0,-1,-1,-4,-3,1,-3
1570179938074384,-8,-3,-1,-2,-1,0,6,-6
1570179938090348,7,1,-1,0,-1,-4,-11,16
1570179938090348,-6,1,0,-1,-2,1,-5,-7
1570179938095842,5,0,0,1,0,1,0,5
1570179938095842,-3,-2,-1,-2,-1,0,-5,-5
1570179938112283,0,0,1,0,1,-1,-4,6
1570179938112283,-1,-1,-1,-1,-2,1,1,0
1570179938113281,-2,-2,-2,-1,0,1,1,-4
1570179938113281,2,-1,0,-1,-2,-2,-5,4
1570179938127245,-1,-3,-2,-1,-2,-1,2,-11
1570179938127245,-1,0,0,2,1,-3,-4,-1
1570179938128241,-3,0,-1,-2,-1,1,-1,-7
1570179938128241,1,0,2,0,2,-1,3,1
1570179938150188,0,-1,-1,0,0,0,3,12
1570179938150188,-2,-1,1,0,-1,0,1,-5
1570179938151180,0,0,1,1,-1,-1,0,0
1570179938151180,1,1,-2,-1,-1,-1,-3,-8
1570179938172364,3,0,1,-1,1,0,2,2
1570179938172364,2,0,-2,-1,-1,-2,-1,3
1570179938174118,-9,-5,-2,-2,-4,0,12,-24
1570179938174118,3,1,1,2,-1,-1,-10,3
1570179938186085,-9,-1,-2,-3,-2,-1,0,-16
1570179938186085,-3,-3,-3,-4,0,2,8,-1
1570179938193068,-2,-2,0,0,1,-2,-1,0
1570179938193068,2,1,0,0,0,-4,-14,15
1570179938210021,3,2,1,1,-2,-3,-4,-5
1570179938210021,1,-1,-2,-1,-1,1,0,20
1570179938211237,-2,-1,-3,-1,-3,0,1,-6
1570179938211237,-10,-3,1,0,-1,2,4,-20
1570179938232225,17,4,-1,0,2,1,2,51
1570179938232225,-1,-1,0,0,0,-2,-2,-5
1570179938233959,2,1,-1,0,0,-1,-3,14
1570179938233959,-4,-3,-1,0,0,0,6,-14
1570179938246922,-16,-4,-3,-1,-2,0,10,-36
1570179938246922,3,0,0,1,-1,-1,-2,-1
1570179938253293,0,0,-2,0,1,-1,-5,0
1570179938253293,7,1,-1,0,-1,-1,4,13
1570179938269861,-6,-3,-2,-1,-1,0,0,-22
1570179938269861,0,0,0,0,-1,-1,-2,1
1570179938270859,-2,0,1,0,1,-1,0,-6
1570179938270859,-1,-1,-2,-2,-1,-2,-2,-12
1570179938292338,3,-3,0,0,0,-1,-6,-14
1570179938292338,1,2,2,2,1,-1,-3,13
1570179938293981,6,-1,-1,0,1,2,-3,57
1570179938293981,-1,-1,-3,-1,-2,1,-2,1
1570179938305949,-4,0,1,0,-1,1,-1,-12
1570179938305949,5,3,0,1,0,-2,-17,8
1570179938312991,2,-2,2,-1,-2,-2,-5,-8
1570179938312991,3,1,0,-1,-1,0,5,15
1570179938329903,0,0,2,1,1,0,-4,11
1570179938329903,-3,-2,-2,-2,0,1,4,-15
1570179938330976,-4,-2,-2,-2,-1,-2,-2,-20
1570179938330976,-2,0,-1,0,-2,-2,-1,-2
1570179938351827,-3,-2,-1,0,-1,-2,4,-12
1570179938351827,0,0,0,1,-1,1,0,-2
1570179938353824,-2,-1,0,-1,-1,-1,-1,-10
1570179938353824,-4,-2,1,-1,1,0,3,0
1570179938366800,1,-1,-1,-1,-1,-1,-1,1
1570179938366800,-2,-3,-2,-1,-2,-2,1,-1
1570179938372770,-1,2,0,-1,0,-1,-3,4
1570179938372770,0,1,0,-2,0,-1,-4,-17
1570179938390100,1,-1,-2,-2,-2,0,0,9
1570179938390100,-3,-2,-1,-1,-2,0,1,-7
1570179938391096,-3,1,-1,-1,-2,-1,1,-10
1570179938391096,2,-1,-2,-2,-1,-1,1,7
1570179938412055,-10,-5,-5,-5,-3,-4,-4,-18
1570179938412055,0,-1,-1,0,1,4,5,2
1570179938414123,0,0,-3,-2,-1,-1,0,-3
1570179938414123,2,1,1,0,-1,-1,-4,12
1570179938426005,0,-1,1,-1,1,0,-1,2
1570179938426005,-2,-1,-2,2,-1,-1,1,-6
1570179938434978,1,-1,1,-1,-1,0,-1,-1
1570179938434978,-4,-4,-4,-3,-2,-1,9,-9
1570179938449938,9,3,0,0,1,3,4,45
1570179938449938,-5,-3,-2,-2,-2,-4,-1,-8
1570179938450937,2,0,1,1,1,0,0,7
1570179938450937,0,1,-2,1,-1,0,-1,-1
1570179938471881,-2,0,0,-1,-2,-1,-2,-9
1570179938471881,-2,0,0,-1,-1,0,-1,4
1570179938473874,0,-1,-2,0,-2,-2,-1,-1
1570179938473874,-2,-1,0,0,0,1,-4,-1
1570179938486842,-4,-1,-1,0,-1,0,-2,-6
1570179938486842,1,-1,1,-2,0,1,2,-3
1570179938493969,-7,-2,-1,-2,-2,0,10,-26
1570179938493969,-1,-2,1,-1,-1,0,-2,0
1570179938509783,-2,1,1,2,1,1,2,-2
1570179938509783,15,1,0,-1,-1,-3,-4,17
1570179938510776,2,0,-1,-1,0,0,-2,-4
1570179938510776,0,1,-1,0,0,1,-1,5
1570179938531720,-3,-2,-1,-1,-2,-2,-4,-4
1570179938531720,-4,-2,-1,-1,-1,-1,3,-11
1570179938533721,-1,0,1,0,0,-1,-2,5
1570179938533721,6,2,0,0,0,0,3,27
1570179938545869,3,-3,-1,-2,-2,-1,-4,2
1570179938545869,-4,-1,-1,-2,-1,-2,-2,-1
1570179938554875,4,0,-1,0,-1,-1,-4,8
1570179938554875,-2,0,0,0,-1,-2,-4,-8
1570179938569628,1,0,-3,-2,0,1,2,-1
1570179938569628,-1,0,0,0,0,-1,-2,-3
1570179938571612,-2,0,-1,-1,-1,-2,-3,-1
1570179938571612,-1,0,-1,0,-2,-2,0,-6
1570179938591559,-2,0,1,0,-1,0,0,0
1570179938591559,-8,-2,-3,-2,-1,2,8,-31
1570179938599553,4,0,0,0,2,-4,-6,-4
1570179938599553,8,-3,-3,1,0,1,3,22
1570179938605589,2,-1,-2,-1,-1,-3,0,0
1570179938605589,-6,-3,-2,-2,-2,1,1,-3
1570179938614577,-2,0,-2,-2,-1,0,2,-2
1570179938614577,-2,1,1,-1,-1,-2,-3,-8
1570179938629462,-1,-1,-2,-2,0,2,0,-1
1570179938629462,0,-1,-1,0,0,0,-4,2
1570179938631714,-2,0,-2,-1,-1,0,-1,1
1570179938631714,-2,0,-1,0,0,-1,-1,-4
1570179938652609,2,-1,-1,-1,-2,-1,-1,3
1570179938652609,-1,1,-1,1,-1,-2,-1,6
1570179938654393,-1,-1,-1,0,0,0,-1,3
1570179938654393,-1,1,1,-1,0,0,2,-4
1570179938665375,-4,0,1,-1,0,0,-2,-15
1570179938665375,8,1,-3,0,1,-4,-4,23
1570179938674452,0,-1,-1,0,-1,1,-2,5
1570179938674452,1,-1,-3,-3,-2,-2,-2,-2
1570179938689710,-3,0,0,1,0,-3,0,-5
1570179938689710,-3,0,1,-2,-2,-1,-4,-18
1570179938691293,1,1,-1,-1,0,0,-7,16
1570179938691293,-1,1,-1,0,-1,0,1,-2
1570179938712240,-3,2,1,0,0,-2,-4,6
1570179938712240,-1,-2,-2,1,-2,-1,-2,-8
1570179938715228,-1,-1,0,0,-1,-2,0,-6
1570179938715228,-3,-2,-1,0,1,1,1,-6
1570179938726297,0,0,-2,0,0,0,-3,3
1570179938726297,3,0,-1,0,0,2,4,6
1570179938735218,-1,-1,-2,-1,0,0,1,-4
1570179938735218,0,-1,0,0,0,0,0,4
1570179938749142,-2,-2,-2,-1,0,0,-1,-5
1570179938749142,-3,0,0,-2,0,-1,-3,0
1570179938751133,2,-2,-1,0,-2,0,0,0
1570179938751133,-3,0,-1,-1,0,-2,-1,-7
1570179938772156,-3,-2,0,0,-1,-1,-1,-2
1570179938772156,-2,0,1,0,0,1,1,-10
1570179938774072,-7,-3,-2,-1,-1,1,6,-11
1570179938774072,9,1,-1,2,0,0,-6,30
1570179938786085,4,1,0,0,0,2,5,6
1570179938786085,-2,0,-1,0,0,-2,-2,0
1570179938795017,-2,-1,0,-2,-1,-1,1,-6
1570179938795017,-3,-2,-2,-2,-2,0,1,-14
1570179938810093,-2,-2,-1,-1,-1,0,0,-5
1570179938810093,2,-1,0,0,-1,-1,-1,10
1570179938810975,3,0,-2,-1,-1,-2,-2,6
1570179938810975,1,3,3,1,1,-3,-8,3
1570179938831919,3,-1,-2,0,0,-1,-2,4
1570179938831919,-4,-2,1,-1,0,-1,1,0
1570179938833911,1,0,1,0,-2,-2,-2,-5
1570179938833911,-6,-2,-2,-1,0,0,4,-10
1570179938845996,-5,-1,1,-1,-1,-1,-3,-13
1570179938845996,4,0,0,0,-1,0,0,15
1570179938854856,0,0,-1,0,-1,0,2,-2
1570179938854856,2,2,-1,-1,0,-2,-3,0
1570179938869816,3,0,1,1,0,-2,-12,14
1570179938869816,4,1,-1,2,-2,-1,-3,4
1570179938870893,0,-1,0,0,-1,-1,-3,4
1570179938870893,-6,-4,-2,-1,-2,-1,1,-17
1570179938892495,-3,-1,-1,-1,-1,-2,2,-3
1570179938892495,-4,-1,-1,-3,-1,0,2,-4
1570179938893759,0,0,1,0,-2,0,-4,4
1570179938893759,-1,0,0,1,-1,-1,-1,-1
1570179938905826,-3,-2,-2,-1,-1,-1,3,-2
1570179938905826,-3,-1,-1,0,1,1,0,0
1570179938914697,-3,-2,-1,-1,-2,0,8,-16
1570179938914697,1,-3,-1,-1,-1,1,2,6
1570179938929660,0,0,0,2,0,-2,0,-3
1570179938929660,-2,-2,-1,-1,-2,0,0,-4
1570179938930736,3,0,0,0,-1,-1,-3,4
1570179938930736,-4,-1,0,-1,-3,-1,-2,-3
1570179938951660,3,-1,0,-2,-2,0,3,3
1570179938951660,-4,1,-2,-2,1,2,0,-8
1570179938953593,5,-1,0,-1,0,-2,-10,26
1570179938953593,3,2,2,1,0,0,5,20
1570179938974711,-2,1,0,0,0,-1,-1,-4
1570179938974711,-2,-2,0,-1,-1,-2,1,-5
1570179938976534,-2,-1,0,-2,-1,-1,-3,-3
1570179938976534,0,-3,-3,-2,0,1,0,-10
1570179938989500,-1,-1,-1,-1,0,0,1,2
1570179938989500,-6,-2,-2,0,-1,-1,2,-8
1570179938991496,-3,-1,0,0,0,0,-1,-5
1570179938991496,-1,-2,-1,-1,-3,-2,-2,-1
1570179939012436,0,-2,-2,-2,-1,-2,-1,-3
1570179939012436,-1,-1,-1,0,-1,0,-3,-9
1570179939013546,-2,0,-2,1,0,-1,0,0
1570179939013546,0,0,0,0,0,0,-2,1
1570179939034380,-2,0,-1,-2,-1,1,-1,-4
1570179939034380,5,0,-1,-2,-2,0,-1,6
1570179939040367,-3,-1,-2,-1,-1,-1,1,-3
1570179939040367,-1,0,-1,-2,0,1,3,1
1570179939049339,1,0,-2,0,-2,-2,-2,-2
1570179939049339,-1,1,3,3,0,-2,-2,1
1570179939051331,-4,-1,-1,0,-1,2,1,-10
1570179939051331,2,-1,-2,-1,-2,-2,-1,-1
1570179939072275,8,5,4,2,1,-2,-20,21
1570179939072275,-2,-2,-3,-2,-2,-5,-3,1
1570179939074269,-1,0,-1,-1,-1,-1,-3,0
1570179939074269,-3,-3,0,-1,0,-1,1,-7
1570179939095319,-7,-3,0,-1,1,1,5,-10
1570179939095319,5,0,-1,0,-1,-1,3,9
1570179939097213,2,-1,1,0,-1,1,1,7
1570179939097213,-3,0,0,-1,0,-2,-4,-1
1570179939109175,0,-2,-2,-1,0,0,4,-12
1570179939109175,0,0,0,0,-1,1,0,-1
1570179939116157,-7,-3,-1,-1,-2,-1,1,-18
1570179939116157,2,0,-1,-1,-2,-2,-2,1
1570179939132188,-4,-3,-1,-1,-1,-1,3,-3
1570179939132188,2,-1,1,0,-1,-1,-2,0
1570179939134111,1,-1,-1,-2,1,-2,-1,0
1570179939134111,0,0,0,-1,0,2,1,9
1570179939154150,-1,-2,-2,-2,-2,0,-1,3
1570179939154150,0,-1,-2,-1,-1,0,-2,-3
1570179939156051,-1,-1,-1,-1,-1,1,-1,1
1570179939156051,-1,-1,-1,0,-1,1,-1,-6
1570179939169020,-5,-2,0,-2,-4,1,13,-16
1570179939169020,0,0,0,1,1,2,2,5
1570179939175999,5,1,1,1,1,-2,-3,7
1570179939175999,-8,-4,-6,-3,-2,-1,7,-14
1570179939191971,1,0,-2,-1,-2,-1,3,3
1570179939191971,0,0,0,0,0,-1,-1,-3
1570179939194049,-1,-1,1,0,0,-1,-3,0
1570179939194049,-3,1,0,1,0,2,1,-8
1570179939214894,0,1,0,0,1,-2,-5,1
1570179939214894,-6,-1,0,-2,-1,-1,-4,-15
1570179939215894,8,1,-2,-1,1,1,8,30
1570179939215894,2,1,0,-1,-1,0,-2,4
1570179939229016,-2,-2,-1,-2,0,1,2,-1
1570179939229016,1,0,2,-1,-1,-2,-2,-1
1570179939235837,-4,-2,1,0,-1,-2,-1,-7
1570179939235837,-2,-2,-1,-2,0,-3,-3,-7
1570179939251807,1,0,1,1,2,-2,-5,4
1570179939251807,-4,-2,-2,-1,0,-1,0,-7
1570179939253789,-5,0,-1,0,-2,-2,-3,-9
1570179939253789,2,1,0,-1,-1,-2,0,7
1570179939274737,-4,-2,0,-3,0,1,-2,-2
1570179939274737,1,0,0,-1,0,0,4,2
1570179939276240,4,1,1,1,1,-2,-13,5
1570179939276240,0,-1,0,0,1,0,-5,3
1570179939289085,0,-1,-1,0,-2,-2,0,-1
1570179939289085,-8,-3,-2,-2,-1,0,3,-11
1570179939295676,14,3,1,2,1,2,0,31
1570179939295676,-6,-1,0,0,0,0,-1,-5
1570179939311642,1,-1,1,1,-2,-2,-4,4
1570179939311642,0,0,-2,-2,-1,0,0,4
1570179939313991,-7,-2,-2,-2,-1,-1,1,-18
1570179939313991,1,-1,1,0,2,-2,-3,2
1570179939334609,-1,-2,-3,-1,0,-1,3,4
1570179939334609,0,-1,-1,1,-2,0,-1,6
1570179939336568,-7,-3,-1,-3,-3,-1,-3,-16
1570179939336568,6,3,2,0,0,3,4,11
1570179939348536,-2,1,-1,0,0,0,0,-7
1570179939348536,4,0,-2,-1,1,-2,-6,2
1570179939357772,-1,0,-2,-2,-1,-1,1,-4
1570179939357772,-4,-2,-2,0,-2,0,0,-10
1570179939379458,3,2,-1,-2,-1,-1,-15,6
1570179939379458,3,2,0,-1,-1,-1,-3,-1
1570179939381518,-2,1,-2,0,1,0,2,-6
1570179939381518,1,0,-1,-2,0,-3,-2,-3
1570179939394418,-1,-2,-1,-1,-1,2,4,-2
1570179939394418,-1,0,-1,0,0,-1,1,2
1570179939396408,-1,-1,-2,-1,0,1,0,-3
1570179939396408,0,0,-1,-1,-2,-1,-3,-12
1570179939408481,2,-1,-1,0,0,1,3,10
1570179939408481,-3,0,0,-1,1,2,4,-7
1570179939417353,11,2,2,1,-1,-3,-6,25
1570179939417353,-3,-1,-2,-1,-1,-1,-1,3
1570179939432315,-2,-2,1,-2,0,-1,1,-5
1570179939432315,1,-1,-1,-1,-2,0,0,-1
1570179939433310,-5,1,-1,-1,-1,1,3,-11
1570179939433310,-2,-1,-1,1,0,0,-1,2
1570179939454396,0,0,-2,1,-1,-2,-3,1
1570179939454396,-2,0,0,0,0,-1,-2,-9
1570179939456248,0,-4,-3,-2,-3,1,15,-8
1570179939456248,1,0,1,1,-1,-2,-3,0
1570179939468216,-4,0,-1,-2,-2,-2,1,-9
1570179939468216,-2,-2,-1,-1,-1,-1,-2,3
1570179939477190,-4,-2,-1,-2,-1,0,1,-8
1570179939477190,-1,-1,-1,-1,0,1,1,-5
1570179939492231,3,1,0,-1,-1,-2,-3,4
1570179939492231,0,-1,0,0,-1,-1,2,7
1570179939494151,0,-2,-1,-1,-2,-1,-2,3
1570179939494151,-5,-2,-2,-1,-1,-1,-2,-9
1570179939514094,4,1,0,2,0,1,-1,15
1570179939514094,2,0,0,-1,0,0,-2,3
1570179939516088,-5,-1,0,0,1,0,-1,-9
1570179939516088,0,0,-1,-3,-1,0,0,3
1570179939528261,-3,-2,1,0,-1,-1,-1,-8
1570179939528261,-1,-3,-2,-3,1,-1,0,-7
1570179939545010,-2,-1,-2,1,-1,0,-2,2
1570179939545010,4,2,0,-1,-1,0,-2,2
1570179939552000,-1,-2,-4,-2,-2,1,0,-6
1570179939552000,-1,1,1,1,0,2,5,-7
1570179939553985,-1,1,3,0,-1,-2,-6,-2
1570179939553985,-1,-1,-1,0,1,1,2,1
1570179939574931,0,-1,0,0,-1,1,-3,-2
1570179939574931,1,-1,-2,-3,-2,0,1,1
1570179939575934,-2,-3,-1,-1,0,0,0,-5
1570179939575934,0,0,0,-1,-2,-2,-1,3
1570179939587901,-2,-1,-1,0,0,2,7,2
1570179939587901,2,-1,-3,-1,-2,0,4,17
1570179939596893,5,3,2,2,0,1,-3,5
1570179939596893,-3,-3,-1,-2,0,-2,-4,-6
1570179939611836,0,-1,0,-1,0,0,-1,-2
1570179939611836,0,-1,0,-1,-2,-1,-2,-2
1570179939613827,-3,-2,-2,-1,0,0,-2,1
1570179939613827,0,-2,-2,0,0,-1,0,2
1570179939634784,-5,-1,-1,-1,-1,-2,-2,-9
1570179939634784,3,0,-1,-1,1,-1,-2,5
1570179939635767,-4,-4,-3,-1,-2,-1,-9,3
1570179939635767,0,2,1,1,0,0,0,9
1570179939648893,-2,-1,0,-3,-1,-3,-1,-4
1570179939648893,0,-1,0,1,0,-3,-6,5
1570179939656713,-1,-1,-3,-4,0,1,5,-3
1570179939656713,0,0,1,-1,0,0,2,1
1570179939671676,0,0,-2,2,-1,-1,-3,1
1570179939671676,-6,-1,-2,-1,0,0,2,-23
1570179939674075,-1,0,0,0,-1,-1,2,-4
1570179939674075,-1,-3,-2,-2,-1,-3,-3,-1
1570179939693615,0,-1,0,-3,0,0,1,-4
1570179939693615,-4,-1,-1,0,-1,-1,-1,-5
1570179939708572,-3,0,1,0,1,0,-1,-4
1570179939708572,2,0,2,-1,0,0,-7,4
1570179939709571,-1,-2,0,-2,0,0,0,1
1570179939709571,0,-1,-1,0,-1,1,-3,1
1570179939717643,-1,0,-1,-1,-4,-1,-2,0
1570179939717643,-3,-2,-1,-3,-2,1,5,-6
1570179939732514,2,1,1,0,1,0,1,5
1570179939732514,4,0,-1,1,0,0,-9,11
1570179939733506,2,1,2,0,0,-2,1,10
1570179939733506,-2,-1,-1,-1,-1,2,0,-12
1570179939754454,1,-1,-3,-1,-1,-2,-3,1
1570179939754454,-5,-2,-1,0,0,0,-1,-3
1570179939756446,0,-1,0,1,-1,-1,0,0
1570179939756446,-2,-1,-1,-2,0,1,7,-1
1570179939768424,4,1,1,0,1,-1,0,3
1570179939768424,0,-1,2,0,-1,-2,1,0
1570179939777541,-4,-2,-1,0,0,-1,-1,-8
1570179939777541,0,0,-1,0,-3,-2,0,-2
1570179939792355,-3,-2,-2,-2,-1,-1,1,-6
1570179939792355,5,1,-1,-2,-1,-2,-1,5
1570179939793933,-2,1,1,1,0,1,1,0
1570179939793933,-2,0,0,-1,-1,0,-2,5
1570179939822268,-1,-2,-4,0,-3,-1,-2,-12
1570179939822268,0,-1,1,-1,-2,1,0,5
1570179939823455,0,-1,-1,-1,-1,-1,1,-1
1570179939823455,0,0,0,0,-1,-1,-1,2
1570179939837228,2,0,1,-1,1,1,2,16
1570179939837228,-2,-2,-1,-1,0,-2,3,-6
1570179939843667,8,2,-1,-1,-1,-3,-21,11
1570179939843667,-1,1,0,1,0,0,-2,-3
1570179939852188,-1,0,-1,0,0,-1,-2,-6
1570179939852188,3,-1,-3,-2,-2,-2,-1,9
1570179939854186,3,-2,0,-1,0,1,5,5
1570179939854186,1,-1,0,0,2,-1,-3,-2
1570179939874129,-2,-1,-2,-1,-1,-1,-1,1
1570179939874129,-5,2,1,0,-1,0,-2,-6
1570179939876124,-3,-3,-4,-2,-2,1,2,-8
1570179939876124,1,-3,-1,-2,-2,-1,1,4
1570179939888092,-5,-1,0,0,-2,0,3,-4
1570179939888092,3,1,0,0,2,-1,-11,-6
1570179939897069,-3,0,-1,0,-1,-1,3,-2
1570179939897069,-1,-1,-1,-2,0,0,-2,0
1570179939912037,0,0,-2,-1,0,-1,-2,2
1570179939912037,-5,-2,-2,-2,-2,-2,4,-8
1570179939914025,-1,0,-1,-1,-1,-2,1,2
1570179939914025,-1,0,0,0,-2,0,-1,-4
1570179939934968,-5,-3,-2,-2,-2,1,13,-16
1570179939934968,0,0,-2,0,0,1,-1,5
1570179939936579,-8,-1,-2,1,-2,0,-1,-17
1570179939936579,0,-2,-1,0,0,-2,2,3
1570179939956908,0,-2,0,-2,0,-1,-2,-4
1570179939956908,-3,-1,-1,0,-1,0,2,0
1570179939958904,-1,-1,1,0,0,0,0,-2
1570179939958904,-1,1,-1,-1,-2,-1,-4,1
1570179939971872,-1,0,0,0,0,1,-3,10
1570179939971872,0,-2,-1,0,0,-2,-1,-6
1570179939973864,1,0,-1,-1,0,-1,0,1
1570179939973864,0,-2,-1,-1,0,1,3,0
1570179939994817,2,-1,-2,2,-1,0,-2,1
1570179939994817,1,1,-1,0,1,-1,-2,19
1570179939996518,-1,0,0,-1,-1,-3,-1,-5
1570179939996518,1,2,-1,0,1,2,2,3
1570179940016796,1,1,1,-1,0,-3,-2,3
1570179940016796,-1,0,-1,-1,-1,-1,0,-3
1570179940018744,-3,-2,-2,-3,-3,-1,-3,-11
1570179940018744,-7,-3,-1,0,-2,2,9,-18
1570179940031718,12,3,1,2,0,-3,-18,23
1570179940031718,0,-3,-2,-2,0,0,1,-11
1570179940033703,1,-1,1,-2,-1,0,1,0
1570179940033703,-6,-2,-1,0,0,-1,0,-8
1570179940054649,-5,-3,-2,-2,-3,1,5,-7
1570179940054649,-4,0,0,-1,-2,1,-3,-8
1570179940055671,7,1,-2,1,0,0,1,16
1570179940055671,2,0,-2,-1,0,-3,-5,6
1570179940076938,-2,0,-1,0,-1,0,1,-6
1570179940076938,0,-2,0,1,-1,-1,0,3
1570179940078674,-1,-1,-1,0,-1,0,2,-2
1570179940078674,1,1,0,-1,1,0,-3,5
1570179940091551,-3,0,0,1,1,-2,-1,-4
1570179940091551,-3,-1,-2,-2,-1,0,3,1
1570179940099532,-1,-1,-2,0,-1,0,2,-2
1570179940099532,3,0,1,1,-1,-1,-3,-4
1570179940114491,-3,-4,-3,-3,-1,1,5,22
1570179940114491,-1,-1,-2,1,0,-2,1,-1
1570179940116536,-3,-1,-1,0,0,-1,-1,-6
1570179940116536,6,0,0,-1,-1,-1,-4,19
1570179940137547,-2,-2,0,-2,0,-1,5,-12
1570179940137547,1,0,1,1,-1,-1,0,1
1570179940138425,-4,-2,0,-1,0,0,1,2
1570179940138425,-7,-4,-3,-2,-1,0,4,-11
1570179940151394,0,-1,0,0,-1,0,-2,-8
1570179940151394,-3,-2,-1,-2,-1,1,7,-4
1570179940158371,2,2,-1,-1,-1,-1,-2,0
1570179940158371,2,2,3,2,-1,-2,1,15
1570179940174331,-1,-1,0,-1,-1,0,0,-1
1570179940174331,1,-1,0,2,0,0,-3,0
1570179940176369,-2,-2,-2,-2,-2,-1,0,-5
1570179940176369,-1,0,1,0,0,-2,-3,-2
1570179940197265,-1,-1,1,-2,-1,-2,-4,-14
1570179940197265,-1,-2,1,-2,-2,-3,1,-2
1570179940198265,4,2,2,1,0,2,-11,15
1570179940198265,2,0,-3,0,0,-4,-6,6
1570179940211706,0,1,1,0,0,-1,-2,-4
1570179940211706,-1,-2,-2,-2,-1,0,-2,-4
1570179940218366,-3,-1,0,1,0,1,3,-10
1570179940218366,-1,-1,0,-1,-1,-3,-7,-2
1570179940234170,-1,-1,-3,0,0,-1,-2,0
1570179940234170,3,-1,0,-1,-1,-1,1,3
1570179940236163,-7,-2,2,0,-1,-3,0,-7
1570179940236163,7,-2,0,0,1,3,1,23
1570179940257106,-3,1,-1,0,-1,-2,-2,-4
1570179940257106,0,1,-1,0,-2,-2,-4,-8
1570179940259102,0,-1,-1,-1,-1,-2,1,0
1570179940259102,-2,-2,-2,-3,0,0,0,-11
1570179940271369,-2,-2,-1,0,1,-1,-1,-1
1570179940271369,0,1,-1,-1,1,2,0,6
1570179940278054,0,-1,-2,0,0,-1,0,-5
1570179940278054,-2,-1,-1,1,-3,-2,2,1
1570179940295004,-2,-1,-1,0,0,0,-3,-3
1570179940295004,1,0,-1,1,1,-3,-7,8
1570179940296050,5,0,0,-1,0,0,5,9
1570179940296050,-1,-1,-2,-2,-2,0,-1,-4
1570179940317109,2,-2,-1,-2,-1,-1,-1,5
1570179940317109,-1,-1,1,-2,-1,0,-1,1
1570179940318941,1,-1,-2,-2,-2,-2,-4,3
1570179940318941,-3,1,1,1,0,-2,-2,-10
1570179940331906,0,0,-2,-1,-1,1,4,1
1570179940331906,-2,1,-1,-1,-1,-3,-2,0
1570179940337932,-3,-2,-3,0,0,0,-1,-12
1570179940337932,-2,-1,-3,-3,-1,0,3,-4
1570179940354883,2,0,0,0,0,1,3,11
1570179940354883,0,0,0,-1,0,-1,1,-2
1570179940355843,0,0,0,-2,0,2,-1,1
1570179940355843,-3,-1,1,-2,-1,-1,-3,-7
1570179940376982,-2,-2,0,0,1,-1,-1,-9
1570179940376982,-8,-3,-2,0,-1,1,6,-15
1570179940378786,-2,-1,-1,-1,0,-2,1,2
1570179940378786,-3,0,-1,0,-1,-1,-1,-3
1570179940391745,0,0,-2,0,-1,-1,-2,1
1570179940391745,-3,-2,-1,-1,1,1,2,-2
1570179940398727,0,1,0,1,-1,-3,-2,-13
1570179940398727,2,-1,-1,-1,-1,-2,-17,6
1570179940414690,1,1,0,0,-1,-2,-1,0
1570179940414690,0,-1,-1,1,0,1,-1,0
1570179940415887,-3,-1,-2,0,-1,1,0,1
1570179940415887,-1,-2,0,0,-2,-1,4,-2
1570179940437628,-1,0,1,-1,-1,-2,-5,-2
1570179940437628,3,-1,-2,1,1,1,-2,7
1570179940438621,-2,0,-1,-2,0,-1,-2,3
1570179940438621,0,-1,-1,2,1,-1,4,-5
1570179940450592,-2,0,-1,-2,0,0,0,-2
1570179940450592,0,-1,-1,0,0,-2,-1,-1
1570179940459575,0,-2,0,0,0,0,0,2
1570179940459575,-3,-2,0,-2,0,1,0,-7
1570179940474527,0,-1,-1,-1,-1,2,3,12
1570179940474527,0,1,1,-2,-1,0,0,10
1570179940476522,0,-1,1,-1,-1,1,2,-4
1570179940476522,1,0,-1,1,0,-3,-3,0
1570179940497470,-3,-1,1,1,-1,-1,-2,-12
1570179940497470,7,0,-1,-2,-2,1,2,13
1570179940498461,-1,-1,-1,1,0,0,0,5
1570179940498461,-3,-2,-1,-4,-1,-1,1,-6
1570179940510612,1,0,-3,1,-1,-2,1,-1
1570179940510612,0,1,1,0,-1,-1,-3,-7
1570179940519457,-1,-1,-1,1,-1,0,-1,-2
1570179940519457,1,-1,-1,-2,1,1,1,1
1570179940534364,0,-1,-2,-3,-1,0,0,1
1570179940534364,0,0,1,1,0,0,-3,-4
1570179940536359,1,0,1,0,-1,-1,-1,4
1570179940536359,-1,0,-1,-1,-1,0,-1,-4
1570179940557624,0,-1,-1,0,-2,0,-2,1
1570179940557624,3,1,-1,0,0,0,-9,9
1570179940558331,-1,0,-2,-1,-1,-1,0,2
1570179940558331,-2,-2,0,-1,-2,0,2,5
1570179940571268,2,0,1,-1,-1,-3,-3,2
1570179940571268,-5,-2,0,-1,0,-2,-1,-8
1570179940579246,-1,0,0,-2,0,-1,0,-2
1570179940579246,2,0,-1,-3,0,1,1,6
1570179940594439,1,0,-1,-1,0,-1,3,8
1570179940594439,-4,-1,-1,0,0,-1,2,-7
1570179940596208,-1,-1,-2,-1,0,-1,0,-1
1570179940596208,-1,-1,-1,1,0,1,2,-5
1570179940617278,-1,-1,-1,-1,-1,0,-1,-4
1570179940617278,-1,1,-1,0,-1,0,-1,-4
1570179940618552,-2,0,-1,0,-1,0,0,-1
1570179940618552,-3,-1,0,0,-1,-3,-2,-7
1570179940631260,1,0,0,0,1,0,1,7
1570179940631260,0,-1,-2,-1,0,0,-2,0
1570179940640192,2,1,-3,-2,0,-2,-1,1
1570179940640192,-4,0,1,-1,-1,-2,-1,-11
1570179940655051,-1,-1,-4,-2,0,0,-2,-4
1570179940655051,1,-2,-3,0,-1,1,2,1
1570179940657041,-2,-3,0,1,-1,0,-2,-2
1570179940657041,-1,0,-2,0,0,0,-1,2
1570179940676983,-1,-1,1,0,-1,-2,0,-5
1570179940676983,-2,0,0,-1,0,-2,0,-5
1570179940678977,-1,0,-1,-1,-1,-1,-1,1
1570179940678977,0,-1,0,0,0,-2,-1,-1
1570179940690950,-1,0,0,-1,-1,-1,0,-4
1570179940690950,-2,0,1,-1,-2,-1,-1,0
1570179940714886,2,0,-1,0,-2,0,1,0
1570179940714886,2,-2,-2,-1,-3,1,1,6
1570179940715879,-3,1,-1,-1,-1,1,7,-11
1570179940715879,2,-1,-1,0,1,-4,-21,-8
1570179940717874,1,-1,0,-3,-2,2,1,1
1570179940717874,0,0,-3,-1,0,0,3,5
1570179940736823,-2,-1,-1,0,-1,-2,-2,-10
1570179940736823,-3,-2,-1,-1,0,0,4,-4
1570179940738818,-3,0,1,0,-2,-1,-2,-1
1570179940738818,1,2,-1,-1,0,1,-3,4
1570179940750786,-2,-1,-1,-1,-1,1,-3,1
1570179940750786,-3,2,-1,0,-1,-1,3,-5
1570179940759763,3,0,-1,-1,0,0,-1,5
1570179940759763,-1,1,-1,-2,0,1,2,2
1570179940774775,-1,-2,0,0,-1,1,-2,3
1570179940774775,-2,-1,0,0,-2,-2,1,-5
1570179940776716,3,0,-1,-3,0,-2,1,5
1570179940776716,-3,-1,0,0,-1,-1,-3,-8
1570179940796665,-1,0,-2,-1,-1,-1,-2,-1
1570179940796665,0,0,-2,-1,0,1,1,6
1570179940799001,-3,-2,-2,-1,0,0,1,0
1570179940799001,0,-1,-1,3,1,-1,-2,-7
1570179940810686,2,0,-1,1,1,-2,-3,1
1570179940810686,-2,-1,0,0,-2,0,5,3
1570179940819769,0,0,-1,-1,-1,0,-2,-1
1570179940819769,-1,-1,0,-1,-1,-1,-1,-2
1570179940841644,-1,-2,-1,-2,0,-1,-2,-2
1570179940841644,1,0,-2,-1,-1,-1,1,1
1570179940843544,-3,-2,-1,-1,1,1,1,-5
1570179940843544,-3,-1,0,-2,0,-2,-2,-4
1570179940857772,-1,-1,0,1,1,-1,0,0
1570179940857772,-1,-2,1,-1,0,-1,-1,0
1570179940858498,-3,-2,-1,2,-1,1,11,-3
1570179940858498,0,-1,-1,-1,-1,0,1,5
1570179940879486,0,-1,-1,-1,-2,-1,0,1
1570179940879486,0,-1,-1,-3,-2,0,-1,5
1570179940881444,-2,0,0,1,-2,-2,0,-3
1570179940881444,0,-1,0,-2,-1,0,0,3
1570179940893409,-3,-1,-2,-2,0,0,-2,-7
1570179940893409,0,-1,-1,0,1,-1,2,-1
1570179940900389,-1,-1,-1,-1,0,-2,-5,-2
1570179940900389,2,-1,-2,-1,0,-1,1,4
1570179940917341,-1,0,-1,0,0,-2,-2,3
1570179940917341,-1,0,0,-1,1,-1,-3,0
1570179940918376,-1,0,-1,0,-1,-1,-5,-2
1570179940918376,-1,-2,0,1,1,1,0,-1
1570179940939283,-5,-3,-1,0,-2,0,3,-4
1570179940939283,1,0,-1,-2,-1,0,0,3
1570179940941276,1,0,0,0,2,-1,-2,0
1570179940941276,-2,-2,-2,-1,-2,-1,1,-4
1570179940954248,2,1,1,-3,-1,-1,-1,1
1570179940954248,-1,0,0,2,-2,1,1,5
1570179940956242,-9,0,-1,-1,-3,-1,-7,-28
1570179940956242,-2,0,1,1,-1,-1,-1,-1
1570179940977327,-2,0,-1,0,0,1,1,3
1570179940977327,-1,-2,-2,-1,0,0,4,-3
1570179940979177,1,3,1,-1,1,-1,-7,6
1570179940979177,1,0,-2,-1,-1,-1,-2,-4
1570179941000118,0,-2,0,0,0,0,0,0
1570179941000118,-2,-2,-1,-1,0,1,9,-5
1570179941001117,-2,-3,-3,-2,-1,-1,1,0
