timestamp,emg1,emg2,emg3,emg4,emg5,emg6,emg7,emg8
1569406282263155,-4,-3,-1,2,0,2,-1,14
1569406282263155,-2,0,0,-2,0,1,-1,1
1569406282264153,7,2,0,1,-1,1,-1,25
1569406282264153,-3,-2,-2,0,1,6,6,-23
1569406282265157,10,2,3,2,7,-4,-3,17
1569406282265157,0,0,0,0,-10,1,0,2
1569406282265157,-10,0,0,-1,4,13,6,-3
1569406282265157,3,0,0,-1,-2,-9,-8,-24
1569406282271101,-16,-1,-4,-1,1,-3,-5,-15
1569406282271101,18,-5,-3,-1,18,-5,1,48
1569406282286060,0,-1,0,-2,-26,-3,15,13
1569406282286060,-8,-8,-5,-3,0,12,5,-19
1569406282292047,15,2,1,-3,-10,-19,-12,-4
1569406282292047,2,0,-4,-1,-8,-16,-10,2
1569406282301058,-25,-4,-2,-1,4,7,-4,-46
1569406282301058,-1,3,3,4,4,8,-3,-7
1569406282315026,-22,-4,-3,-3,-1,-2,-8,-31
1569406282315026,5,3,2,1,0,24,21,1
1569406282330382,25,3,-2,-2,8,-29,-11,46
1569406282330382,1,-3,-1,-1,-6,-8,-3,8
1569406282369874,-1,0,1,0,1,1,3,8
1569406282369874,-9,0,-1,1,0,2,-5,-17
1569406282370851,-19,-11,0,-2,-4,-14,-4,-7
1569406282370851,6,1,-1,-1,-2,0,3,9
1569406282371930,4,5,-1,-1,-1,1,-1,-1
1569406282371930,-1,-1,0,-2,-2,0,0,-6
1569406282375051,6,3,-1,-1,1,5,0,-4
1569406282375051,-3,-3,-1,1,1,1,-1,3
1569406282381221,-13,-3,1,0,-2,-2,1,3
1569406282381221,4,3,1,-1,0,1,5,2
1569406282388787,-7,-4,0,0,0,1,0,3
1569406282388787,-4,-4,0,0,1,-1,-1,-3
1569406282397763,26,17,1,-1,0,3,1,15
1569406282397763,-2,-3,-2,0,0,-1,-1,-12
1569406282411768,-3,-1,-2,2,0,2,1,7
1569406282411768,-9,-4,-1,-2,-2,-3,-2,-3
1569406282418706,-7,-10,-1,1,1,-1,1,4
1569406282418706,9,6,1,-2,-1,-3,-4,-10
1569406282442687,-12,-13,0,0,1,1,0,-15
1569406282442687,18,13,3,-1,-1,0,-1,12
1569406282443641,-6,1,-4,-2,-4,-3,-5,-5
1569406282443641,-6,-9,-2,0,0,1,2,5
1569406282457645,5,8,1,0,-2,-2,-7,-13
1569406282457645,-12,-5,0,1,1,1,0,-17
1569406282463587,12,1,0,1,0,-1,2,21
1569406282463587,3,-1,-5,-2,-3,-1,-8,11
1569406282479545,-7,-9,-3,1,0,-1,1,2
1569406282479545,3,0,-2,0,0,1,1,-1
1569406282481575,-8,-1,1,0,-1,-2,0,-8
1569406282481575,-15,-7,-1,2,0,2,4,-5
1569406282502484,29,12,0,-1,-2,-4,-3,7
1569406282502484,1,7,-2,-2,-2,-4,-1,7
1569406282503514,-11,-9,-2,-1,2,2,3,-4
1569406282503514,-2,0,1,1,0,-3,0,-1
1569406282516482,-3,-1,0,-1,-1,1,5,9
1569406282516482,-1,-1,0,0,-1,1,2,2
1569406282525466,-8,-4,0,-2,-1,-2,1,27
1569406282525466,3,-1,-1,0,-2,0,2,-14
1569406282539386,18,11,-2,-2,-2,-1,-5,-2
1569406282539386,1,-2,1,0,0,0,-6,-12
1569406282541379,-1,-1,0,0,-1,-1,-4,-25
1569406282541379,-1,-2,1,1,-1,-4,-5,-18
1569406282563320,-7,-3,-3,-2,1,3,2,-14
1569406282563320,-2,-3,-2,-1,-2,3,-4,-11
1569406282564318,-6,-4,-1,1,-2,0,-20,-22
1569406282564318,11,2,-3,-2,-1,3,9,24
1569406282577313,-7,-1,-3,-2,-1,2,-5,-13
1569406282577313,2,1,1,0,1,0,0,6
1569406282585261,4,4,-2,0,-1,-2,1,7
1569406282585261,-6,0,0,0,-1,-3,-4,2
1569406282600222,-2,0,-1,0,-1,-3,-2,7
1569406282600222,-4,-5,-2,-1,-1,0,6,0
1569406282601221,2,-1,-2,-3,-1,-1,5,-2
1569406282601221,2,3,0,-3,1,-1,0,-7
1569406282622162,-5,-4,-1,-3,-1,-1,3,-4
1569406282622162,6,2,1,0,-1,-10,-15,18
1569406282625188,1,-1,-1,0,-1,0,5,2
1569406282625188,-3,-2,-1,1,-1,-2,-3,-6
1569406282636129,-1,1,-2,1,-1,0,2,5
1569406282636129,-2,-2,-1,-1,-1,1,3,-5
1569406282645103,0,-2,-2,-2,-1,1,0,1
1569406282645103,-1,0,0,-2,-1,-3,-5,-6
1569406282660105,6,-1,0,1,0,2,1,15
1569406282660105,-8,-3,-1,-1,-1,0,-2,-16
1569406282661060,-5,0,0,0,1,-1,0,-4
1569406282661060,5,2,-1,1,1,-4,-17,3
1569406282682003,-7,3,3,3,3,2,1,8
1569406282682003,2,0,-3,-4,-3,0,-1,5
1569406282683998,10,-2,0,0,-1,0,-2,3
1569406282683998,0,-3,-1,-2,-3,-1,0,-5
1569406282695990,4,4,1,1,0,-1,0,3
1569406282695990,-3,-1,0,0,0,0,2,0
1569406282704985,-2,-1,-1,-1,0,-2,2,-4
1569406282704985,3,2,0,-2,0,2,5,4
1569406282719903,0,-1,0,0,-2,-2,-2,-3
1569406282719903,-2,-2,0,0,0,-1,2,-2
1569406282720946,0,-1,-1,1,0,0,0,-1
1569406282720946,-1,-3,-1,-1,-2,-1,0,-1
1569406282742881,-8,-4,-2,-3,-1,-1,-3,-2
1569406282742881,1,-3,-1,-1,-1,0,-1,1
1569406282743838,1,3,-1,1,-1,-2,-1,-10
1569406282743838,3,0,-2,-1,-1,2,1,11
1569406282755807,-4,-1,2,2,-1,-1,-1,1
1569406282755807,0,0,0,-1,-2,-3,0,1
1569406282764783,-1,-1,-1,-2,-2,1,0,4
1569406282764783,-2,0,-1,-1,-1,1,2,-7
1569406282779785,1,-1,-1,-2,-2,3,-1,-3
1569406282779785,-2,-3,-1,-1,-2,0,-2,0
1569406282781781,-1,-2,-2,1,0,-1,-3,3
1569406282781781,-4,0,1,-1,0,-3,2,-8
1569406282802681,3,-1,-1,-2,-2,-1,-2,0
1569406282802681,-5,0,-1,0,1,0,0,-2
1569406282803678,-2,-1,-1,-2,1,-1,0,-2
1569406282803678,-2,-1,0,0,1,0,0,-5
1569406282815646,1,-1,-1,-1,1,-1,0,-1
1569406282815646,2,0,-2,0,-1,2,3,-6
1569406282825655,-1,0,-2,0,-2,0,0,-3
1569406282825655,-3,-1,-2,-1,-2,2,1,0
1569406282839582,-1,0,2,0,-1,-3,-3,-5
1569406282839582,-1,-1,0,-2,-1,-1,-2,1
1569406282841575,4,-2,-2,-1,0,0,-1,15
1569406282841575,4,0,0,0,0,-1,1,-3
1569406282862554,-8,-4,-6,-2,-1,0,0,-16
1569406282862554,6,0,-1,1,0,0,-1,20
1569406282863550,3,0,0,-3,-2,-2,-2,-8
1569406282863550,-2,-1,-1,-1,-1,-1,-1,-4
1569406282875487,0,0,-1,-2,0,0,0,-6
1569406282875487,-3,-2,-4,-2,-1,0,0,-9
1569406282884466,-2,0,2,4,-2,-1,-2,-14
1569406282884466,1,-1,-2,-1,1,0,6,11
1569406282900421,2,-1,0,0,-2,0,15,1
1569406282900421,-4,1,2,-1,0,-6,-40,-17
1569406282901418,2,5,0,-1,-2,1,13,6
1569406282901418,-7,-12,-7,-3,-3,0,2,-9
1569406282921366,-3,-5,-1,0,0,-1,-8,8
1569406282921366,2,1,-1,-2,-2,0,11,4
1569406282930341,5,9,1,-2,-1,-6,-13,-10
1569406282930341,-7,-7,3,2,1,-1,-3,-12
1569406282945299,6,-1,-5,-1,1,2,11,4
1569406282945299,-12,-8,3,3,2,1,2,-15
1569406282946298,11,4,0,0,0,4,3,13
1569406282946298,9,10,-1,-2,-2,0,1,-7
1569406282967244,3,5,1,-1,-1,-3,-14,2
1569406282967244,4,3,0,-1,0,0,11,7
1569406282973228,-17,-7,-4,-2,1,-1,-1,-21
1569406282973228,-3,-3,0,1,0,-2,0,-2
1569406282982202,-1,-3,3,1,0,0,-2,-6
1569406282982202,4,7,-1,-1,-1,-1,4,1
1569406282984195,-8,-15,-8,-5,-1,2,3,-6
1569406282984195,-11,1,1,-2,0,2,1,7
1569406282996163,6,-4,3,1,-1,-6,-14,-15
1569406282996163,0,0,-6,-3,-1,-1,6,-2
1569406283012121,-1,-1,-1,2,-2,-4,-11,-20
1569406283012121,13,3,-2,-1,0,-1,5,28
1569406283020099,-6,8,1,-2,0,-2,6,2
1569406283020099,1,-9,-1,-1,-2,0,3,-5
1569406283021098,4,11,3,1,2,0,1,6
1569406283021098,2,4,0,-1,-1,-4,-4,-13
1569406283042041,-3,-5,-5,-2,-2,1,1,3
1569406283042041,-7,-6,-1,0,2,-1,-3,-6
1569406283044037,-13,-12,-1,-2,-3,-2,-1,-9
1569406283044037,-3,-4,2,1,1,-1,-3,0
1569406283056046,13,12,4,1,-1,-1,-1,0
1569406283056046,-1,1,-4,-1,-1,3,4,2
1569406283064982,-2,-7,0,0,-1,-3,0,23
1569406283064982,-9,-6,-4,-3,-2,-1,-8,-12
1569406283079978,8,-1,-4,-2,-1,3,2,6
1569406283079978,9,12,4,1,-1,-2,-2,2
1569406283080981,10,4,3,0,0,-1,-1,-10
1569406283080981,11,2,-1,0,-2,-4,-6,28
1569406283101882,-6,-4,-2,-2,0,0,2,4
1569406283101882,-14,-12,-2,-1,-2,1,1,1
1569406283103874,2,9,0,-1,0,2,0,-13
1569406283103874,2,-5,-2,1,0,-1,-6,-22
1569406283115843,-13,-3,-2,-1,-2,1,2,-3
1569406283115843,-5,-2,2,-1,0,-1,0,10
1569406283124819,10,-2,-3,-3,-1,-2,-2,-7
1569406283124819,-2,8,2,1,1,3,3,2
1569406283139779,11,-1,3,2,-2,-6,-3,15
1569406283139779,-6,-11,-10,-3,-2,-3,-4,-27
1569406283141774,-10,-4,1,1,1,0,2,1
1569406283141774,4,3,-1,-2,-1,1,2,9
1569406283169700,4,-3,-3,-2,0,1,1,-6
1569406283169700,25,17,5,3,0,2,5,14
1569406283171693,-25,-19,-8,-5,-2,-5,-8,-6
1569406283171693,2,10,0,0,0,1,1,-1
1569406283175683,-15,-4,-1,0,1,1,2,2
1569406283175683,17,2,-3,-2,-1,-2,0,0
1569406283184660,39,19,4,1,-1,4,7,26
1569406283184660,-38,-24,-5,-4,-4,-3,-7,-24
1569406283199641,-20,-4,3,-1,0,1,-1,-1
1569406283199641,15,-3,-1,-2,0,1,0,9
1569406283201654,-7,9,6,2,0,1,1,-8
1569406283201654,15,8,-1,0,-2,-4,-5,-5
1569406283222558,17,-1,-3,-1,-1,0,4,9
1569406283222558,-30,-16,-4,-2,-3,-3,-7,-17
1569406283223555,10,15,5,2,2,0,-4,-20
1569406283223555,10,-11,-6,-7,-2,-2,0,12
1569406283235523,1,-4,-2,0,-1,0,0,-7
1569406283235523,5,14,5,4,2,1,3,4
1569406283244500,23,-1,-7,-4,-3,-3,-2,-7
1569406283244500,-79,-41,-10,-6,-1,0,-5,-46
1569406283259499,24,10,2,1,-1,-4,-3,13
1569406283259499,-13,-8,-3,-2,0,0,0,-4
1569406283261455,-15,-7,1,2,0,0,1,4
1569406283261455,13,10,3,4,-1,0,2,5
1569406283281500,-5,-3,-4,-1,0,1,-1,-10
1569406283281500,-10,-3,4,3,2,1,2,20
1569406283282399,11,13,0,-2,-2,0,1,-8
1569406283282399,-16,-20,-5,-1,-1,-7,-5,-22
1569406283304378,-4,-3,-1,-1,0,4,2,0
1569406283304378,4,7,3,-1,0,-2,3,9
1569406283304378,3,-4,-4,-2,3,6,-2,-3
1569406283304378,35,22,6,2,1,0,1,11
1569406283319299,-54,-17,-3,0,0,-3,-4,-15
1569406283319299,-2,-9,-3,-1,0,-1,1,-6
1569406283320336,-10,-7,-1,0,-1,0,1,0
1569406283320336,7,10,6,4,1,0,-1,-4
1569406283341267,7,-1,-2,-1,0,0,-2,5
1569406283341267,-1,5,-2,-3,-2,-3,-4,-2
1569406283349255,-18,-12,-1,-1,0,-1,-2,-6
1569406283349255,15,7,1,1,0,1,2,17
1569406283364179,11,4,-1,-2,-1,-2,0,-2
1569406283364179,-3,-4,-1,-1,-2,1,-1,-9
1569406283365213,-3,-4,-2,0,-1,-2,1,4
1569406283365213,3,-1,-2,-4,0,1,0,12
1569406283395135,-2,5,1,-2,-1,-1,-2,-6
1569406283395135,0,-2,-1,0,-2,-1,-4,-9
1569406283395135,-8,-6,0,1,0,-3,1,-2
1569406283395135,8,9,3,0,1,2,2,-1
1569406283401111,2,0,-1,-1,0,-2,-1,-6
1569406283401111,0,1,-1,1,0,1,-2,0
1569406283409061,-1,-4,-2,-3,0,0,-2,2
1569406283409061,-7,0,1,-1,0,0,0,-7
1569406283424020,3,1,2,-2,0,0,-1,2
1569406283424020,-3,-2,-3,-1,-1,0,1,-2
1569406283425064,-2,-1,1,-1,0,-2,0,2
1569406283425064,-1,1,-1,-1,0,1,1,4
1569406283446959,-2,-2,-1,0,-2,-1,0,-8
1569406283446959,2,1,-1,-2,0,-1,1,-2
1569406283446959,-8,-3,-2,1,-5,-2,-5,-7
1569406283446959,4,3,-1,-1,1,2,1,9
1569406283460920,-2,1,-1,-4,-7,-10,-2,-9
1569406283460920,5,2,0,0,1,-1,1,19
1569406283468902,0,-3,-1,0,-1,0,0,8
1569406283468902,1,-1,-1,-2,-1,0,0,1
1569406283483889,-3,3,1,2,1,-1,-8,-19
1569406283483889,-1,-2,-1,-1,0,0,1,0
1569406283484858,-1,-3,-2,-1,-2,-2,-1,3
1569406283484858,2,3,-1,2,-1,3,1,-2
1569406283506799,-8,-6,-2,-1,1,3,1,-8
1569406283506799,3,0,1,-1,-2,0,0,7
1569406283507834,-2,-6,-1,-1,1,2,2,3
1569406283507834,-6,2,-1,-1,0,-2,-7,-26
1569406283529774,8,4,2,-1,1,0,-2,-10
1569406283529774,26,13,-3,-4,-2,-5,-1,23
1569406283530734,-16,-13,-3,-2,-1,-2,-2,-9
1569406283530734,-2,-13,-1,1,-2,-1,3,12
1569406283543700,6,18,3,2,-1,0,0,6
1569406283543700,-23,-9,-4,-3,-2,-1,-7,-21
1569406283544698,3,2,-1,0,-2,0,0,0
1569406283544698,-10,-6,2,1,2,0,1,1
1569406283566639,18,-8,-9,-4,-5,-1,-3,2
1569406283566639,12,13,3,-1,-1,-1,1,1
1569406283567637,-10,-6,-3,0,0,0,-2,-23
1569406283567637,14,1,-3,-2,-2,-1,0,11
1569406283580603,6,4,4,2,3,1,4,6
1569406283580603,-29,-15,-3,-1,-1,-2,-3,-10
1569406283589576,16,13,5,2,-1,0,3,3
1569406283589576,23,26,-1,-5,-2,0,-2,-4
1569406283604537,1,-2,-1,-1,0,-1,1,9
1569406283604537,-6,-19,-9,-2,-1,-1,0,-5
1569406283604537,-10,-3,2,3,2,-1,2,11
1569406283604537,-15,-15,-1,1,0,-2,-3,-11
1569406283626478,10,21,5,2,1,2,2,-1
1569406283626478,-6,1,2,0,0,-1,1,0
1569406283627477,1,2,0,-3,-1,2,3,2
1569406283627477,0,-10,-1,-2,1,-2,-4,4
1569406283649416,-8,-6,-2,-1,-1,2,5,-4
1569406283649416,3,2,3,3,1,3,10,6
1569406283650414,6,4,-3,-1,-2,-3,-7,-5
1569406283650414,4,6,1,2,0,-2,-2,0
1569406283672357,-13,-14,-2,-2,1,-2,-4,3
1569406283672357,5,3,0,-2,-1,1,-3,-5
1569406283673352,5,3,0,-1,-3,-1,-3,-1
1569406283673352,-10,-4,0,0,-1,1,0,3
1569406283686355,-3,-5,-1,-2,1,2,4,3
1569406283686355,10,5,2,-1,-1,-3,-5,14
1569406283687317,-8,-4,-2,-3,0,-2,-7,-16
1569406283687317,-11,-2,-1,2,-2,-2,0,-8
1569406283709296,1,0,-1,-1,1,0,0,3
1569406283709296,4,3,0,1,0,0,2,2
1569406283710255,-9,-4,-1,-3,-1,2,1,-9
1569406283710255,0,2,-2,-2,-2,-1,-3,-8
1569406283724252,3,-3,-4,-2,-1,-4,-2,8
1569406283724252,-11,-5,-2,2,1,1,-1,-5
1569406283725216,3,3,1,-1,2,-2,-1,-5
1569406283725216,-1,4,0,-1,1,2,3,-3
1569406283746198,-4,-5,-1,0,-2,0,-1,3
1569406283746198,3,0,1,-1,0,0,-2,-3
1569406283747156,2,1,-1,-2,-2,-4,-2,2
1569406283747156,-1,0,-1,0,1,0,4,9
1569406283770095,-8,-3,-1,0,-2,-2,-5,-6
1569406283770095,1,-1,-3,-1,0,-1,-1,1
1569406283770095,2,1,-2,-2,-1,0,1,-4
1569406283770095,1,-1,0,-1,-1,-1,-1,4
1569406283784056,0,-1,0,1,0,-1,-1,1
1569406283784056,-2,0,0,1,0,-1,-3,-8
1569406283785055,-2,-3,-2,0,1,-1,-1,1
1569406283785055,3,1,1,-1,0,0,0,2
1569406283806997,-3,-2,-3,-1,-1,-1,-1,0
1569406283806997,-3,0,0,-1,-1,0,1,-4
1569406283806997,-2,-1,-2,-1,-1,-1,0,6
1569406283806997,5,0,1,0,0,-2,0,5
1569406283829934,0,-1,0,-1,-1,-2,-1,0
1569406283829934,0,-3,-1,1,1,0,1,-2
1569406283830963,1,1,-1,1,-1,1,1,-1
1569406283830963,1,1,-1,-2,-3,-1,0,0
1569406283843936,0,-2,0,1,0,0,-1,-4
1569406283843936,-2,0,1,0,0,-1,0,0
1569406283844896,-1,-2,0,1,1,-2,-4,-8
1569406283844896,0,0,0,0,-1,0,-1,2
1569406283866852,-1,-1,1,-1,-1,0,0,2
1569406283866852,-1,1,1,0,-2,0,-2,2
1569406283867864,1,1,-1,-1,-2,-2,2,2
1569406283867864,2,-1,-2,-1,-1,0,-1,1
1569406283889775,1,-1,-2,-2,-2,0,-1,2
1569406283889775,0,-1,-1,-1,0,0,0,-7
1569406283890772,0,-1,1,0,-1,-1,-2,4
1569406283890772,-2,-2,0,-1,-1,0,-1,-7
1569406283903738,0,2,-1,1,1,-1,-1,-12
1569406283903738,6,-2,-2,0,-2,0,-1,17
1569406283904735,3,-3,-1,-2,-1,0,0,1
1569406283904735,0,2,0,0,1,-1,-2,-3
1569406283926720,1,-1,0,-1,0,0,1,4
1569406283926720,-5,-1,0,-1,-1,-1,-1,-8
1569406283927718,2,0,-1,0,0,1,-2,1
1569406283927718,1,-1,0,0,-1,0,0,6
1569406283950653,-4,-1,0,0,0,0,-3,-2
1569406283950653,-5,1,0,-2,1,0,-1,-5
1569406283950653,2,-2,0,-1,0,0,0,-2
1569406283950653,-6,-1,-1,0,-1,-2,-2,-3
1569406283963615,-6,-2,0,-1,-2,1,-3,-13
1569406283963615,7,-1,1,-1,-1,0,0,7
1569406283964575,-4,-1,-2,-1,-2,-1,-1,-11
1569406283964575,4,0,1,-1,0,-1,-1,3
1569406283986555,-1,0,0,-1,0,-1,0,-6
1569406283986555,-3,-1,-2,-1,1,-2,-1,0
1569406283987550,3,-1,-2,-3,1,0,2,7
1569406283987550,-4,1,0,0,0,0,-2,-5
1569406284009489,-4,-3,-1,-2,-2,1,1,7
1569406284009489,-2,-2,1,0,0,1,0,-2
1569406284010453,2,0,0,1,-2,-1,0,7
1569406284010453,-1,0,-1,-1,-1,1,-1,1
1569406284024415,2,-3,-1,-1,0,0,0,-4
1569406284024415,-1,1,-2,-1,-2,-1,0,-4
1569406284024415,-3,-1,-3,-2,-1,-1,-1,-1
1569406284024415,-4,0,1,2,-1,-3,-5,-13
1569406284046357,2,0,-1,-2,0,-2,0,4
1569406284046357,-2,-1,1,0,0,-3,-1,-6
1569406284047354,-4,0,0,-2,0,-1,-2,-8
1569406284047354,1,0,-1,0,0,0,3,15
1569406284069341,-7,0,2,2,-1,1,-1,-6
1569406284069341,-3,1,1,0,0,1,-2,-5
1569406284070293,5,-1,-1,-2,-1,0,-1,6
1569406284070293,1,-1,-2,-3,0,0,3,3
1569406284084265,4,-1,-2,-1,0,-1,-2,3
1569406284084265,-6,0,1,2,-1,-1,-3,-8
1569406284085251,-2,-2,-1,1,-2,-1,-1,-5
1569406284085251,0,-3,0,-1,0,0,1,1
1569406284106225,3,0,-1,-1,0,-1,-1,3
1569406284106225,-1,-1,-4,-3,-3,-2,0,-4
1569406284107194,1,-1,0,-3,-1,-2,-1,-4
1569406284107194,-3,0,-3,-1,-2,-2,0,-3
1569406284130132,-3,0,1,-1,1,0,2,-3
1569406284130132,2,-2,0,-1,1,-1,0,3
1569406284130132,-1,-1,-2,1,0,1,0,-1
1569406284130132,-2,-3,-1,-2,0,1,-1,0
1569406284144127,-2,-2,-1,-2,-1,0,0,-8
1569406284144127,4,1,-2,0,-1,-2,-1,7
1569406284145134,-8,-1,0,1,-1,1,-4,-9
1569406284145134,6,2,-1,-1,-2,0,1,4
1569406284167055,1,0,1,0,0,-1,-1,0
1569406284167055,-2,-3,0,-1,-1,-1,-2,1
1569406284167055,1,0,-1,-1,1,-1,2,7
1569406284167055,-3,0,-2,0,-1,-1,-3,-1
1569406284189972,2,-1,-2,0,0,0,1,3
1569406284189972,1,0,-1,-2,0,1,2,2
1569406284191002,0,0,2,1,-1,-2,-3,-7
1569406284191002,-3,-2,0,-1,0,-1,0,-6
1569406284203934,2,0,-1,1,0,-2,0,5
1569406284203934,-5,-1,1,-1,2,0,-2,-6
1569406284204933,8,0,-2,-2,0,-1,1,13
1569406284204933,0,-2,1,0,-1,-1,0,-1
1569406284226873,-1,0,-1,-2,-1,0,-1,6
1569406284226873,-5,0,0,-2,-2,0,1,-8
1569406284227871,1,1,-1,0,1,2,-1,-3
1569406284227871,-1,1,-1,1,0,-1,-1,-7
1569406284249846,1,0,-1,-1,-1,0,1,8
1569406284249846,1,-1,-1,-1,-2,0,-1,1
1569406284250814,-8,0,0,-2,0,0,0,-13
1569406284250814,1,-2,-2,-1,0,1,1,8
1569406284263802,-1,1,0,-1,0,-1,-2,-8
1569406284263802,-1,-1,0,-2,-2,1,-2,3
1569406284264773,-3,-1,0,1,0,-1,0,-9
1569406284264773,2,0,0,-1,-1,-1,-3,0
1569406284286750,-3,-3,-2,-1,-2,-3,-2,-5
1569406284286750,4,-1,-2,-2,-1,-1,3,8
1569406284287711,-2,1,0,-1,-2,0,0,2
1569406284287711,-3,-2,-2,-1,-1,-1,-1,3
1569406284309651,-2,-1,0,-1,0,2,-1,-14
1569406284309651,-5,0,-3,0,1,-2,-2,-17
1569406284310650,-9,-2,1,-1,-1,-1,-3,-4
1569406284310650,1,-2,0,-1,0,0,2,2
1569406284323643,-3,-1,-1,0,-2,0,-1,1
1569406284323643,1,-1,-1,-1,0,1,-1,6
1569406284324613,2,-1,-1,0,-1,-1,-1,0
1569406284324613,-3,0,-2,0,0,-1,0,-5
1569406284346588,2,-1,-1,-1,-2,-1,-1,6
1569406284346588,0,-1,-2,-2,0,2,1,3
1569406284347551,0,-1,1,0,0,-2,-2,-3
1569406284347551,1,1,0,0,-1,-1,-2,-4
1569406284369493,3,-2,0,-1,1,0,2,8
1569406284369493,3,-1,-1,0,-1,-3,0,3
1569406284370490,-1,-1,-1,-2,-1,0,-2,-7
1569406284370490,-4,-1,-1,0,0,-1,1,-2
1569406284383456,0,2,-1,-1,-1,1,-1,-10
1569406284383456,-12,0,3,3,0,-1,-3,-15
1569406284391508,5,-1,-2,0,1,0,0,8
1569406284391508,1,-1,-1,-2,-2,2,0,-1
1569406284406504,1,-1,-1,-1,0,-1,0,4
1569406284406504,-1,-4,-1,0,-1,1,1,1
1569406284407392,-3,-2,-2,0,1,-2,1,-5
1569406284407392,-1,-1,0,-1,-1,0,0,2
1569406284429333,-3,0,-1,0,0,-2,-2,-8
1569406284429333,6,2,0,-1,0,-2,-1,-1
1569406284430330,0,-2,0,0,-1,0,-2,-2
1569406284430330,1,-1,-1,-1,0,1,-1,1
1569406284443294,-1,1,-1,-1,-2,-3,-1,0
1569406284443294,2,-1,-1,1,-3,-1,-3,3
1569406284451303,1,-1,-1,0,-1,1,2,5
1569406284451303,-3,0,0,-1,-1,-2,-1,-3
1569406284466233,-2,-3,-2,-1,0,2,0,-3
1569406284466233,1,3,2,2,0,-3,-2,-14
1569406284467232,3,1,2,1,-2,-1,-2,-5
1569406284467232,2,-3,-1,-1,-1,0,-2,9
1569406284490203,-1,-1,0,1,0,-2,-2,0
1569406284490203,1,-1,-2,-2,0,1,0,2
1569406284490203,-1,-1,-1,-1,0,1,0,3
1569406284490203,-1,0,-1,-1,-2,-1,0,-6
1569406284503136,1,-2,0,0,-1,-2,0,4
1569406284503136,0,-3,-1,-2,-1,1,0,6
1569406284511114,-4,-2,-2,0,-1,-3,-2,-1
1569406284511114,-2,-1,-1,0,-1,-1,-1,1
1569406284526073,-1,-1,1,0,-1,0,-1,-1
1569406284526073,0,0,-3,-1,0,1,1,3
1569406284527071,1,0,-1,-1,-1,0,1,0
1569406284527071,-1,0,1,1,-1,-2,-2,-3
1569406284550009,1,-3,-2,-1,-1,0,0,-2
1569406284550009,2,1,2,0,-2,-3,-5,2
1569406284551007,-3,-2,-2,-1,0,-1,1,5
1569406284551007,-2,0,0,-1,-3,-1,-1,-2
1569406284562993,1,0,-2,-1,-1,-1,1,10
1569406284562993,-1,-1,0,0,-2,-1,-2,4
1569406284571951,-1,-1,-1,1,1,0,1,-2
1569406284571951,-1,0,-1,-1,1,-1,0,0
1569406284586911,-4,-1,0,-1,0,0,-2,-9
1569406284586911,-11,-5,-2,-2,-1,-2,-2,-12
1569406284586911,12,1,-1,-1,1,2,4,12
1569406284586911,0,-1,1,-1,2,2,2,2
1569406284609888,1,1,-1,-1,0,0,-3,-2
1569406284609888,-1,0,-1,1,0,-2,-2,-7
1569406284610848,-13,0,-1,-2,-3,-3,-6,-14
1569406284610848,3,-1,-2,0,-1,1,1,1
1569406284623814,-2,-1,0,0,0,0,-1,-1
1569406284623814,2,-1,-3,-1,0,0,2,8
1569406284631791,0,-1,-3,-2,0,-2,1,0
1569406284631791,1,0,1,0,1,-1,-1,0
1569406284646752,-3,1,0,-1,0,-1,-1,-4
1569406284646752,3,0,-2,-2,1,0,-1,11
1569406284647748,2,-2,-2,0,-1,1,-2,3
1569406284647748,-3,-1,-2,0,1,-1,-1,-4
1569406284669690,1,0,1,0,-1,0,0,-2
1569406284669690,2,-1,1,0,-1,-1,2,-1
1569406284670689,-5,-2,-1,-3,0,0,0,4
1569406284670689,-2,-3,-1,-2,-2,-2,-3,0
1569406284683653,-1,0,0,0,-1,0,-3,-2
1569406284683653,1,-1,0,0,0,1,1,3
1569406284691657,3,-1,1,0,0,1,0,5
1569406284691657,-3,-1,0,0,1,0,-3,-3
1569406284706640,3,0,-1,-2,-1,-2,2,7
1569406284706640,-2,-1,-1,-2,0,-1,0,-6
1569406284707617,-4,-2,-1,-1,-1,-1,-2,-12
1569406284707617,6,-2,-2,-2,0,-1,1,22
1569406284729557,0,0,-1,-2,-1,-1,-1,-5
1569406284729557,4,0,-1,0,-1,1,-1,5
1569406284730528,1,0,-1,-1,-1,-1,0,0
1569406284730528,-1,1,0,1,-2,-2,-2,-4
1569406284752470,-3,-2,-1,1,-2,0,0,-3
1569406284752470,2,1,-1,0,-1,-1,1,6
1569406284753466,-2,-1,0,0,-1,-1,-1,-3
1569406284753466,0,0,-2,-1,0,1,1,-5
1569406284766511,1,0,-1,0,-1,0,-1,-1
1569406284766511,-2,0,0,-1,0,-3,-1,-4
1569406284767429,0,2,1,0,-2,-1,-1,-2
1569406284767429,-3,-1,1,0,0,-1,0,-7
1569406284797385,1,-2,-1,0,0,0,-1,0
1569406284797385,-3,-2,-2,-2,-1,1,1,1
1569406284798417,5,2,0,1,1,-1,0,3
1569406284798417,1,-2,-1,1,-1,-1,-3,-3
1569406284812308,-1,-1,0,-1,0,-1,0,-2
1569406284812308,-3,1,-1,-2,0,0,0,-6
1569406284813306,4,-2,-2,-2,-1,1,4,6
1569406284813306,-4,1,0,1,-2,-1,-2,-12
1569406284826307,3,-1,0,-1,0,-2,-2,-1
1569406284826307,6,-4,-3,-2,0,0,0,22
1569406284827270,-2,-1,-1,1,-1,-1,-2,-5
1569406284827270,0,-1,-1,-1,-1,0,2,-4
1569406284850208,-1,1,-1,0,-1,-1,1,-6
1569406284850208,-3,1,1,1,-1,-3,-2,-8
1569406284850208,-4,-1,0,0,0,-2,-1,-5
1569406284850208,2,-1,-1,-2,-2,0,1,11
1569406284872183,-5,0,1,1,0,-3,-2,-1
1569406284872183,-5,-2,-2,-2,-2,-1,-4,-16
1569406284873146,-3,0,-2,1,-2,-2,0,-16
1569406284873146,-2,1,2,0,1,-2,-2,-10
1569406284887148,-1,-2,-2,0,0,-1,0,-3
1569406284887148,-3,0,-2,0,0,0,-1,-4
1569406284888142,-3,-1,-1,-2,-2,-1,-2,-6
1569406284888142,-1,-3,-3,-2,1,2,2,-3
1569406284910048,9,-1,-3,-1,-3,-1,4,9
1569406284910048,3,2,2,0,-3,-2,-1,6
1569406284911044,-1,1,1,0,-1,-3,-4,-2
1569406284911044,-2,1,-2,0,-1,0,0,4
1569406284932006,-5,-2,1,-2,0,0,-2,-3
1569406284932006,-1,-2,-2,-2,1,3,-1,-1
1569406284933024,1,0,-1,-2,-1,1,-1,4
1569406284933024,-1,-2,-2,-1,-2,-4,-4,-1
1569406284946949,-2,-2,-2,0,0,0,-2,-8
1569406284946949,-3,-2,-1,-1,-2,-1,-4,-1
1569406284946949,-3,-1,-1,-1,0,0,0,-5
1569406284946949,6,0,0,0,-1,-1,0,9
1569406284969923,-3,2,-1,0,0,-1,-2,-1
1569406284969923,3,0,0,0,1,-1,1,-1
1569406284970885,-3,-3,-1,-2,1,-1,-1,-2
1569406284970885,-3,0,1,-3,-2,0,-1,1
1569406284991828,-2,-1,1,1,1,-3,-2,-3
1569406284991828,4,1,0,1,-2,1,0,13
1569406284992827,-1,-2,-2,0,0,-1,1,8
1569406284992827,1,1,-1,2,-1,0,0,1
1569406285006789,-1,-1,-1,-3,-1,-3,1,-1
1569406285006789,-2,-3,1,0,0,-2,1,-2
1569406285007812,1,-1,-1,0,-2,1,2,2
1569406285007812,-4,-1,-1,-1,0,-1,-1,-1
1569406285029727,0,0,-1,-2,-1,0,1,4
1569406285029727,-3,0,-2,-1,0,-1,0,-5
1569406285030760,-1,-1,0,1,-1,1,-3,-8
1569406285030760,-2,-1,0,1,-1,-1,1,1
1569406285051669,-2,-1,-2,-1,-2,-1,-2,-3
1569406285051669,0,-2,0,0,-1,-1,0,-8
1569406285052666,2,0,0,-3,1,-2,-1,2
1569406285052666,-4,-2,-2,-1,0,2,0,-6
1569406285066634,-2,-2,-1,1,-1,2,0,6
1569406285066634,0,-1,-2,-1,-1,0,2,2
1569406285067628,-3,1,2,1,-1,-3,-5,-16
1569406285067628,0,-1,-3,-3,-2,-1,1,-3
1569406285089568,3,0,0,0,0,1,0,10
1569406285089568,-7,0,0,-2,-2,-1,0,-5
1569406285090565,0,-1,1,0,-1,-1,0,3
1569406285090565,-2,0,-1,-1,0,-1,-3,-4
1569406285112506,2,-1,-1,0,-2,0,0,0
1569406285112506,1,0,1,0,0,-1,-1,-6
1569406285113534,-3,-2,-1,-2,-2,-2,0,0
1569406285113534,1,-1,1,-2,0,0,1,7
1569406285127466,-2,-1,0,1,1,-1,-1,-3
1569406285127466,2,1,-1,-1,-1,0,0,-1
1569406285127466,0,-2,0,-1,-1,0,0,0
1569406285127466,1,-1,-2,-1,0,-1,-1,-1
1569406285149540,0,1,0,0,0,0,1,6
1569406285149540,4,0,-1,-2,0,0,-2,-2
1569406285150405,-4,-2,1,-1,1,-1,-1,1
1569406285150405,-2,-1,-1,-2,0,1,1,0
1569406285172384,-4,-2,-2,-1,0,0,-3,-13
1569406285172384,-1,0,0,0,-2,-2,0,2
1569406285173381,1,-2,-3,1,-1,-1,0,-2
1569406285173381,-2,1,2,0,1,-1,-2,-4
1569406285186345,-3,-1,-2,0,-4,1,0,-4
1569406285186345,-4,0,-1,-2,-2,1,-3,-8
1569406285187305,5,0,-1,-1,-2,-1,0,7
1569406285187305,-5,-2,0,-1,-2,-1,0,-4
1569406285210421,2,0,1,0,-1,-2,0,3
1569406285210421,1,0,-1,-1,0,-1,1,1
1569406285210421,-1,-1,-2,-2,-1,1,0,0
1569406285210421,1,-2,-2,1,-1,0,-3,-2
1569406285232187,-3,-1,-3,-1,0,-2,-1,0
1569406285232187,-2,0,0,2,1,-1,0,-10
1569406285233185,-2,0,0,0,0,0,0,-10
1569406285233185,0,0,-2,-1,-1,-2,1,3
1569406285247362,-2,-2,1,-2,-2,0,-1,-7
1569406285247362,3,0,-2,-1,0,-1,-3,10
1569406285247362,-3,3,-1,0,0,0,1,3
1569406285247362,1,-2,-1,0,-1,2,1,-6
1569406285270428,1,1,0,-1,-1,0,0,2
1569406285270428,1,-1,-1,0,-1,0,1,1
1569406285270428,-2,-2,0,0,-2,-3,-2,-5
1569406285270428,3,0,-2,-1,-1,-1,0,-1
1569406285293068,-1,-3,-1,-1,0,0,-1,6
1569406285293068,-6,-4,-3,-1,-2,-1,1,-7
1569406285293068,-3,-3,-3,-3,0,3,13,-8
1569406285293068,-3,0,1,1,0,-5,-5,2
1569406285306451,1,2,1,0,2,0,-10,-4
1569406285306451,0,-1,-2,-1,0,-1,0,5
1569406285314387,0,0,-2,-2,-1,-2,0,4
1569406285314387,4,-2,-2,-3,-2,0,4,15
1569406285338218,2,1,0,-2,-1,0,2,-3
1569406285338218,-3,-1,0,-1,-1,-1,-1,-6
1569406285338218,2,-1,0,0,-1,-1,-10,-1
1569406285338218,-1,1,0,-1,0,1,-3,-3
1569406285351866,-2,1,0,0,-1,-2,-1,2
1569406285351866,-5,0,0,1,1,-1,-5,-12
1569406285353951,6,0,-2,-1,0,-1,2,7
1569406285353951,-2,-1,0,-1,0,-1,-3,0
1569406285366277,0,-3,-2,-2,1,0,3,0
1569406285366277,-5,0,2,-1,0,-2,-1,-12
1569406285375046,0,1,0,-1,-1,-1,-3,-1
1569406285375046,3,-1,-2,-1,-2,1,0,5
1569406285390137,0,-2,-1,1,-2,0,0,2
1569406285390137,-3,-1,-1,3,0,-1,-2,-6
1569406285390763,-6,0,1,1,0,2,-1,-10
1569406285390763,6,1,-2,-1,2,1,2,4
1569406285413167,2,-2,-2,-2,0,1,3,8
1569406285413167,-4,-3,-2,-3,-3,-1,-3,-11
1569406285413167,3,-1,-1,-1,0,-1,-1,2
1569406285413167,-5,-1,1,-1,-1,-1,-1,-9
1569406285426832,-4,1,-1,-1,0,-4,-3,-6
1569406285426832,4,-1,-1,-3,0,0,0,10
1569406285434788,1,0,0,0,-1,-1,0,6
1569406285434788,-4,-1,0,0,0,-1,-1,-7
1569406285451065,-1,-3,-1,0,-1,2,0,-2
1569406285451065,5,0,-1,0,-2,-3,2,9
1569406285451065,-4,-1,-1,0,-1,0,-1,-6
1569406285451065,-5,-1,-1,-1,-1,1,-2,-5
1569406285472967,4,-1,-1,-2,-1,0,5,4
1569406285472967,1,1,0,-2,0,1,1,-2
1569406285473541,1,-1,-2,1,1,-3,-1,1
1569406285473541,-1,0,0,1,0,-1,0,1
1569406285485509,0,0,-1,-1,-1,-1,0,1
1569406285485509,-2,3,2,0,-2,-1,-2,-4
1569406285494926,2,-1,-1,-2,-2,-2,3,-9
1569406285494926,7,0,0,0,-1,-1,-2,-1
1569406285510726,0,0,-2,2,-1,0,-4,8
1569406285510726,0,0,0,-1,0,0,-1,1
1569406285510726,-3,0,0,1,0,1,-1,-5
1569406285510726,-6,0,0,-1,-1,-1,-1,-10
1569406285532798,2,2,1,0,-1,-1,0,-1
1569406285532798,4,-2,-2,-2,0,1,-1,7
1569406285533383,0,-2,-1,-1,-2,-1,-3,5
1569406285533383,-1,-1,-1,0,0,-2,0,-5
1569406285546809,-1,0,1,-2,-1,-1,-2,-2
1569406285546809,-4,-1,0,1,0,-1,-1,-1
1569406285554747,-1,0,1,-1,-1,-1,-2,3
1569406285554747,1,0,-2,1,0,0,0,-6
1569406285570292,4,1,-2,0,0,0,3,1
1569406285570292,-2,-2,-1,-2,-1,-1,-3,-8
1569406285571443,0,3,1,0,-1,-2,-1,0
1569406285571443,3,1,0,-1,-1,0,0,3
1569406285592636,-7,-2,0,0,1,0,-5,-5
1569406285592636,-3,-3,0,-2,0,-1,1,-4
1569406285593222,0,-1,-1,0,-1,-1,-2,0
1569406285593222,1,-1,-1,-1,-1,-1,0,4
1569406285615650,0,-2,0,0,1,-1,0,-4
1569406285615650,0,0,-2,1,-1,-3,-2,2
1569406285615650,-6,-1,0,-1,-1,1,1,-7
1569406285615650,-1,0,0,-2,-1,0,-1,1
1569406285637458,-1,0,-1,0,-1,0,0,-3
1569406285637458,-1,-2,-1,1,-1,1,-1,-2
1569406285639099,-1,-1,-3,-1,0,-1,-2,1
1569406285639099,-4,0,-1,-1,-1,1,1,-2
1569406285652065,-1,-2,-2,-3,-1,-1,-1,-3
1569406285652065,3,-1,-1,-3,0,2,2,2
1569406285653060,1,0,0,0,0,-2,-3,1
1569406285653060,-1,-2,0,0,-2,-3,-1,4
1569406285683204,1,2,1,0,0,1,1,3
1569406285683204,-1,-1,-1,1,-1,0,2,2
1569406285683204,-1,-1,-2,-2,-1,2,0,0
1569406285683204,1,0,-2,-1,-1,-2,-2,0
1569406285690452,-3,-1,-2,-1,-1,-1,7,-14
1569406285690452,2,1,-2,-2,-1,-3,-1,2
1569406285690961,-1,-1,0,-1,-2,-1,-6,-1
1569406285690961,0,0,1,-2,-1,-1,0,1
1569406285713196,-4,-2,0,-2,-2,-1,0,-6
1569406285713196,-1,0,0,0,0,0,2,-6
1569406285713196,3,0,0,0,0,-1,2,0
1569406285713196,-3,-1,0,-1,-1,-2,-3,6
1569406285734881,5,-1,1,1,1,-3,-4,4
1569406285734881,10,0,0,-1,0,-1,4,13
1569406285735841,1,-2,1,-1,-1,-1,0,8
1569406285735841,-2,-1,0,0,0,1,0,-8
1569406285750265,1,0,-2,-1,0,0,0,2
1569406285750265,0,1,0,2,-2,-3,-3,-1
1569406285750801,-3,-1,-2,-1,0,-1,0,-5
1569406285750801,-8,-2,0,-1,0,0,-2,-23
1569406285773184,-2,0,1,-1,-1,-1,-3,1
1569406285773184,-3,2,-1,1,-1,-2,-4,-6
1569406285774862,0,-2,-1,0,-1,0,2,-4
1569406285774862,1,0,0,1,0,1,2,10
1569406285796168,-1,-1,0,-1,1,0,-1,-6
1569406285796168,-5,-1,1,-3,0,-1,-1,-1
1569406285797967,1,-1,-1,0,2,0,-3,2
1569406285797967,2,-1,-2,-2,-1,1,0,2
1569406285809059,-4,0,1,1,-1,0,1,-10
1569406285809059,1,-1,-1,-3,-1,1,-2,7
1569406285817622,1,-1,0,0,0,0,-3,-1
1569406285817622,1,-3,-2,-1,0,-1,-1,3
1569406285833017,1,-1,-3,-2,-1,-1,0,3
1569406285833017,-5,-3,-1,-1,1,0,-1,-12
1569406285834644,-7,0,0,-1,1,1,-1,-10
1569406285834644,1,0,-2,1,-1,0,0,-3
1569406285855010,3,1,1,0,0,-1,0,-4
1569406285855010,-4,0,0,0,-1,-2,-2,-4
1569406285856559,3,0,-1,0,-1,-1,1,2
1569406285856559,-3,-2,-1,-1,-3,-2,-1,2
1569406285868485,-2,-2,-2,-1,-2,-1,-4,2
1569406285868485,-1,1,-1,0,-2,1,1,-8
1569406285878459,-6,-1,-1,-2,1,-2,-3,0
1569406285878459,0,1,0,-1,-1,1,-1,-9
1569406285893691,1,-1,-1,0,-2,-1,0,4
1569406285893691,4,1,2,-1,0,-2,-1,9
1569406285894417,-2,-1,0,0,0,-1,-2,-7
1569406285894417,0,1,-1,0,0,0,0,0
1569406285915730,-3,-2,-1,1,-1,0,0,-2
1569406285915730,0,1,0,0,-1,-1,0,-3
1569406285917382,-4,1,1,0,0,-3,-1,-12
1569406285917382,1,0,-1,-1,0,-2,-2,6
1569406285929769,-3,-1,0,0,0,2,-2,0
1569406285929769,-4,-2,-3,-2,0,0,0,-8
1569406285936305,5,-3,-2,-1,-2,-1,0,6
1569406285936305,-3,-1,2,0,-1,0,-1,-3
1569406285952261,-2,-1,0,-1,-1,-1,0,4
1569406285952261,1,-2,-2,-1,-1,1,-1,-3
1569406285958247,3,0,-3,1,-1,1,0,3
1569406285958247,2,0,2,1,1,-3,-1,2
1569406285975633,-3,0,-1,-1,-1,-2,-2,2
1569406285975633,3,0,-1,1,0,-1,0,-1
1569406285977318,-3,0,0,-2,-1,-1,-1,1
1569406285977318,1,0,0,-1,-2,0,1,3
1569406285989624,-2,-3,-1,-3,-1,-1,-1,-2
1569406285989624,-1,-1,1,0,1,-2,-2,-2
1569406285996591,10,1,-2,0,0,2,5,21
1569406285996591,1,0,-2,-2,1,-1,0,-4
1569406286012547,-1,1,-1,-2,-1,-1,-3,0
1569406286012547,-3,0,-1,-2,-2,1,1,-7
1569406286014096,2,-1,0,-2,0,0,1,-1
1569406286014096,-4,1,2,0,-1,-2,-3,-7
1569406286035040,-1,-4,-1,-1,1,2,0,5
1569406286035040,-2,-1,0,-1,2,-3,-3,-2
1569406286036038,-3,0,-1,-1,0,-1,0,5
1569406286036038,1,0,-1,1,-1,0,1,4
1569406286049453,1,1,-1,-1,-2,-1,-1,-5
1569406286049453,3,-2,-2,-2,-2,0,0,4
1569406286056456,-4,-3,0,-1,-2,-3,-2,-2
1569406286056456,0,-1,-1,-1,0,0,-2,-6
1569406286072872,3,1,-1,1,1,-2,-1,12
1569406286072872,-4,0,-2,-1,0,1,-1,-4
1569406286073445,-3,0,-1,1,-2,-2,-3,-10
1569406286073445,-4,-2,-1,-1,-1,0,0,-4
1569406286094390,5,1,0,-1,0,-1,-3,1
1569406286094390,-1,0,0,-1,-1,-2,-1,-3
1569406286096396,1,-1,-1,0,1,0,0,8
1569406286096396,-1,1,-1,0,-1,-2,-2,0
1569406286109350,-1,-1,-1,0,0,2,0,0
1569406286109350,0,-1,0,-1,-1,1,1,3
1569406286123311,-4,0,-1,-1,-2,0,-1,-7
1569406286123311,5,0,-1,-1,-1,-3,-14,8
1569406286132583,2,1,-1,1,-2,-3,-9,7
1569406286132583,-2,-2,0,1,-1,-1,-2,-6
1569406286134282,-1,-2,0,0,-1,1,1,-2
1569406286134282,-3,-2,-2,-1,-1,1,4,1
1569406286155549,-4,0,1,-1,1,0,3,-7
1569406286155549,1,-2,-2,0,0,0,-2,-4
1569406286156546,4,-3,-3,-2,0,-1,1,8
1569406286156546,-2,-2,-1,1,-1,-1,0,-1
1569406286169505,2,0,-1,-3,-1,-2,2,0
1569406286169505,-2,0,1,0,0,0,4,0
1569406286177564,0,0,1,-1,0,1,-1,-2
1569406286177564,0,-1,-1,-3,0,-1,2,-2
1569406286192907,-2,-1,-1,1,-2,0,2,2
1569406286192907,-4,-2,-2,-2,-3,-1,-4,-5
1569406286194859,0,-1,0,1,-1,-2,-2,-3
1569406286194859,-4,0,1,-1,1,-2,0,-8
1569406286215711,-2,-1,-1,1,-2,-1,0,1
1569406286215711,0,0,-1,-1,0,0,-1,-3
1569406286216424,-4,0,-1,0,1,-1,0,-3
1569406286216424,-1,-1,0,-2,-2,0,4,-2
1569406286228850,-2,-2,-1,0,-1,0,2,-6
1569406286228850,6,1,-2,0,1,0,-2,9
1569406286237535,-8,-3,-1,0,-1,-2,-4,-3
1569406286237535,2,0,-2,0,-1,2,2,1
1569406286253527,0,-1,0,-2,0,-1,0,-3
1569406286253527,1,-1,-2,1,-1,-1,-1,0
1569406286258729,2,0,-1,-2,-1,2,-1,0
1569406286258729,-1,-2,-1,0,0,1,1,1
1569406286275675,-4,-1,-1,0,0,2,0,-3
1569406286275675,-3,-2,-2,-3,-2,0,3,10
1569406286277321,-1,0,2,-2,0,0,0,-3
1569406286277321,1,-1,-3,-2,-2,1,1,6
1569406286288887,2,0,-2,0,0,-1,-1,2
1569406286288887,-1,-1,0,0,-1,-1,0,0
1569406286297610,0,0,-1,-1,0,-1,2,2
1569406286297610,-1,0,0,1,0,-2,-1,0
1569406286312747,-3,0,0,-1,-1,0,-2,-3
1569406286312747,2,-1,-2,-1,-2,-1,-1,0
1569406286314296,-8,0,0,0,-1,-2,-3,-5
1569406286314296,2,0,1,0,1,0,0,-7
1569406286335236,-1,0,-2,0,0,-1,-1,2
1569406286335236,-2,-2,-2,-1,2,0,-1,-8
1569406286336235,3,0,-2,1,0,2,1,8
1569406286336235,-1,-2,-1,-2,-2,0,-2,0
1569406286348658,-1,-1,0,1,-2,-1,1,0
1569406286348658,1,0,3,0,-1,-1,-3,-3
1569406286358378,4,-1,-3,-2,-2,0,1,2
1569406286358378,-1,0,-2,-2,-1,0,-1,0
1569406286373237,-1,-1,0,-1,0,0,-2,-1
1569406286373237,-2,0,-2,0,0,-1,1,-4
1569406286374134,-1,0,1,0,0,-1,3,-5
1569406286374134,-5,0,1,1,-1,-2,-3,-6
1569406286395548,6,0,0,0,0,-3,1,13
1569406286395548,-7,-1,-1,0,-1,-1,-3,-4
1569406286397307,8,0,-1,-1,-2,-2,2,10
1569406286397307,-6,-3,-2,-1,-1,2,9,-14
1569406286408043,-8,-2,-1,-1,0,-1,3,-14
1569406286408043,-2,-1,0,0,0,-2,-4,-9
1569406286417346,-2,-1,-2,-1,0,-1,-2,5
1569406286417346,0,0,0,-1,-2,-2,0,1
1569406286433232,3,-1,0,0,-1,0,-1,0
1569406286433232,-2,-1,0,-1,-1,-1,1,-2
1569406286433974,-3,0,-2,0,-3,0,-2,-5
1569406286433974,3,0,-1,0,0,-1,-1,5
1569406286455375,-4,0,0,1,-1,0,-4,-2
1569406286455375,5,1,0,-2,1,0,2,9
1569406286456936,0,-4,0,-1,1,-1,-3,0
1569406286456936,-2,-4,-1,-1,-3,-1,-1,6
1569406286468880,1,0,-1,-1,-1,-1,-2,6
1569406286468880,-5,-1,1,-1,0,0,1,1
1569406286477855,0,1,2,-1,-1,-1,-3,0
1569406286477855,2,-2,-1,-1,0,0,-4,1
1569406286493127,0,0,-1,1,0,-2,-2,1
1569406286493127,2,-2,0,1,-1,0,0,1
1569406286493813,0,0,-2,-1,0,1,1,-3
1569406286493813,-4,-2,-2,-1,-1,-2,-6,-8
1569406286515199,0,0,-1,-1,-2,0,-1,0
1569406286515199,1,1,-2,1,0,-1,0,-1
1569406286516753,-2,-1,0,-1,-3,0,1,-2
1569406286516753,0,-1,1,-1,-2,0,0,3
1569406286529120,-3,-2,0,-2,0,-3,-4,-5
1569406286529120,5,0,0,0,-2,1,0,6
1569406286537698,1,-1,0,0,0,0,1,12
1569406286537698,1,3,-1,-1,-1,1,0,5
1569406286552656,-3,-1,0,0,0,-1,2,-1
1569406286552656,0,-1,-2,-2,-1,-1,-1,-4
1569406286553986,-5,0,1,0,0,-2,-2,-11
1569406286553986,8,-2,0,-1,-1,0,2,13
1569406286575026,-7,-1,-1,1,-2,1,0,-6
1569406286575026,-5,2,0,0,-1,-3,-2,-2
1569406286576592,1,0,-2,-4,1,1,-1,-2
1569406286576592,-2,1,0,-1,1,-1,-1,0
1569406286588561,1,-1,0,-1,0,-1,1,0
1569406286588561,1,-2,-1,-1,-3,-2,-2,-1
1569406286597537,3,-1,-2,0,0,0,-3,7
1569406286597537,0,2,2,-1,-1,1,-1,-2
1569406286612530,0,0,-2,-5,-2,0,1,5
1569406286612530,-2,-1,-3,0,1,0,3,-6
1569406286613538,8,-1,-1,-2,-3,0,1,10
1569406286613538,-2,-1,-1,-1,-1,-1,-2,-5
1569406286634437,-1,-2,0,-2,-1,-1,0,-2
1569406286634437,0,-2,-2,-1,-1,-1,-1,-3
1569406286636431,-5,-1,-2,-1,0,0,-1,-10
1569406286636431,3,-1,-1,0,0,0,-2,-7
1569406286657377,4,-1,0,0,1,-1,-1,2
1569406286657377,-9,-1,0,-2,-2,-3,2,-15
1569406286659784,-2,0,1,1,0,-1,0,-3
1569406286659784,0,1,-1,1,0,0,-2,4
1569406286672337,1,-2,-2,0,0,0,0,-1
1569406286672337,0,-1,-1,-2,-2,1,1,-3
1569406286674331,1,2,0,1,0,0,0,-5
1569406286674331,-7,-2,-2,0,1,1,1,-9
1569406286695275,0,-1,-1,0,-2,-1,0,1
1569406286695275,2,0,0,0,1,-2,-1,-2
1569406286696273,-3,-1,2,0,1,0,-3,-8
1569406286696273,2,1,0,-1,0,-2,0,7
1569406286717217,-1,1,-1,-2,-1,2,0,4
1569406286717217,-2,-1,-1,0,-2,0,-4,-4
1569406286723201,-4,-1,-3,-2,-2,-2,-1,0
1569406286723201,-2,-2,0,-1,-1,-1,0,-3
1569406286732176,-2,-1,-1,1,-1,0,-3,-3
1569406286732176,1,1,-2,-1,-1,-2,2,-3
1569406286734171,-1,-1,-1,-2,0,1,-1,-8
1569406286734171,-1,0,-1,0,-1,0,-4,0
1569406286755115,-2,2,-1,0,-2,-1,-1,-1
1569406286755115,2,-1,0,-2,1,-1,-4,-4
1569406286756117,-4,-1,-1,1,-1,0,-1,-6
1569406286756117,-2,-1,0,-3,-2,-2,1,-3
1569406286777056,1,0,1,-1,-1,-1,-2,0
1569406286777056,2,0,-1,-2,0,0,-3,4
1569406286779053,0,-1,0,-1,0,-1,1,6
1569406286779053,3,1,1,2,-1,-3,-6,-1
1569406286792017,-2,-1,-1,-1,1,-3,-1,4
1569406286792017,-4,0,-2,-1,0,1,-1,-4
1569406286798009,0,-1,-1,-1,0,0,0,0
1569406286798009,3,-2,-2,-1,-1,-1,2,5
1569406286814955,4,0,-1,1,-1,-1,3,3
1569406286814955,-2,-1,-2,-1,-1,-3,-2,-1
1569406286815980,2,-2,0,-1,1,0,0,2
1569406286815980,-5,-1,0,-1,-2,-1,-3,-6
1569406286836906,0,0,0,-1,-1,0,0,0
1569406286836906,-2,-1,0,2,-2,0,1,-3
1569406286838890,-3,0,-1,0,-2,-2,-1,0
1569406286838890,5,-1,1,-1,0,0,2,6
1569406286851879,-4,-2,0,1,1,1,0,1
1569406286851879,4,0,-2,1,-4,0,0,13
1569406286858850,0,-1,-1,-2,1,0,1,3
1569406286858850,-2,-1,-4,-1,1,-2,1,-1
1569406286874795,5,0,0,0,0,-3,-2,4
1569406286874795,-3,-1,0,0,1,0,0,-8
1569406286876790,4,0,0,1,-2,-2,1,3
1569406286876790,-8,-1,-3,-2,-1,1,1,-5
1569406286897733,-3,-1,-1,-1,0,1,1,-8
1569406286897733,3,1,-1,0,-1,-2,-8,8
1569406286898731,6,3,0,0,-2,-3,-9,7
1569406286898731,0,-1,-1,-1,0,1,0,-2
1569406286911697,-1,-1,-3,1,-2,-1,2,2
1569406286911697,-2,-1,2,0,0,1,3,-11
1569406286918677,-6,-2,-2,-1,0,0,3,0
1569406286918677,-2,-1,1,1,0,-1,-3,-1
1569406286934635,-1,-2,-1,-2,-1,0,-4,-2
1569406286934635,-9,-1,-1,-2,0,0,1,-5
1569406286936629,-1,-2,0,0,-1,0,2,-1
1569406286936629,-3,0,-1,1,-2,0,0,-2
1569406286957584,-1,-1,-2,-1,-1,-2,2,-2
1569406286957584,2,-2,-2,-2,-1,-3,-3,-2
1569406286958571,-2,-2,-3,-2,-2,1,2,-7
1569406286958571,0,0,0,-1,1,0,-1,2
1569406286971537,0,-1,1,-1,-1,0,-2,-2
1569406286971537,4,0,-1,-1,0,1,0,9
1569406286978526,-2,2,-1,0,-1,-1,-1,0
1569406286978526,1,-1,-1,0,0,0,-1,0
1569406286994475,1,-1,1,-2,-2,0,-1,-1
1569406286994475,5,0,0,-1,0,-1,3,15
1569406287001463,0,-1,-2,-1,-2,1,3,1
1569406287001463,3,1,0,0,0,-1,-2,-3
1569406287017416,-10,0,-1,-1,-1,1,-2,-17
1569406287017416,2,-1,0,-1,-1,0,0,1
1569406287019421,0,0,-1,-3,-1,0,-1,4
1569406287019421,3,-1,0,-1,-1,0,1,2
1569406287031376,-1,-1,-1,0,-2,-2,-3,-1
1569406287031376,-3,0,-3,-1,-2,-1,0,-7
1569406287038367,-6,-2,-1,0,0,0,0,-6
1569406287038367,2,-1,-1,-1,-1,-1,0,-6
1569406287054326,3,0,1,0,1,-2,-1,4
1569406287054326,-4,0,-1,0,1,0,0,-10
1569406287056309,0,-1,0,-2,-1,1,1,-2
1569406287056309,-4,-2,0,-2,0,-1,-2,-4
1569406287077256,6,1,-2,1,-3,1,1,8
1569406287077256,2,0,0,-1,-2,-1,1,-4
1569406287079258,-7,-2,-1,-1,0,-2,-5,-10
1569406287079258,1,0,-1,-1,-2,0,2,3
1569406287091216,-10,-4,-3,-2,1,-1,-4,-20
1569406287091216,1,-1,-1,-1,0,-1,-10,10
1569406287098198,7,0,-1,0,-2,-4,-7,9
1569406287098198,-10,-1,-1,-1,-2,-1,0,4
1569406287115435,-1,1,2,0,-2,0,1,0
1569406287115435,-3,0,-1,-1,0,1,2,-11
1569406287117146,-1,0,-1,0,0,1,3,-2
1569406287117146,3,2,2,1,2,-3,-4,-4
1569406287137384,1,0,-1,1,-1,-2,-3,6
1569406287137384,-5,-2,0,-1,-2,0,1,-6
1569406287139088,-7,-1,0,0,0,1,-2,-7
1569406287139088,4,1,0,-2,0,1,2,8
1569406287151389,1,-1,-4,-1,-2,1,3,-1
1569406287151389,4,-1,-2,-1,0,-1,1,8
1569406287160652,-1,1,-1,0,-2,-1,1,-1
1569406287160652,-7,-4,-4,-3,0,0,2,-1
1569406287175496,3,2,3,1,0,-3,-1,6
1569406287175496,-5,-1,0,1,-1,-1,-2,-8
1569406287176325,2,-1,0,0,1,0,0,1
1569406287176325,-1,0,-2,0,-2,2,0,3
1569406287197633,4,-1,0,-3,0,0,1,8
1569406287197633,-3,-2,-1,-1,-1,-1,1,-7
1569406287199616,-3,0,0,-1,-1,-3,-3,-5
1569406287199616,7,0,1,-1,0,-1,0,6
1569406287210927,-2,-2,-2,-1,2,-1,2,10
1569406287210927,2,0,0,0,-1,0,-1,2
1569406287219904,2,-2,-1,-2,-1,-1,1,-2
1569406287219904,-1,0,0,1,-1,-1,-1,1
1569406287234866,-3,-2,0,-1,-2,1,-2,-6
1569406287234866,0,-2,-2,-3,1,0,2,3
1569406287235862,-2,-2,-1,-1,0,-1,-2,-8
1569406287235862,-8,-3,-1,-1,-1,1,-1,-11
1569406287256814,-2,1,1,-1,-1,-3,-4,-8
1569406287256814,-1,-1,-3,1,-1,1,1,-8
1569406287258802,0,-1,0,-1,-1,-1,-1,-1
1569406287258802,-1,-1,-1,0,0,-1,-1,0
1569406287270767,-4,0,-1,-1,0,-2,-1,-8
1569406287270767,3,-1,0,-1,-1,-1,0,4
1569406287279746,4,2,1,1,0,-2,-13,16
1569406287279746,6,1,0,0,-1,-1,-10,7
1569406287294703,1,0,-2,-2,-1,-1,2,0
1569406287294703,-1,0,1,0,-1,-2,-4,-6
1569406287296700,3,1,-2,-1,-2,0,6,11
1569406287296700,-2,-1,-2,-1,-1,-1,3,-3
1569406287317643,3,0,0,0,0,-1,-1,5
1569406287317643,-1,-1,0,0,1,1,-1,-10
1569406287318651,0,-4,-3,-1,-3,-1,0,14
1569406287318651,-6,1,3,-1,-1,-2,-2,-10
1569406287330606,0,-2,0,0,-1,1,0,-7
1569406287330606,0,-2,0,-1,0,-1,-2,-5
1569406287339583,-2,-1,-2,-1,0,1,3,-10
1569406287339583,0,-1,1,0,0,1,3,-1
1569406287354543,7,2,0,2,1,-5,-15,2
1569406287354543,3,0,-3,0,-1,1,4,10
1569406287356537,-4,0,2,0,0,0,15,-10
1569406287356537,3,2,1,2,0,-3,-20,19
1569406287377482,-6,-1,0,-3,-1,0,-1,0
1569406287377482,-4,1,0,0,0,0,0,-18
1569406287378481,0,-2,-1,-4,-2,-4,-13,1
1569406287378481,-10,-4,-4,-1,-1,0,4,-27
1569406287390455,0,0,0,0,0,1,7,7
1569406287390455,9,0,-1,1,0,2,-1,38
1569406287400420,-2,0,-1,0,-1,-1,-4,-6
1569406287400420,0,-2,1,0,-2,-5,-4,-7
1569406287414383,-6,-2,-1,-3,-1,1,-5,-17
1569406287414383,-8,-2,-2,-2,-1,-3,0,-21
1569406287416378,8,1,-1,1,1,0,2,11
1569406287416378,-14,-6,-5,-3,-4,-2,21,-24
1569406287437331,-2,-1,-1,-1,-1,2,5,10
1569406287437331,0,-1,-1,-1,-1,-1,0,1
1569406287439316,-4,-1,0,-1,-1,0,-1,-5
1569406287439316,3,0,-1,-3,-1,2,2,7
1569406287451284,-4,-2,-2,-1,-1,-1,3,-9
1569406287451284,-10,-4,-2,-2,-2,-1,2,-12
1569406287460261,0,0,1,2,0,-4,-9,4
1569406287460261,3,0,-2,0,0,1,0,1
1569406287475220,0,-1,0,-1,0,0,-1,-2
1569406287475220,3,0,0,-2,1,1,-1,7
1569406287476219,-5,-1,-1,-1,-1,-1,4,-7
1569406287476219,3,-1,0,0,-1,-2,-2,2
1569406287497164,-1,-1,-1,0,-1,0,-4,-1
1569406287497164,-2,0,-2,0,0,-2,-2,-7
1569406287499156,-5,-2,-1,-2,0,0,2,-10
1569406287499156,9,1,-1,-1,-2,-2,1,15
1569406287511134,3,1,-3,1,1,1,3,2
1569406287511134,-2,-1,-1,-1,0,-2,-1,-1
1569406287520102,1,1,1,-1,1,2,0,-3
1569406287520102,1,-2,-1,-2,1,-2,-5,1
1569406287535062,4,-1,0,-1,-2,-1,-1,9
1569406287535062,-1,-1,-1,-1,-2,-1,0,2
1569406287536058,2,-1,-3,-1,0,2,1,4
1569406287536058,-2,1,-1,1,0,1,6,0
1569406287557013,5,1,1,0,0,-3,-7,5
1569406287557013,-5,-2,-1,0,-2,-3,-7,-14
1569406287558997,1,-2,-3,-2,0,4,12,5
1569406287558997,1,0,-2,-1,-1,0,-1,4
1569406287579940,-2,-3,-4,1,0,-1,2,-3
1569406287579940,-6,-2,-1,0,-1,0,-5,-9
1569406287580939,3,3,1,-1,-1,-1,-3,-1
1569406287580939,1,0,0,-2,0,-1,-2,5
1569406287594903,-4,1,-1,-2,0,0,0,-3
1569406287594903,1,0,1,-1,1,-2,2,3
1569406287595901,-1,-1,-1,-1,0,0,0,-6
1569406287595901,-1,1,0,1,0,1,-3,-4
1569406287616843,-4,-1,2,0,-2,-2,-1,-9
1569406287616843,-1,-1,0,0,-1,1,-3,0
1569406287618838,-3,-2,-1,-1,-2,-2,-2,-3
1569406287618838,-1,-3,0,-1,0,0,2,-3
1569406287639782,-1,-1,-1,0,-1,1,6,-5
1569406287639782,0,3,0,0,-1,-4,-9,0
1569406287641776,8,-1,-1,1,0,-1,-1,17
1569406287641776,-3,-3,-4,-3,1,2,3,-2
1569406287653754,-2,0,1,-2,0,1,4,-4
1569406287653754,-20,-7,-4,-5,-2,-3,9,-69
1569406287662740,-3,-1,1,1,-1,-3,-10,-9
1569406287662740,11,2,0,-1,-1,-1,-2,16
1569406287677680,-10,-4,-2,-2,-2,-2,4,-26
1569406287677680,3,3,2,1,-1,-1,-3,4
1569406287678676,-1,-1,-1,-2,-3,-1,-1,-7
1569406287678676,0,-1,-1,-1,-1,-4,-2,-5
1569406287699621,-11,-3,-1,-2,-2,-5,-5,-26
1569406287699621,22,4,-1,0,1,1,-8,44
1569406287701617,-6,-2,-2,0,0,-4,-8,-20
1569406287701617,4,3,3,1,0,1,-6,-1
1569406287714581,5,1,-2,-1,-1,2,0,16
1569406287714581,-1,-1,-1,-1,-1,0,0,4
1569406287721574,8,3,0,0,2,2,-1,37
1569406287721574,-6,-2,-2,-1,-1,-1,-2,-13
1569406287737530,-1,-1,0,0,0,-2,-3,3
1569406287737530,2,0,1,2,0,1,-1,2
1569406287738518,2,-2,-2,-1,-1,-1,7,3
1569406287738518,-2,-1,1,-1,0,0,2,-4
1569406287759463,1,1,0,-2,-1,1,-1,9
1569406287759463,4,0,-1,0,-2,0,3,14
1569406287761455,-13,-2,0,-1,0,0,3,-12
1569406287761455,0,-1,-2,-2,0,-2,0,4
1569406287774421,3,1,-1,-2,-1,-2,-4,-3
1569406287774421,-6,-1,-1,-1,0,-2,0,-10
1569406287780406,-5,-2,-2,-2,-1,-2,-2,-11
1569406287780406,-3,0,0,0,-1,2,0,-3
1569406287797377,9,0,-2,0,-1,0,-5,23
1569406287797377,-5,-2,-2,-1,0,1,2,-8
1569406287798369,6,3,2,2,1,-2,-3,8
1569406287798369,0,-1,0,-1,0,0,-2,12
1569406287819303,7,-2,-3,1,-1,0,1,9
1569406287819303,3,1,0,-1,1,0,0,7
1569406287821295,-5,-3,-1,-1,-2,1,3,-8
1569406287821295,-2,1,-1,-1,-1,-1,1,-8
1569406287834262,7,-1,-2,-1,1,-1,-4,16
1569406287834262,-6,0,0,1,-3,-2,-4,-12
1569406287841244,6,3,1,0,-1,0,0,5
1569406287841244,-10,1,-2,1,1,-1,-1,-4
1569406287857200,-9,-1,0,-1,-1,-2,-4,-19
1569406287857200,1,-1,-2,-3,1,-1,-4,4
1569406287859195,-6,-2,-2,-2,-2,-1,-7,-17
1569406287859195,3,1,2,1,0,0,-1,7
1569406287880159,4,-1,0,0,-2,0,1,-13
1569406287880159,-1,0,-1,-1,-1,-2,5,2
1569406287881136,-4,0,0,-1,0,0,2,-5
1569406287881136,-1,-3,-1,0,-2,-2,-2,-9
1569406287894109,-1,1,1,0,-1,-1,1,0
1569406287894109,3,1,0,-1,-1,1,2,1
1569406287901082,4,-1,-2,-1,-1,-2,2,9
1569406287901082,-2,0,-1,0,-1,-1,1,-3
1569406287917061,1,0,0,-1,1,0,0,1
1569406287917061,-2,-2,-1,0,0,0,-2,3
1569406287919034,-3,0,-1,-1,-2,0,3,-5
1569406287919034,-2,-1,0,-1,-2,-2,-3,-3
1569406287939978,-8,-3,-6,-1,0,2,5,-9
1569406287939978,0,-1,1,1,1,1,-2,0
1569406287940985,-3,-2,-1,0,-1,1,1,1
1569406287940985,-2,-4,-3,0,0,-3,-1,4
1569406287953948,-6,-2,1,-1,0,1,4,-10
1569406287953948,0,0,-2,0,-2,-4,-4,-2
1569406287960922,3,0,0,0,-1,0,-1,9
1569406287960922,0,0,0,0,-1,-1,-1,1
1569406287976880,-1,-1,0,-2,0,-1,1,0
1569406287976880,-3,-2,-1,0,-1,0,1,-7
1569406287978875,1,0,-1,0,-1,2,1,0
1569406287978875,2,-1,0,-2,-1,-1,-1,8
1569406287999819,3,1,-2,0,-1,-1,0,8
1569406287999819,-7,0,1,1,-1,0,1,-7
1569406288001815,-5,-1,-2,-1,1,-2,-3,-2
1569406288001815,3,-2,0,0,0,0,3,4
1569406288013782,-4,-2,-1,1,-2,0,-2,-13
1569406288013782,0,-4,-1,-2,-2,-1,1,19
1569406288020766,1,-1,-2,-1,-1,-1,2,7
1569406288020766,-2,-1,-1,-2,1,-1,-2,-4
1569406288037745,0,-1,0,0,-1,-2,-5,-8
1569406288037745,1,0,-1,0,0,-1,0,0
1569406288038716,1,-1,0,1,1,1,0,-1
1569406288038716,-2,1,-1,-2,-1,0,-1,-6
1569406288059668,-2,-1,-2,0,0,-1,-1,9
1569406288059668,8,1,0,-2,0,-2,-15,14
1569406288061653,-4,-2,-1,-2,-1,-1,-5,-9
1569406288061653,-5,0,-1,0,-1,2,1,-9
1569406288073621,3,-1,-1,-1,-1,0,1,3
1569406288073621,0,-2,0,0,0,-1,3,-1
1569406288082600,-1,0,-3,-1,0,0,3,-2
1569406288082600,0,1,2,0,0,-5,-7,-1
1569406288097557,-5,-2,-1,-2,0,-1,5,1
1569406288097557,-4,-2,-2,-2,0,1,3,-2
1569406288098555,1,-2,0,0,-1,-1,-2,-3
1569406288098555,-9,-2,-3,-1,0,1,4,-9
1569406288119499,4,1,-1,1,-1,-1,0,10
1569406288119499,4,0,-2,-1,0,1,4,-2
1569406288121492,-4,-2,3,0,0,0,-2,-3
1569406288121492,1,0,-2,0,1,3,5,3
1569406288133471,0,0,0,-2,0,-4,-10,1
1569406288133471,1,-1,0,-1,0,-1,-1,7
1569406288142437,1,0,-1,-2,-1,-2,-2,0
1569406288142437,1,-2,-1,0,-1,-1,-2,1
1569406288157408,0,1,-1,-1,-2,2,0,-9
1569406288157408,0,0,0,0,-1,1,1,2
1569406288159411,1,0,-1,0,0,-2,-1,0
1569406288159411,0,-3,0,-1,-1,-1,-2,6
1569406288179339,-1,-1,-2,-1,0,0,-2,-4
1569406288179339,-5,-1,0,1,-1,-1,0,-11
1569406288181334,-2,0,-1,-1,-1,1,2,-8
1569406288181334,3,2,-1,-2,0,-1,-4,8
1569406288193303,3,-2,0,-1,-1,-4,-6,0
1569406288193303,-7,-3,-3,-3,-1,-2,-9,-3
1569406288202279,-1,-3,-2,1,0,-3,-3,-9
1569406288202279,2,0,-1,2,-2,-2,1,0
1569406288217236,-3,-2,-1,0,-1,0,-5,-10
1569406288217236,2,-1,0,0,-1,0,4,3
1569406288219233,1,0,0,-2,0,-1,-6,-3
1569406288219233,-8,-3,-2,-2,-2,0,-2,-10
1569406288240176,-6,-3,-2,-2,0,0,6,-15
1569406288240176,5,-1,0,0,0,-1,-1,9
1569406288241172,-3,0,-2,-1,0,-1,0,-3
1569406288241172,2,2,-1,-1,0,0,0,0
1569406288253153,-2,2,1,1,1,2,2,-5
1569406288253153,5,-1,-3,-1,2,2,5,13
1569406288262121,1,-1,0,0,-2,-2,1,5
1569406288262121,0,-2,-1,0,0,-3,0,2
1569406288277078,-4,-1,-1,0,0,0,3,0
1569406288277078,0,0,0,1,0,0,2,-1
1569406288279074,2,0,0,0,-1,0,0,-8
1569406288279074,1,0,-1,0,-1,-1,-2,-3
1569406288300015,-5,-2,-1,-3,-2,-2,-1,-3
1569406288300015,6,1,-1,0,-1,-1,-6,6
1569406288301016,-3,0,-1,-1,-1,1,1,3
1569406288301016,-1,-2,1,-2,0,0,-1,-2
1569406288312991,-2,0,-1,0,0,-1,-1,0
1569406288312991,-6,-4,-3,-3,-1,4,4,-8
1569406288321967,0,0,0,1,-1,-2,2,-1
1569406288321967,2,0,-2,0,0,-1,-1,12
1569406288336919,1,-1,-1,0,0,-2,-2,-1
1569406288336919,-3,-1,-2,0,-3,-1,-1,-5
1569406288338912,-1,-1,-1,-1,0,0,0,-1
1569406288338912,-3,-2,-1,-3,1,-1,3,-3
1569406288359866,1,-1,1,-2,-2,0,-1,3
1569406288359866,-2,0,0,2,-2,-3,1,-11
1569406288361852,3,-1,-1,0,0,-1,0,0
1569406288361852,-5,0,-1,-1,0,1,13,-2
1569406288373819,6,1,0,1,-1,0,1,7
1569406288373819,-5,0,-1,-2,-1,1,-3,-8
1569406288382796,0,-1,-1,-1,0,2,-1,9
1569406288382796,-2,-1,-2,-3,0,0,-1,-5
1569406288396757,1,0,-2,0,0,-1,-3,1
1569406288396757,-2,-1,-1,-1,-1,2,5,2
1569406288398754,-2,0,0,0,-2,-2,-4,-7
1569406288398754,-2,-1,0,1,-2,0,-3,6
1569406288419696,0,-1,0,-1,0,0,-2,-5
1569406288419696,1,-2,-1,-1,3,-1,0,-1
1569406288421691,0,-2,-2,-3,0,0,1,4
1569406288421691,-2,0,-2,1,-2,-1,-3,-7
1569406288433658,-2,2,1,-1,0,-3,-2,-4
1569406288433658,1,0,0,0,-1,-1,0,-1
1569406288442639,-2,0,0,0,1,2,1,-1
1569406288442639,-1,0,0,0,-1,-1,0,0
1569406288457600,-10,-5,-3,-3,-2,1,4,-17
1569406288457600,2,1,-1,-1,0,0,2,2
1569406288458593,-2,-1,-1,0,1,-2,-1,-5
1569406288458593,0,0,-1,0,-1,0,-1,4
1569406288479537,4,1,0,0,-1,-1,0,1
1569406288479537,-3,-2,-1,-2,-1,-2,-4,-5
1569406288481533,4,0,-1,-2,-2,-1,2,7
1569406288481533,7,-1,0,0,-1,2,-4,14
1569406288493500,-3,-1,-2,-1,-1,-1,-3,-5
1569406288493500,4,2,0,1,-1,-1,-2,8
1569406288502475,-9,-1,0,0,-1,1,-2,-4
1569406288502475,1,-2,0,0,-1,-1,-2,-5
1569406288517470,5,2,0,-1,0,-1,3,8
1569406288517470,-4,-1,-1,0,0,-3,-3,-5
1569406288519491,-3,0,-1,-1,1,0,0,-10
1569406288519491,1,0,-3,-2,-1,-1,-1,-4
1569406288540473,0,0,2,0,-1,0,-1,1
1569406288540473,-1,1,2,0,1,1,1,-6
1569406288541370,-4,0,-1,-1,0,0,0,-6
1569406288541370,0,-1,-1,0,-1,-2,-1,1
1569406288562316,0,-2,-3,-1,-1,1,5,-2
1569406288562316,-2,0,1,0,-1,-4,-9,-2
1569406288564310,7,-2,-2,0,-1,0,4,9
1569406288564310,5,-2,-2,-2,-1,3,9,17
1569406288577276,-3,-2,-4,-2,-3,-2,1,-2
1569406288577276,0,-2,-3,-3,0,1,1,-5
1569406288579279,1,0,0,0,-2,-2,-3,-2
1569406288579279,-3,1,0,-1,0,-3,-4,-6
1569406288600232,0,0,1,1,-1,-1,-4,5
1569406288600232,-1,0,0,-1,-1,0,1,0
1569406288601220,-2,-1,-1,-2,-1,-1,-2,-2
1569406288601220,6,-1,0,-2,2,0,4,12
1569406288622155,0,-1,-2,-2,1,0,-4,12
1569406288622155,5,1,-1,-1,0,-1,0,1
1569406288624150,-2,-1,-2,-1,0,1,1,0
1569406288624150,-1,0,2,0,1,-4,-4,-5
1569406288637115,-2,-2,1,1,0,-2,-1,-6
1569406288637115,2,0,-2,-2,-2,0,1,6
1569406288639111,2,-1,0,0,-1,-1,-4,-1
1569406288639111,1,2,0,1,0,-3,-12,4
1569406288667035,1,-1,-1,0,0,-1,1,1
1569406288667035,-4,-2,-2,-2,-1,1,2,-2
1569406288669033,-2,-1,-1,0,-1,2,0,-3
1569406288669033,-9,-4,-2,-1,-1,0,-1,-11
1569406288681995,5,0,1,-1,0,-3,-2,3
1569406288681995,2,1,0,2,-1,-1,-6,0
1569406288683992,-1,0,0,-3,0,-3,1,-5
1569406288683992,0,1,1,-1,1,0,2,-3
1569406288696956,0,0,-1,-1,0,-1,0,-5
1569406288696956,-5,-2,-2,-1,-1,-2,1,1
1569406288702939,-1,-2,0,0,0,-2,0,3
1569406288702939,-1,0,0,-1,-1,0,0,4
1569406288719893,-2,2,0,-1,0,0,-4,-5
1569406288719893,9,2,1,1,-1,-5,-16,20
1569406288720892,6,0,-2,-2,-1,-2,1,17
1569406288720892,-4,-2,-1,-1,-2,-2,-2,-2
1569406288741836,-1,-1,-1,0,0,-1,-1,-1
1569406288741836,-7,-1,0,0,1,0,3,-18
1569406288743830,-6,-1,-2,-1,-1,1,0,-2
1569406288743830,1,1,-2,-4,-2,0,0,2
1569406288756796,2,-3,-1,-1,-1,0,-3,1
1569406288756796,-3,1,-2,-1,-2,0,1,-6
1569406288763776,0,1,2,1,0,-1,-1,-6
1569406288763776,-2,-2,0,0,0,1,3,-8
1569406288779734,-7,-2,-1,-1,0,-1,-4,-1
1569406288779734,0,-5,-3,-1,-1,0,4,2
1569406288781738,3,0,-2,0,-1,-2,-1,-5
1569406288781738,-2,1,-1,0,-1,-2,-5,-6
1569406288802673,1,0,1,-1,-1,-1,-1,3
1569406288802673,-4,-3,0,-1,0,4,5,-2
1569406288803669,-8,-2,-1,1,-1,-2,-3,0
1569406288803669,-2,-4,-1,-1,-1,0,4,-8
1569406288824614,1,0,-2,0,0,-3,-8,-1
1569406288824614,-2,-1,-3,-3,-2,-1,3,-8
1569406288826613,-3,-3,-2,-3,-2,1,1,2
1569406288826613,5,1,1,-1,-1,0,3,5
1569406288839574,-9,-3,-2,0,-2,1,0,-7
1569406288839574,0,-2,1,-2,-1,0,1,2
1569406288841569,3,-1,0,1,0,0,0,6
1569406288841569,-5,-1,-2,0,-1,-2,-5,1
1569406288862513,0,-1,-1,-2,0,0,2,-7
1569406288862513,3,1,-2,0,-1,-4,-1,3
1569406288864513,0,-1,1,0,-1,0,2,1
1569406288864513,-4,-1,1,0,1,-1,0,2
1569406288876475,-1,0,0,1,-2,-1,1,-2
1569406288876475,-2,0,-1,-1,0,-1,1,0
1569406288883474,-3,-1,-1,-2,0,1,-3,-13
1569406288883474,1,0,-2,-1,0,-1,0,-2
1569406288899414,6,-1,0,1,-1,1,1,6
1569406288899414,0,0,-2,0,-1,0,-7,11
1569406288901423,1,3,-2,0,-2,-1,-7,-5
1569406288901423,-2,2,-1,-1,1,-1,0,2
1569406288922363,3,-2,-1,0,-2,-1,-2,5
1569406288922363,-2,-2,0,-2,-1,0,4,-10
1569406288924348,-1,-2,-3,-1,0,-1,0,2
1569406288924348,3,-2,-1,-1,-2,1,-3,4
1569406288936315,-7,-2,-1,-3,0,-1,1,-8
1569406288936315,5,-2,-1,1,-1,-1,2,-3
1569406288945291,-5,0,1,-1,0,0,-3,-16
1569406288945291,-4,-2,-1,-1,-1,-2,-2,-12
1569406288960251,1,0,0,-1,1,-2,-2,-5
1569406288960251,-4,1,-1,0,1,0,-3,-1
1569406288961248,2,0,1,-1,0,-1,0,4
1569406288961248,0,-1,1,0,-2,-1,-5,0
1569406288982202,-2,0,0,-1,-1,-1,0,-2
1569406288982202,1,-1,0,-1,-2,-1,2,0
1569406288984189,-3,0,-1,0,-1,-1,0,-2
1569406288984189,10,0,-1,-1,-1,-1,3,11
1569406288996165,-2,-2,-2,0,1,2,10,-6
1569406288996165,-1,2,0,0,-1,-1,-2,-1
1569406289003137,-7,-2,-1,-1,-1,0,2,-5
1569406289003137,1,0,-1,-1,-1,1,2,3
1569406289020091,0,0,-2,-1,-1,-1,0,-3
1569406289020091,-2,-2,-4,-2,-1,0,0,3
1569406289021100,-2,-2,-2,-1,-2,-1,2,-4
1569406289021100,-3,1,-1,0,1,0,-3,-7
1569406289042032,1,-1,0,0,-1,-2,-1,1
1569406289042032,-3,1,0,-1,0,0,-1,1
1569406289044028,-2,0,-2,-2,-1,-3,-5,0
1569406289044028,0,-1,-2,-2,-2,0,2,1
1569406289055994,-2,-1,-2,-2,-2,1,-4,-1
1569406289055994,3,0,1,-2,0,1,1,17
1569406289064972,-1,0,0,1,1,-2,0,2
1569406289064972,-3,-3,-2,0,-1,-1,1,4
1569406289079932,1,1,0,-1,-1,0,-2,-1
1569406289079932,-1,-1,0,0,0,-2,0,-3
1569406289080929,3,-2,-2,-1,-2,0,-1,-1
1569406289080929,-2,-1,-2,-1,0,0,-2,-2
1569406289101874,-1,-1,0,-1,-1,-2,-2,3
1569406289101874,-6,-2,-2,-1,0,1,9,-18
1569406289103866,5,0,0,0,-1,-3,-3,8
1569406289103866,-1,0,0,1,0,-1,-1,0
1569406289115835,-1,-2,-1,-1,-1,0,-2,0
1569406289115835,-3,-2,0,0,-1,-2,1,-2
1569406289124812,-6,-3,-3,-1,0,0,-1,-2
1569406289124812,-3,0,-1,-2,-1,-1,0,2
1569406289139781,0,1,0,0,-2,-1,-2,-4
1569406289139781,2,0,-1,-1,-1,-1,-5,0
1569406289141766,3,1,-1,-2,0,2,1,2
1569406289141766,-4,-1,0,0,0,-1,-3,-3
1569406289162720,-2,-1,-1,-1,-1,-1,1,-4
1569406289162720,-2,-2,0,0,-3,-3,-3,-7
1569406289163708,2,-2,-2,-3,-1,2,5,9
1569406289163708,-4,-1,-2,-1,-2,-1,-1,-10
1569406289175685,-3,-2,-2,-1,0,3,13,-9
1569406289175685,-2,0,0,-1,0,-1,-6,-6
1569406289184653,0,1,2,2,0,-2,-4,-2
1569406289184653,1,0,1,-1,-2,-1,-2,3
1569406289199621,0,0,-2,-1,0,-1,-3,-1
1569406289199621,2,0,-2,-1,-2,-1,-1,7
1569406289201636,-1,2,1,-1,2,-1,-1,-6
1569406289201636,1,0,0,-2,-1,0,1,-9
1569406289222560,0,0,-1,1,-1,-1,-2,5
1569406289222560,0,0,0,1,1,1,1,-2
1569406289223548,1,-3,-1,-1,-1,1,2,0
1569406289223548,-2,-1,-1,-1,1,-2,-2,0
1569406289235515,-1,-1,-3,-2,-1,-3,-4,0
1569406289235515,1,0,-1,-1,-1,-1,-1,1
1569406289244491,2,2,0,1,0,0,2,2
1569406289244491,-1,-1,-1,-1,1,-1,-1,1
1569406289259451,0,0,-2,0,-1,0,-3,-2
1569406289259451,-1,-1,-2,-2,0,0,-1,-2
1569406289261447,-4,-1,0,0,0,-3,-6,-9
1569406289261447,1,-1,-1,0,1,3,15,-3
1569406289282400,6,0,0,0,0,-3,-8,8
1569406289282400,2,1,1,3,0,-2,2,6
1569406289284386,1,0,-1,0,-1,-1,-1,2
1569406289284386,-1,-3,-3,-2,-1,0,-1,1
1569406289296364,3,2,3,0,0,1,-4,0
1569406289296364,-4,-3,-2,-1,-1,0,0,-1
1569406289305329,2,1,1,-1,-2,-2,-1,-1
1569406289305329,2,-2,-1,0,-3,-3,-10,1
1569406289320299,-5,-2,0,-1,-3,-3,-4,-6
1569406289320299,1,0,-1,-2,1,0,-2,-1
1569406289321285,0,0,-2,-2,-1,-1,-4,-3
1569406289321285,-4,0,0,-2,-1,-1,1,-2
1569406289342230,0,-1,-2,2,-2,-2,-9,2
1569406289342230,-2,-1,1,1,0,-1,-1,0
1569406289344226,0,-4,-3,-1,-1,0,4,2
1569406289344226,1,-1,1,0,-1,2,0,-2
1569406289356202,-14,-2,-1,1,-2,0,-1,-21
1569406289356202,4,0,0,-1,0,0,3,4
1569406289365169,2,1,-1,-2,-1,1,-3,3
1569406289365169,-3,-2,0,-1,0,-1,-4,-8
1569406289380140,-1,-1,0,-2,0,-1,1,-2
1569406289380140,-4,-1,-1,-1,-1,-1,-3,-5
1569406289381127,-3,-4,-1,-1,-2,0,1,0
1569406289381127,3,1,0,0,-2,-2,-4,3
1569406289402071,-1,-1,-3,-5,-1,1,6,2
1569406289402071,2,-1,-1,0,-1,1,1,0
1569406289404067,0,-1,-1,-1,-1,-1,-1,8
1569406289404067,-1,-2,-1,0,0,-1,-1,2
1569406289416043,3,-1,1,-1,0,0,-1,4
1569406289416043,-7,-1,-1,-1,-1,-2,1,-7
1569406289425011,0,0,0,0,0,-1,-7,-5
1569406289425011,-1,-1,0,-1,0,-2,0,1
1569406289439978,-1,-1,-3,-1,-1,2,1,1
1569406289439978,1,-2,-1,1,0,1,3,6
1569406289440965,1,-2,1,0,0,-1,0,2
1569406289440965,-4,0,-1,-1,-1,-2,-2,-6
1569406289461921,2,-1,-1,-1,0,1,1,6
1569406289461921,0,0,0,-1,-2,-1,-4,0
1569406289463910,-1,0,-1,-1,0,1,2,-1
1569406289463910,-1,1,1,1,-1,0,1,0
1569406289484849,-4,0,-1,1,1,-2,1,-1
1569406289484849,3,-2,-1,-4,-2,-2,-1,4
1569406289486843,-5,-3,-2,-1,-2,-1,-3,-8
1569406289486843,0,-1,-1,-1,1,0,1,1
1569406289499811,-2,0,-1,1,1,-1,-1,-5
1569406289499811,-10,-4,-3,-3,-2,1,13,-15
1569406289501809,3,2,0,-1,0,1,-2,-4
1569406289501809,-9,-1,-2,-2,-2,-2,-5,-15
1569406289522747,3,-2,-2,-1,-1,-1,-2,5
1569406289522747,-1,-1,1,0,1,-3,-3,0
1569406289523744,-5,1,-1,-1,-3,0,1,-7
1569406289523744,5,0,-1,0,-1,-1,1,4
1569406289544689,0,-1,0,0,-1,0,4,-6
1569406289544689,2,2,1,1,-1,-1,-4,-1
1569406289546684,-1,-3,0,0,-2,-1,-2,-1
1569406289546684,0,1,1,2,-1,0,-5,-6
1569406289559650,7,-1,2,-1,0,-1,1,8
1569406289559650,3,2,0,0,-1,-1,-4,5
1569406289561644,1,-1,-2,-1,0,-1,0,5
1569406289561644,0,-1,-2,-1,-2,-1,1,-1
1569406289582587,-10,-5,-1,-3,-2,2,6,-20
1569406289582587,0,0,-1,1,-2,0,-1,-4
1569406289583586,1,-1,-1,0,-1,0,9,-4
1569406289583586,1,0,0,-1,-2,-3,-10,-4
1569406289604530,-5,0,0,0,-1,-1,-4,-10
1569406289604530,2,0,1,0,-1,-1,-1,3
1569406289606523,0,-1,-1,-2,-1,-1,0,-1
1569406289606523,-1,-1,-3,-1,0,0,2,-5
1569406289619489,3,2,0,-1,-1,-2,-5,-1
1569406289619489,-2,0,-1,-2,-1,-2,-5,-1
1569406289625474,-1,-1,-1,0,0,-1,-3,2
1569406289625474,3,-2,-2,0,-3,2,5,8
1569406289642428,1,-1,-1,-1,-1,-1,-2,6
1569406289642428,4,0,-2,2,-1,2,3,3
1569406289643436,3,3,2,1,1,-2,-8,0
1569406289643436,-2,-2,-2,-1,-1,-1,0,5
1569406289664369,-5,-2,-2,1,0,-1,-3,-7
1569406289664369,-2,-1,-2,-2,0,1,4,-6
1569406289666364,-5,-2,-1,-2,-3,0,2,-3
1569406289666364,0,0,-1,-1,1,0,2,2
1569406289679340,4,3,-1,0,-1,-2,0,13
1569406289679340,-4,-1,-1,-1,1,-1,1,-7
1569406289686310,2,0,1,1,-1,-1,-3,-3
1569406289686310,-5,-2,0,-1,1,1,2,0
1569406289702268,0,-1,-1,-2,-1,-2,0,-4
1569406289702268,4,1,1,1,-1,-2,-15,14
1569406289704263,-4,-2,-1,-2,-2,-2,-3,-8
1569406289704263,3,0,-1,-1,-3,-1,0,-3
1569406289725207,0,-1,-1,0,-1,-1,-4,1
1569406289725207,-1,1,1,-2,0,2,6,0
1569406289726203,-8,-4,-4,-2,-1,-4,-8,-7
1569406289726203,11,2,2,0,0,0,-4,14
1569406289739169,-10,-5,-2,-3,-1,1,1,-17
1569406289739169,0,0,0,-1,1,-4,-1,2
1569406289746160,2,1,0,1,0,-1,0,1
1569406289746160,-2,-2,-2,-2,-1,1,2,-2
1569406289762108,5,3,0,2,0,0,-5,5
1569406289762108,-8,-4,-1,-3,-1,-1,-3,-11
1569406289764102,1,0,-2,-1,-1,1,4,3
1569406289764102,-7,-1,-1,-2,0,-2,-2,-10
1569406289785059,1,-1,-2,-1,-2,-2,4,1
1569406289785059,2,0,-1,-2,0,-3,-11,3
1569406289786043,5,-1,-1,1,-1,-1,2,13
1569406289786043,-3,-1,0,-1,0,0,3,-2
1569406289799009,1,-2,0,0,-1,-1,2,3
1569406289799009,-2,-1,-1,0,0,1,1,-1
1569406289806000,-4,-1,0,-2,0,-2,-2,-10
1569406289806000,-4,-1,-1,-1,1,-1,-2,-5
1569406289821948,0,0,0,0,-1,-2,-4,-4
1569406289821948,-1,-1,-2,1,-1,1,2,0
1569406289823942,-5,0,0,1,0,-1,3,-7
1569406289823942,-3,1,-1,1,-1,-2,-2,-5
1569406289844888,2,-2,-2,0,0,-1,1,7
1569406289844888,-4,-1,-1,0,-3,0,9,-1
1569406289846892,-1,0,-3,-2,-1,0,-2,-4
1569406289846892,8,1,1,-1,-1,1,1,4
1569406289858858,-8,-2,0,-2,-2,-1,-5,-5
1569406289858858,9,1,1,0,-2,-4,-14,9
1569406289865840,0,0,-1,-1,0,1,-2,3
1569406289865840,-1,-2,-2,0,1,-1,-1,-4
1569406289881789,8,2,0,1,2,3,6,16
1569406289881789,-1,-1,-1,1,-1,-1,0,-8
1569406289883783,-2,0,1,0,0,0,0,-2
1569406289883783,-1,-1,0,-1,-1,-3,-7,-3
1569406289904727,-2,-1,0,-3,-4,-2,-3,-1
1569406289904727,-2,-1,-2,-1,0,-1,1,-2
1569406289906722,5,0,-2,0,-1,1,0,4
1569406289906722,-3,-1,-1,0,0,-1,2,2
1569406289918700,-2,-2,-1,-2,1,-1,-1,-6
1569406289918700,0,0,0,0,-2,0,1,2
1569406289925679,0,-1,-2,-2,1,-2,-3,-2
1569406289925679,-1,-1,-1,0,-2,1,2,5
1569406289942635,-1,-1,-1,-1,0,-2,-2,-4
1569406289942635,-1,0,-1,0,0,1,-1,-4
1569406289943623,0,-1,1,-1,-1,1,4,3
1569406289943623,9,2,3,3,0,-2,-10,8
1569406289964568,-4,0,-2,0,-1,-3,-6,-3
1569406289964568,-1,-3,-3,-3,-1,0,5,-8
1569406289966562,0,-1,-1,-1,0,-1,0,7
1569406289966562,-3,0,-3,-3,0,-1,0,-10
1569406289978529,-4,-1,-1,0,-1,-3,-1,-14
1569406289978529,-1,-2,-2,-2,-1,-2,3,5
1569406289987505,-5,-1,0,-1,-1,-2,2,-4
1569406289987505,-2,-1,-1,-2,-1,0,-1,-5
1569406290002465,1,1,2,-1,1,0,0,-1
1569406290002465,1,0,1,0,-1,-2,0,2
1569406290003465,7,1,0,0,0,0,1,4
1569406290003465,-2,0,-1,0,-1,1,8,4
1569406290024409,5,1,-2,1,0,0,-5,5
1569406290024409,0,1,-1,3,-1,-1,-3,-3
1569406290026402,-1,1,0,-1,-1,-1,-3,-3
1569406290026402,-2,0,-1,-1,-1,-1,0,-3
1569406290038737,-4,-4,-3,-3,-1,2,12,-10
1569406290038737,1,1,0,-2,-1,0,-4,3
1569406290053692,-8,-2,-3,0,-2,1,4,-1
1569406290053692,-4,-3,-2,1,-1,-3,-3,-9
1569406290062840,2,-2,-3,-2,2,2,5,10
1569406290062840,-5,-3,-2,-3,0,-2,-7,-7
1569406290063627,1,-2,-2,-1,-1,1,4,4
1569406290063627,2,1,0,0,0,-1,-1,1
1569406290085599,4,-1,0,0,-2,1,0,14
1569406290085599,-2,-3,-2,-2,-1,-1,0,-15
1569406290086573,5,1,-1,0,1,-2,-1,7
1569406290086573,4,-3,-3,-1,0,0,-1,8
1569406290098559,-1,1,0,1,0,1,-3,-8
1569406290098559,2,0,-1,1,1,0,0,-1
1569406290107516,-4,0,0,1,-1,-2,-4,-5
1569406290107516,-1,-1,-1,1,1,-2,-1,-3
1569406290122471,0,-1,0,-1,-1,-2,-3,-2
1569406290122471,-1,0,0,1,-1,-1,1,5
1569406290123469,2,0,1,-1,0,-1,-8,3
1569406290123469,-6,-3,-2,-1,-2,2,7,-7
1569406290145488,0,3,3,1,-3,-2,-1,-2
1569406290145488,2,-1,0,0,-1,-2,-3,0
1569406290146407,-1,0,-1,0,-2,-2,-1,-1
1569406290146407,-4,-1,0,-3,1,1,-2,-10
1569406290159007,-5,-4,-2,-1,-1,3,7,1
1569406290159007,-1,1,-1,0,0,1,7,0
1569406290167066,0,1,0,-1,-2,0,-1,2
1569406290167066,-7,0,-1,0,-1,-1,-2,-9
1569406290183015,1,-1,-3,-3,-1,-2,-4,-2
1569406290183015,1,0,2,-1,1,0,0,4
1569406290184013,-2,-3,-2,-2,0,-2,0,-3
1569406290184013,-4,-2,-4,-1,-2,-1,3,-4
1569406290212986,0,-1,0,-1,-2,0,-4,-8
1569406290212986,-4,0,-2,-1,-1,-1,-2,-1
1569406290213904,0,0,0,-1,-1,-2,0,0
1569406290213904,-2,-1,0,-2,-1,0,9,-11
1569406290219191,3,2,1,2,0,-3,-15,-2
1569406290219191,1,-2,-1,1,-1,0,1,10
1569406290227867,-3,-1,-1,0,-2,-2,2,-2
1569406290227867,2,-1,-4,-2,1,1,-2,4
1569406290243028,2,1,0,2,0,2,7,14
1569406290243028,-1,1,0,0,-1,0,-1,-4
1569406290243983,-5,-2,-1,0,1,1,-2,-7
1569406290243983,6,2,-1,1,-2,-2,-2,4
1569406290265221,-2,-2,0,1,0,-1,-2,3
1569406290265221,0,-1,-1,0,-2,-2,0,-1
1569406290266920,-3,-2,-2,-4,0,1,9,2
1569406290266920,0,-1,2,-3,-1,-1,-4,1
1569406290279132,-4,0,-1,0,-1,0,0,2
1569406290279132,-5,-1,0,-1,-1,-1,-1,-2
1569406290287865,4,3,0,-2,0,2,-4,5
1569406290287865,0,-2,0,-2,-2,-2,-3,4
1569406290303008,0,0,-1,-1,-2,0,10,-15
1569406290303008,-2,-1,0,-2,-3,-1,0,3
1569406290303824,-1,-1,-1,0,0,-3,-5,-5
1569406290303824,-3,1,0,-1,0,0,-3,-4
1569406290333015,0,0,-1,-2,-1,-1,0,2
1569406290333015,0,0,-1,-3,1,-1,-1,3
1569406290333752,0,-1,1,-1,0,-2,1,-4
1569406290333752,-4,-1,0,2,-3,-1,0,-5
1569406290339023,-5,-3,-2,-1,-1,0,-2,0
1569406290339023,2,1,-1,0,-2,1,0,-3
1569406290347925,-1,-2,-1,1,-2,2,-1,2
1569406290347925,0,1,3,1,0,-3,-5,-3
1569406290362959,-2,-3,-4,-2,-1,-2,1,3
1569406290362959,-1,-1,-2,-2,-2,-2,-5,-8
1569406290364688,10,1,1,-1,-1,-5,-20,4
1569406290364688,4,-1,1,0,-2,0,-1,13
1569406290384823,-1,0,-1,0,-1,-3,-4,-1
1569406290384823,-5,0,1,1,0,2,8,4
1569406290386600,-7,-1,-3,-2,1,3,4,-14
1569406290386600,3,-2,-3,-2,-1,-2,1,2
1569406290407545,-1,2,3,1,0,-4,-11,0
1569406290407545,0,-3,-3,-1,-3,1,3,1
1569406290408543,-2,-2,-1,1,-1,-1,3,2
1569406290408543,2,-1,0,-1,-1,0,-1,2
1569406290421803,-3,0,1,-1,1,0,4,-5
1569406290421803,8,-1,0,-1,1,0,1,8
1569406290428787,0,0,0,0,-2,-1,2,-4
1569406290428787,1,0,-1,-2,0,-1,-5,-5
1569406290445503,1,-1,-3,0,-1,1,-2,4
1569406290445503,-1,-1,0,-1,0,-1,-3,-9
1569406290446441,0,-1,-1,-3,-1,-2,0,6
1569406290446441,2,-2,-1,0,0,-1,3,8
1569406290467385,-4,-1,-2,-1,-2,-1,-4,-8
1569406290467385,-1,-2,-1,1,0,-1,-3,-2
1569406290469380,2,1,-1,1,-1,0,5,5
1569406290469380,-3,-1,-1,-1,1,-1,-2,-8
1569406290481643,-2,-1,0,-2,0,0,0,1
1569406290481643,3,-1,-2,-2,-1,-1,-1,-2
1569406290490603,0,0,-1,-1,-1,1,-1,-2
1569406290490603,0,0,-2,0,-1,0,1,-5
1569406290505500,4,0,-1,-1,0,-1,-2,4
1569406290505500,-1,-2,-1,0,0,0,-4,-15
1569406290506281,-4,2,2,0,-2,1,-2,11
1569406290506281,-2,1,2,1,2,0,9,-7
1569406290527461,-4,2,3,0,1,1,-5,-2
1569406290527461,5,-1,-1,-2,-2,-2,4,5
1569406290529220,7,-2,-7,-5,0,-1,-9,-1
1569406290529220,-4,0,0,1,-1,-6,-9,-3
1569406290542476,2,-1,4,-3,-5,-1,11,8
1569406290542476,-10,-1,-4,5,0,-1,-6,-16
1569406290544180,6,0,3,5,5,3,11,12
1569406290544180,2,-1,-3,-2,4,4,2,1
1569406290565416,-14,-6,-6,-4,-13,-7,-4,-10
1569406290565416,21,-2,-4,-10,-9,-4,-2,45
1569406290566215,-7,-3,-4,-7,-5,-5,-2,0
1569406290566215,1,0,-7,8,4,-6,-20,-9
1569406290587066,-13,6,5,18,14,6,8,-28
1569406290587066,20,15,14,4,2,2,-1,7
1569406290589059,-10,-6,5,-3,-2,0,12,-7
1569406290589059,-1,-7,-20,-16,-2,1,9,7
1569406290601033,19,21,-18,-6,1,3,10,20
1569406290601033,-26,-41,-2,15,1,1,-10,-17
1569406290610004,20,-9,37,19,3,0,-13,23
1569406290610004,1,9,12,-9,7,3,-6,-4
1569406290624966,0,1,-21,0,-4,-3,-14,-13
1569406290624966,5,36,2,-7,-2,1,4,-13
1569406290625965,3,36,-14,-4,0,0,4,12
1569406290625965,-14,-37,45,15,4,-1,-23,-15
1569406290646906,2,-26,1,-11,-7,-7,11,8
1569406290646906,-6,4,-45,-6,-4,-7,-18,3
1569406290648901,-16,-13,-19,-9,-1,-4,-4,-27
1569406290648901,1,14,2,-15,-10,0,30,13
1569406290661867,5,10,18,12,1,-1,-15,14
1569406290661867,0,-1,18,12,8,-3,6,-1
1569406290668849,3,2,25,-17,-5,0,13,29
1569406290668849,0,4,-60,13,1,5,13,19
1569406290684808,12,-8,9,-10,2,-2,-9,3
1569406290684808,-13,5,-2,0,1,1,6,17
1569406290686800,7,20,3,2,0,1,1,20
1569406290686800,1,-56,13,-1,-7,-2,-1,-2
1569406290707743,-25,-3,7,10,-2,-3,-4,-21
1569406290707743,-2,12,-9,-3,1,2,12,25
1569406290708741,-3,-2,-1,-4,-2,1,-11,-42
1569406290708741,-1,2,-12,-2,-6,-3,-8,-28
1569406290720718,2,-9,-12,-12,-2,-6,-13,-21
1569406290720718,-1,1,22,1,-1,1,8,-67
1569406290729684,0,11,-45,-24,-14,-1,-2,-2
1569406290729684,2,-16,1,26,11,1,1,-25
1569406290744654,73,42,4,13,11,10,9,9
1569406290744654,-32,-47,17,-5,-1,-3,-1,-10
1569406290746639,29,17,13,4,-4,0,3,44
1569406290746639,-4,3,-7,-8,-6,-1,-4,-28
1569406290767594,17,0,-14,-8,2,0,13,45
1569406290767594,12,18,-10,-6,0,7,17,28
1569406290768581,-39,-84,-8,18,-4,-4,-48,-40
1569406290768581,-1,11,2,-9,-6,-9,3,33
1569406290781546,-41,-33,-2,-2,-3,-6,-19,-56
1569406290781546,24,46,-11,-8,1,3,17,12
1569406290789543,-11,-9,-5,5,6,5,17,-8
1569406290789543,21,54,19,5,1,1,-10,-1
1569406290804484,-4,7,12,6,2,3,8,24
1569406290804484,-16,-31,-8,-9,-1,-4,-7,-7
1569406290806478,19,18,-14,-4,1,0,7,19
1569406290806478,-2,23,27,8,0,4,6,0
1569406290827422,-16,-39,-7,-1,-5,-4,2,-4
1569406290827422,7,1,22,4,-3,-9,-56,-11
1569406290828420,-1,-10,-37,-8,0,1,16,0
1569406290828420,14,25,1,-11,-3,-4,5,4
1569406290841385,-24,-11,23,9,2,4,-8,-31
1569406290841385,10,-5,0,2,-1,4,21,11
1569406290850366,-10,-5,2,-3,-2,-8,-28,-5
1569406290850366,1,12,-11,-9,-3,2,7,18
1569406290866320,17,41,-6,-5,-4,-6,-6,17
1569406290866320,-10,-24,26,11,2,-1,-9,-35
1569406290868313,-36,-33,-14,-1,2,-8,11,1
1569406290868313,-4,1,-10,-6,-1,-1,-24,-13
1569406290887264,12,-7,-11,-6,-5,1,12,9
1569406290887264,-13,16,-3,-6,-4,-1,-16,3
1569406290889256,21,49,6,3,2,4,25,2
1569406290889256,-6,-32,10,5,3,-1,4,8
1569406290901241,27,35,7,1,1,-2,4,29
1569406290901241,-5,-9,-6,2,3,9,15,-5
1569406290910202,37,10,6,-4,-2,-1,-7,-20
1569406290910202,-63,-38,-17,-7,-5,2,14,-22
1569406290925161,-5,10,3,-2,-1,-4,-20,-14
1569406290925161,-5,-15,-6,9,0,-7,-16,-8
1569406290926159,13,12,13,6,2,-7,-13,-24
1569406290926159,50,-2,5,0,1,4,4,33
1569406290947103,-19,-24,-8,-10,-4,-6,-1,-27
1569406290947103,-37,-19,-18,-9,-5,5,71,12
1569406290949098,-5,3,-2,-6,-8,-16,-79,-10
1569406290949098,-19,-5,-12,-9,-8,-9,-11,-32
1569406290961067,-10,2,-5,-1,8,10,-6,16
1569406290961067,0,-30,14,12,2,-2,20,-24
1569406290970041,28,41,9,0,0,0,11,39
1569406290970041,7,-38,5,9,6,6,7,-12
1569406290985011,-12,-4,-11,-6,-2,1,12,-17
1569406290985011,13,27,14,3,3,4,-22,-13
1569406290986000,22,-16,2,2,-1,7,34,62
1569406290986000,-16,13,-1,0,-2,-7,-5,-15
1569406291006953,42,25,7,5,1,6,12,30
1569406291006953,-23,-27,-17,-11,-5,-6,-10,5
1569406291006953,-10,-14,-1,1,1,4,3,-3
1569406291006953,6,17,1,0,1,-1,5,13
1569406291028894,9,-1,0,-1,-3,0,18,-4
1569406291028894,11,23,-16,-2,1,-4,-15,8
1569406291029882,-9,-10,23,9,6,7,19,18
1569406291029882,5,12,-9,-5,-7,-6,5,-11
1569406291043845,-21,-10,-1,-3,-3,-5,-28,-10
1569406291043845,13,6,3,1,2,1,-12,0
1569406291044842,-24,10,6,7,3,2,10,-24
1569406291044842,29,15,-1,-3,0,4,12,18
1569406291066783,-21,-48,-7,2,-1,-4,-9,-15
1569406291066783,25,20,-4,-6,-2,-3,-6,5
1569406291067799,-41,-28,0,0,1,4,18,-18
1569406291067799,2,33,7,3,2,0,-21,-7
1569406291088725,2,-8,-9,-4,-3,-8,3,-8
1569406291088725,3,-2,1,-1,-2,-1,-2,6
1569406291089724,-17,-2,3,3,-1,-2,-3,-22
1569406291089724,-9,-21,-12,-2,-1,1,1,5
1569406291103694,7,11,1,-4,-2,3,-6,3
1569406291103694,7,8,1,5,1,0,4,4
1569406291104682,15,-9,-5,-2,-2,0,-2,12
1569406291104682,-21,-15,2,0,-1,1,0,-14
1569406291126623,-9,-1,5,3,4,4,4,0
1569406291126623,24,28,-6,-7,-3,-4,-5,6
1569406291127622,3,4,-4,4,2,2,-4,12
1569406291127622,-13,-11,8,-1,-1,-2,-4,-14
1569406291149565,14,0,-3,0,-3,-3,0,-8
1569406291149565,-2,4,-2,-3,0,0,-5,6
1569406291149565,1,-8,-8,-3,-2,-1,3,9
1569406291149565,3,4,9,4,2,8,9,6
1569406291165520,-12,-4,0,0,-2,-9,-30,-18
1569406291165520,-6,-17,-1,0,2,0,-4,22
1569406291166519,3,3,-7,-6,-2,-4,5,-1
1569406291166519,16,-3,-3,2,2,1,-2,1
1569406291186477,-8,-7,-5,-4,0,0,-11,-22
1569406291186477,14,6,1,-2,-3,-5,-26,-43
1569406291187461,-2,4,7,4,2,-1,-25,-6
1569406291187461,5,6,0,1,3,-4,7,4
1569406291209402,-5,5,4,5,3,5,9,13
1569406291209402,-6,-9,-6,-2,-2,-18,7,-30
1569406291210402,15,10,8,3,5,9,-24,0
1569406291210402,-3,-2,-3,-1,2,-1,-31,-54
1569406291224362,0,3,2,-4,-18,12,25,-11
1569406291224362,0,2,2,2,5,-1,3,9
1569406291225369,-3,-2,1,9,5,1,4,17
1569406291225369,-6,-8,-10,-6,21,-11,-13,5
1569406291246303,1,2,3,2,-6,11,15,15
1569406291246303,2,-1,-2,6,19,13,0,3
1569406291247301,-1,2,-2,-15,-15,-12,16,15
1569406291247301,1,1,1,4,8,0,-18,10
1569406291269242,-6,-3,-2,1,16,-1,10,15
1569406291269242,-3,-7,-2,-4,-44,8,0,20
1569406291270241,0,-1,-1,-2,-1,-30,9,-1
1569406291270241,9,14,15,19,51,61,57,-8
1569406291284209,-4,-3,-4,-8,0,0,22,-6
1569406291284209,1,4,2,-7,0,4,-8,-3
1569406291285198,-8,-8,-5,1,-13,8,10,18
1569406291285198,8,8,5,-4,-45,-15,-25,31
1569406291307145,0,6,7,13,14,-15,-9,0
1569406291307145,-4,-2,0,3,10,-13,4,6
1569406291307145,-8,-7,-4,-3,0,7,28,-10
1569406291307145,8,8,1,11,38,-23,-51,-3
1569406291329082,-5,-5,-5,-14,-60,20,-3,-19
1569406291329082,-19,-21,-14,-21,-24,-12,2,-31
1569406291330079,4,2,1,0,7,19,17,5
1569406291330079,-8,-11,-11,-15,-20,-12,-56,-21
1569406291344054,15,9,3,4,1,-29,-32,47
1569406291344054,5,6,6,7,22,7,0,8
1569406291345041,-7,-5,-3,-8,-3,-4,-7,4
1569406291345041,0,-2,1,8,6,23,32,28
1569406291366981,-7,-4,-3,-3,-8,-10,1,-6
1569406291366981,-3,-2,-6,-11,-30,-7,-30,-4
1569406291366981,9,20,-5,5,21,9,10,-5
1569406291366981,-16,-30,13,-3,-27,-24,-21,-31
1569406291388922,-3,0,-2,2,20,6,4,2
1569406291388922,14,24,-14,-5,9,10,23,36
1569406291389920,-18,-34,43,15,-4,-4,-20,-31
1569406291389920,-5,-4,-14,-7,-5,1,22,-2
1569406291403891,-1,-7,11,8,7,-6,-1,-2
1569406291403891,-6,-9,-18,-3,5,-5,-2,-10
1569406291404880,4,12,-13,-4,14,9,-17,8
1569406291404880,-1,2,-9,-12,-34,-17,41,-13
1569406291426844,0,0,-2,-4,2,11,10,6
1569406291426844,4,11,14,10,27,-5,-16,20
1569406291427817,-4,-5,-8,-9,-29,-12,-4,-18
1569406291427817,-7,-6,-3,1,23,15,4,9
1569406291448773,3,8,-6,-4,-12,-9,-3,-13
1569406291448773,-2,-5,5,0,-10,2,-2,2
1569406291449759,-3,-1,-1,2,10,1,15,-2
1569406291449759,14,9,-10,-2,0,4,19,16
1569406291463733,7,11,14,3,0,0,-8,18
1569406291463733,-33,-24,-11,-3,2,3,-5,-19
1569406291464720,6,14,6,-2,-6,-1,9,11
1569406291464720,-12,-19,12,1,-14,-7,-10,4
1569406291486661,-11,0,-15,-3,9,-1,12,7
1569406291486661,11,-3,14,5,-4,5,8,-2
1569406291487659,-1,-12,-24,-7,1,-4,-14,7
1569406291487659,22,31,-5,-6,-6,-3,1,-4
1569406291509599,-20,-13,8,5,10,0,-8,3
1569406291509599,13,13,-9,-3,-2,-3,27,-11
1569406291509599,-2,14,3,-3,-6,2,-3,-16
1569406291509599,20,-31,-15,-2,-6,-9,-7,9
1569406291524560,-1,-11,-2,-2,1,-1,-9,-32
1569406291524560,-4,-2,11,1,-4,3,15,13
1569406291524560,-9,13,-11,4,5,2,-33,-14
1569406291524560,6,5,7,0,-5,0,19,-7
1569406291546502,-11,-12,-15,-5,5,5,1,-1
1569406291546502,2,-4,4,1,-2,-3,-8,19
1569406291547499,13,-6,11,1,0,1,15,-5
1569406291547499,-10,2,-1,2,2,-2,-21,-28
1569406291569444,-2,-7,-7,-4,-3,-5,-8,-2
1569406291569444,25,13,12,2,3,7,0,5
1569406291569444,-54,-32,-14,3,-1,-5,-3,-31
1569406291569444,-4,6,-10,-3,-2,2,4,-29
1569406291584404,-4,-47,29,10,3,1,10,0
1569406291584404,4,-3,-20,-6,-1,-2,-37,-11
1569406291585401,22,39,12,-2,-2,-3,13,27
1569406291585401,-4,-18,0,3,1,-1,2,-23
1569406291606341,11,16,-9,0,3,4,15,13
1569406291606341,19,19,4,3,3,0,-1,25
1569406291607338,23,-2,18,2,-3,1,-1,-8
1569406291607338,-2,15,-6,-4,-3,-5,-18,18
1569406291629290,28,13,-2,-4,-2,3,5,18
1569406291629290,19,26,0,2,1,4,27,27
1569406291630277,-87,-42,-2,-2,1,-1,-4,-18
1569406291630277,63,16,11,10,2,-1,-2,-12
1569406291644239,-19,-24,-16,-9,-6,-3,30,-39
1569406291644239,-11,-12,4,1,0,-2,-20,-44
1569406291645249,37,23,-3,0,0,-1,6,22
1569406291645249,-27,4,0,-2,0,2,11,19
1569406291666181,13,3,-9,-5,-4,-8,-16,-2
1569406291666181,2,0,5,1,-2,-3,15,10
1569406291667182,-73,-22,-8,-3,-4,-4,-3,-14
1569406291667182,1,1,2,0,-2,-2,5,9
1569406291689120,7,15,-4,1,1,0,-10,10
1569406291689120,9,-5,16,5,-1,-2,2,-7
1569406291690118,39,-5,-3,0,1,4,0,19
1569406291690118,-28,3,4,-2,-1,-3,-16,8
1569406291704079,-19,-5,-19,-9,-5,-3,10,-5
1569406291704079,-42,-34,-11,-1,-3,-2,-6,-29
1569406291705078,39,6,-4,-1,-1,4,9,35
1569406291705078,-7,-4,-20,-9,-5,-7,-11,-10
1569406291727019,11,60,39,9,2,0,-12,5
1569406291727019,0,-24,-6,0,-1,-3,6,9
1569406291727019,5,-1,2,0,3,0,2,-12
1569406291727019,-4,-8,-9,-3,-2,3,-1,7
1569406291748960,4,6,3,2,1,1,-2,9
1569406291748960,6,-3,-8,-5,-4,-6,11,-4
1569406291749958,4,7,5,3,3,6,-21,-21
1569406291749958,10,5,0,-3,1,-1,17,28
1569406291763920,-4,-7,-3,0,-2,-3,-12,19
1569406291763920,-10,0,3,-1,1,0,0,2
1569406291764918,16,1,-7,-3,-3,-8,-6,2
1569406291764918,-17,2,8,2,2,4,13,-9
1569406291786869,7,-4,-6,-3,-4,-5,-12,-25
1569406291786869,-29,-13,-7,-2,0,0,4,2
1569406291787856,29,10,5,0,0,-4,-12,-5
1569406291787856,-15,-7,6,1,-1,0,-4,-13
1569406291808799,0,-4,-3,1,3,2,4,13
1569406291808799,-5,15,-1,0,-1,-1,-3,-10
1569406291809798,10,2,-3,-3,-3,-2,8,2
1569406291809798,-8,-5,1,-2,-3,-1,-4,-9
1569406291823769,5,-3,-1,2,-4,2,-6,2
1569406291823769,3,-2,-1,0,-8,-1,7,7
1569406291824759,-7,-5,-5,-4,-2,1,-7,-4
1569406291824759,4,2,0,5,12,-8,-8,-13
1569406291846708,-7,-1,2,-5,0,0,4,-3
1569406291846708,1,3,5,3,-21,3,6,9
1569406291847696,9,4,0,0,6,-5,-23,0
1569406291847696,3,1,2,8,33,10,16,-3
1569406291868640,1,1,3,11,1,-5,-26,-12
1569406291868640,-3,-2,1,0,4,10,33,17
1569406291869637,5,1,2,9,11,6,-4,-3
1569406291869637,-5,-5,-6,-19,-48,-15,-17,0
1569406291883607,-4,-5,-8,-7,-19,-11,8,-2
1569406291883607,15,7,7,10,39,33,-25,17
1569406291884598,-9,-8,-9,-10,-28,-22,11,-12
1569406291884598,5,2,8,11,24,15,-2,-12
1569406291906550,-3,2,2,-3,5,0,6,10
1569406291906550,1,0,-2,-6,-33,-13,-9,6
1569406291907553,-4,-3,-4,-4,4,21,23,-3
1569406291907553,9,9,7,6,-6,1,-2,7
1569406291929477,1,-2,-5,-6,-26,-8,-12,2
1569406291929477,-8,-5,-2,8,18,-17,3,-9
1569406291929477,2,5,13,25,46,21,7,-6
1569406291929477,-10,-8,-5,3,39,9,18,20
1569406291944460,6,9,12,24,14,26,-16,8
1569406291944460,0,-2,-6,-26,-32,-3,18,-31
1569406291944460,-2,-3,-4,-8,-10,-22,-25,-3
1569406291944460,1,-3,-5,-10,-18,-2,16,9
1569406291967379,-5,-6,-6,-8,8,-3,-7,-2
1569406291967379,-1,1,6,9,18,-16,-32,5
1569406291967379,2,1,-4,-20,-76,-7,-6,3
1569406291967379,-3,-4,2,21,43,11,6,-23
1569406291989318,-6,-6,-5,-1,7,-4,30,2
1569406291989318,0,-2,-4,-6,-5,-16,-24,-23
1569406291990314,-1,0,0,1,6,19,33,32
1569406291990314,4,7,8,-2,-13,-16,-38,-6
1569406292003279,-1,2,4,6,-15,9,50,-3
1569406292003279,0,-1,-1,11,17,8,-43,-1
1569406292011269,3,-1,-12,-6,2,-11,-9,-32
1569406292011269,-6,-8,-10,-11,-28,-7,-6,-10
1569406292026227,2,-10,22,16,34,8,-9,2
1569406292026227,-2,4,-2,-12,-17,-15,34,21
1569406292027216,6,7,9,25,44,20,-6,-18
1569406292027216,-10,-4,-20,-28,-35,2,3,-3
1569406292049158,1,-3,-26,-14,-7,-14,-66,-13
1569406292049158,-15,-6,18,-18,-53,2,24,12
1569406292050158,4,3,5,41,89,9,28,-18
1569406292050158,5,6,4,5,-3,14,1,33
1569406292063120,12,36,-14,-18,-13,-18,-2,5
1569406292063120,-10,-40,1,0,-16,-5,-19,-19
1569406292072097,-8,-38,1,-8,-25,-13,-5,-2
1569406292072097,0,3,-6,5,4,-3,11,-21
1569406292087065,4,22,-11,-13,-12,-4,-3,19
1569406292087065,25,53,2,1,13,1,10,17
1569406292087065,-34,-82,26,10,-7,-1,23,-53
1569406292087065,-17,-19,-9,-2,-7,-3,-14,4
1569406292108997,-13,-19,5,-5,0,2,-5,1
1569406292108997,0,24,-23,3,24,3,18,-26
1569406292109995,24,30,-6,-14,-19,-5,-13,39
1569406292109995,9,-5,0,-7,-13,-6,-1,0
1569406292123957,-20,12,8,4,13,0,8,-5
1569406292123957,-13,-15,8,10,7,15,8,-22
1569406292131946,-7,-8,-7,-12,-23,-15,-12,8
1569406292131946,7,24,-9,-8,-5,2,8,6
1569406292146898,6,-20,-5,-4,3,1,24,19
1569406292146898,3,14,2,4,9,4,3,-2
1569406292147908,-5,12,-1,-11,-10,-6,-51,-19
1569406292147908,5,-12,-5,3,4,-6,22,11
1569406292168838,-27,-3,8,4,-1,4,-3,-10
1569406292168838,3,-9,-10,-4,-1,-2,-10,7
1569406292169837,17,43,2,-7,-8,0,16,26
1569406292169837,-7,-36,-28,-3,3,0,-11,-10
1569406292183802,19,28,12,1,-4,2,-3,-6
1569406292183802,-8,-14,17,3,-1,-7,-15,-11
1569406292191776,25,27,-38,-19,-11,-7,2,-5
1569406292191776,-10,11,29,6,-1,-4,-9,-7
1569406292206744,21,-24,9,12,5,7,11,4
1569406292206744,11,17,-15,-4,5,2,6,31
1569406292207734,-47,5,-35,-14,-7,-1,-4,-8
1569406292207734,-26,-29,44,11,-3,-4,-4,-29
1569406292229678,74,16,-13,-4,-4,-6,-6,1
1569406292229678,-61,-41,2,4,7,-1,-12,-9
1569406292229678,39,36,-7,-5,-3,4,13,49
1569406292229678,-17,2,18,5,0,-3,-18,-35
1569406292243647,-20,-1,4,4,3,1,13,-3
1569406292243647,-13,-35,-13,-1,0,0,-16,-41
1569406292251617,-4,-1,-11,-10,-9,-6,20,-2
1569406292251617,37,29,-4,3,2,2,9,12
1569406292266577,-14,-15,14,5,0,-1,-4,-24
1569406292266577,24,15,-8,-9,-2,-5,-11,19
1569406292274555,-19,-46,11,10,2,2,-4,-33
1569406292274555,-22,5,-5,-4,0,4,3,21
1569406292289515,-5,-12,-19,-12,-7,-8,-20,-22
1569406292289515,5,4,-28,-10,-3,-2,6,18
1569406292289515,-1,8,53,14,2,3,-2,-14
1569406292289515,-3,-8,2,4,-1,-2,-7,-11
1569406292312453,-10,2,-17,-4,0,2,6,13
1569406292312453,14,13,12,5,3,5,6,6
1569406292313450,-5,-11,-7,-3,-3,-1,-7,-13
1569406292313450,12,9,-13,-6,-5,-3,4,12
1569406292326416,-18,-9,3,-1,0,3,0,-9
1569406292326416,6,-5,8,6,3,2,2,16
1569406292327416,1,-17,9,5,2,3,0,-24
1569406292327416,12,14,-8,-4,-2,-6,-9,10
1569406292349380,-3,-5,0,1,1,0,20,10
1569406292349380,9,-10,-4,0,0,-1,-16,-18
1569406292350355,-3,9,-9,-2,1,1,4,32
1569406292350355,-2,5,4,1,1,-1,-7,-2
1569406292372296,-1,-10,-1,1,1,0,-1,-2
1569406292372296,8,7,-1,0,-1,0,3,-2
1569406292373292,-7,0,8,4,0,-2,-1,-14
1569406292373292,4,-3,-4,-7,-4,1,3,6
1569406292386257,4,3,-1,1,0,-2,-7,-21
1569406292386257,4,16,-10,-4,-3,-4,8,18
1569406292387254,-9,-11,18,6,2,-4,-12,-32
1569406292387254,0,-6,0,1,0,6,13,8
1569406292409195,-6,-2,-4,-1,-4,-3,-10,-9
1569406292409195,-2,12,3,-1,-1,4,5,2
1569406292410192,5,3,-17,-4,-3,-3,-3,0
1569406292410192,1,-13,-2,2,3,-1,0,-1
1569406292432133,-7,3,3,-1,0,1,4,1
1569406292432133,1,-8,0,2,1,1,-7,-7
1569406292433133,3,2,-8,-5,-3,-3,-6,5
1569406292433133,5,13,-5,-2,-1,1,21,-2
1569406292446107,-6,-2,24,9,3,-5,-43,-14
1569406292446107,0,-10,-1,0,0,5,18,-3
1569406292447094,-1,4,-3,-4,1,0,-22,-15
1569406292447094,2,10,-3,-3,-2,0,9,7
1569406292469037,-3,-12,-13,-5,-3,2,9,5
1569406292469037,2,4,1,1,-5,-2,-3,5
1569406292470033,-2,0,9,6,10,2,7,-4
1569406292470033,-4,-10,-11,-5,-5,0,0,-1
1569406292491983,15,10,2,2,1,0,-31,-8
1569406292491983,-9,-8,4,-4,0,-3,0,-17
1569406292492970,0,2,-11,-5,-7,-1,6,-8
1569406292492970,1,-2,2,3,2,-5,-14,-8
1569406292506934,-6,-4,-2,-3,-3,3,14,0
1569406292506934,1,4,-1,0,1,-1,2,-2
1569406292506934,-2,-5,-5,-3,-4,-2,-5,11
1569406292506934,-5,-3,0,0,1,-3,-2,-3
1569406292528875,-3,3,-3,0,-2,0,11,8
1569406292528875,-11,-7,-4,-3,-3,-1,15,-2
1569406292529872,1,2,1,0,3,0,6,5
1569406292529872,1,-1,4,-1,-6,-8,-17,-20
1569406292552817,4,1,-7,-4,8,3,3,33
1569406292552817,-1,-2,5,2,3,8,2,-1
1569406292552817,-8,-5,-2,-4,-7,-3,2,1
1569406292552817,4,5,-1,0,1,-1,2,3
1569406292566776,-3,-2,0,2,0,-3,10,-10
1569406292566776,10,7,7,5,5,8,-7,-10
1569406292567778,-1,0,0,-1,-4,1,9,3
1569406292567778,6,3,0,2,1,2,-14,-8
1569406292588725,-4,-2,-4,-2,-3,-2,3,6
1569406292588725,-1,-2,1,0,-2,-4,-6,1
1569406292589712,-3,-2,-6,-1,0,0,4,-4
1569406292589712,-4,-4,-1,0,0,-3,-1,0
1569406292612652,-2,-2,1,-2,-11,8,9,1
1569406292612652,5,5,1,2,18,6,-11,-6
1569406292612652,1,0,1,4,8,0,-2,-3
1569406292612652,1,3,4,6,13,23,13,10
1569406292627612,-3,-1,-1,-1,3,-8,0,-3
1569406292627612,4,-2,-2,-3,-6,-1,0,18
1569406292628609,9,0,-2,1,-2,-1,-15,2
1569406292628609,-4,-4,0,-3,-6,-9,4,7
1569406292649554,-6,-2,-4,-2,0,5,15,15
1569406292649554,-3,5,6,5,-1,-3,-8,-14
1569406292649554,5,-8,-8,-7,-4,-6,13,-4
1569406292649554,6,9,1,0,-4,-3,-5,-22
1569406292672491,11,-2,-3,0,3,7,-12,36
1569406292672491,-17,-7,-1,-4,-7,-9,4,-7
1569406292673489,-8,4,4,0,-1,0,-8,-27
1569406292673489,-3,-9,-8,-7,-5,-4,2,12
1569406292686454,8,5,8,7,5,-4,-15,-17
1569406292686454,13,14,-1,-2,3,11,2,16
1569406292687451,-13,-6,1,-1,-6,-9,0,-2
1569406292687451,0,-5,-5,-7,-5,-1,-7,1
1569406292709392,-6,-3,-3,-2,-3,-11,-14,-11
1569406292709392,5,-1,2,3,-4,-4,12,-3
1569406292710389,4,8,3,0,-1,3,-17,-12
1569406292710389,-8,-6,-3,-6,0,4,33,17
1569406292732331,-3,-4,-7,-7,-5,-4,-18,-13
1569406292732331,-2,-6,-4,-2,-2,-5,-3,-16
1569406292733331,-1,-1,-6,-5,3,6,16,15
1569406292733331,3,7,12,11,1,-7,-4,6
1569406292746303,-26,-12,-1,-1,1,5,17,5
1569406292746303,6,0,0,-3,-1,-4,-4,10
1569406292747296,-1,-2,-1,-1,-5,-4,-14,23
1569406292747296,11,1,-3,-2,2,14,4,6
1569406292769238,21,20,4,2,5,-3,-15,-11
1569406292769238,-53,-36,0,2,-8,-10,-15,-16
1569406292770231,-23,-13,-6,-5,-1,-3,14,1
1569406292770231,21,7,0,1,3,2,-12,16
1569406292792171,-12,8,3,2,-2,2,15,-9
1569406292792171,-16,-15,-8,-4,-3,-5,-10,-30
1569406292793169,21,16,4,-1,-2,6,0,-4
1569406292793169,31,14,0,5,2,-7,1,12
1569406292806134,-31,-30,-13,-14,-4,13,-6,-20
1569406292806134,69,33,19,20,14,10,10,86
1569406292807132,-10,-3,-3,-1,-5,-1,10,-6
1569406292807132,4,11,9,11,5,1,1,12
1569406292829073,40,15,5,0,-4,-6,13,3
1569406292829073,6,8,-4,-15,1,3,-16,-16
1569406292830069,-13,-12,2,14,9,4,-4,12
1569406292830069,35,17,-3,-15,-11,-4,5,39
1569406292852012,25,18,2,4,7,6,7,-11
1569406292852012,-102,-93,-14,-2,-3,-10,-19,-89
1569406292853009,60,15,-1,-3,-3,-4,3,8
1569406292853009,-36,-16,-3,-3,-6,-6,-6,-27
1569406292866973,16,5,4,3,4,3,12,12
1569406292866973,22,31,7,0,-7,0,8,60
1569406292866973,-20,-20,-9,-9,-1,-9,-5,-20
1569406292866973,35,14,6,7,5,5,-4,17
1569406292888913,0,-9,-6,-10,-12,-6,3,15
1569406292888913,-3,14,-9,0,0,-2,7,-21
1569406292889911,-66,-24,-4,0,5,3,-27,-29
1569406292889911,23,12,-5,-9,-10,-8,-7,19
1569406292911850,18,-2,12,10,5,-2,0,-65
1569406292911850,14,1,-10,-2,4,5,-3,-3
1569406292912851,27,40,20,9,1,3,5,-13
1569406292912851,-69,-29,-10,-10,-2,0,-7,-12
1569406292925823,41,5,-13,-8,-3,-7,-16,59
1569406292925823,15,20,3,-8,-6,-3,7,8
1569406292933793,56,22,7,19,5,15,14,21
1569406292933793,-104,-72,-17,-20,5,-25,-18,-56
1569406292948755,39,35,11,15,-4,-1,8,17
1569406292948755,-48,-32,3,4,-6,-2,-3,-22
1569406292949751,-40,-26,-10,-11,-15,-9,-2,-14
1569406292949751,46,27,6,5,-1,16,11,20
1569406292972689,-28,-7,-12,-11,0,-5,-5,-5
1569406292972689,-2,4,7,7,3,-2,0,-5
1569406292972689,-80,-35,-3,-3,-3,-5,-16,-36
1569406292972689,15,11,16,19,14,8,17,3
1569406292986660,-32,-6,-7,-3,-5,1,2,-19
1569406292986660,77,32,7,-1,0,7,17,70
1569406292994635,0,2,-4,-8,4,-3,0,-5
1569406292994635,-3,-5,-6,-4,-7,-2,-5,-19
1569406293010587,-42,-31,-3,4,-4,-2,-6,-13
1569406293010587,26,18,1,-5,3,-2,-10,-11
1569406293011585,7,-10,-1,9,0,-2,-8,-5
1569406293011585,-2,1,0,-9,-6,-2,-7,28
1569406293032529,5,13,4,6,7,4,4,3
1569406293032529,39,28,-5,-3,-6,1,4,5
1569406293033532,-40,-25,-7,-8,0,0,-7,8
1569406293033532,14,6,0,1,-3,-2,-6,15
1569406293046496,-2,-11,-4,-3,-2,-4,-1,-11
1569406293046496,-20,-10,-7,-8,-2,-5,4,-24
1569406293054470,49,26,-3,-19,0,2,5,-3
1569406293054470,-14,-10,6,28,8,10,12,6
1569406293069430,-2,1,17,21,16,5,7,-15
1569406293069430,-22,-8,-6,-6,-3,-2,-2,-3
1569406293069430,26,9,-2,-7,-3,-3,4,4
1569406293069430,-19,-18,-7,-11,-5,-2,3,-23
1569406293092581,1,-3,-2,-4,6,15,4,48
1569406293092581,10,2,2,8,-3,-4,0,0
1569406293092581,6,1,7,4,-3,6,7,114
1569406293092581,-16,-1,-7,-7,-2,7,9,-31
1569406293106537,35,5,-4,-6,-7,-10,-6,-66
1569406293106537,-23,-14,0,-1,2,-7,-13,-41
1569406293114516,-27,-12,-9,-15,-8,-6,-4,-84
1569406293114516,41,19,9,12,6,3,-4,21
1569406293129482,-7,8,-5,-14,-15,-7,-3,-3
1569406293129482,-36,-16,-4,6,1,-6,-17,-29
1569406293129482,27,5,-4,-2,2,-2,-2,6
1569406293129482,9,3,-7,-8,-6,-4,3,-73
1569406293152412,-51,-25,-3,-2,-3,-1,-4,-53
1569406293152412,10,-5,-7,-13,1,5,4,31
1569406293153409,31,18,8,17,7,8,18,24
1569406293153409,-70,-30,-7,-9,-11,-7,0,35
1569406293166374,27,4,2,5,-1,-10,-11,55
1569406293166374,1,4,0,-2,-7,-6,2,22
1569406293174354,5,3,0,-1,3,-3,5,16
1569406293174354,13,3,1,2,5,0,6,-1
1569406293189323,-21,-6,-4,-13,-4,-7,0,10
1569406293189323,40,15,1,5,3,5,10,47
1569406293190311,-32,-14,-1,-1,-4,-5,-15,-41
1569406293190311,15,7,-1,-1,0,-1,-2,8
1569406293212261,-4,0,5,7,2,3,3,-2
1569406293212261,7,3,4,1,4,0,-8,-36
1569406293213250,22,6,2,-2,-4,0,5,-14
1569406293213250,14,4,0,1,3,-2,-17,3
1569406293235191,-6,-6,-4,-1,1,1,1,10
1569406293235191,-9,-6,0,4,-2,0,2,-24
1569406293235191,2,5,0,2,0,-2,1,9
1569406293235191,-18,-8,-6,-6,-4,0,16,-8
1569406293249155,27,10,4,5,4,0,-31,59
1569406293249155,1,-2,-5,-7,-2,0,-1,6
1569406293250156,-13,-2,-1,3,1,-2,-7,-45
1569406293250156,14,4,2,3,1,1,2,-11
1569406293272092,-21,-7,-3,-3,-2,1,9,-32
1569406293272092,-19,-8,-6,-4,0,-1,-1,-7
1569406293273097,6,2,-1,-6,-4,-2,-6,7
1569406293273097,-3,-2,0,1,0,-2,-5,0
1569406293295031,-4,-3,-1,-3,-2,-3,11,-4
1569406293295031,-7,-2,1,1,-1,0,-3,4
1569406293296027,6,2,2,1,0,0,6,7
1569406293296027,0,1,-1,-1,0,-3,-9,1
1569406293308993,-2,-2,0,-4,-1,1,6,3
1569406293308993,6,0,-3,-1,0,1,7,11
1569406293309990,3,2,-2,3,-2,-2,-3,14
1569406293309990,1,-1,1,-1,-1,-2,-9,17
1569406293330936,1,3,-3,0,1,-1,4,3
1569406293330936,14,6,6,3,4,2,-24,31
1569406293338923,16,2,2,7,1,2,1,41
1569406293338923,-4,-3,-3,-1,1,2,0,7
1569406293354871,4,-2,-4,-6,0,1,7,4
1569406293354871,-7,-3,0,3,-1,-2,8,-15
1569406293355868,-3,-1,-2,-5,-3,-3,-2,-17
1569406293355868,13,2,1,0,1,-2,-10,1
1569406293369831,-2,1,1,0,1,2,-1,-6
1569406293369831,-3,-3,-5,1,-1,-2,4,-2
1569406293384791,2,-1,3,1,1,-1,-2,3
1569406293384791,-6,0,-1,-3,-3,-6,-9,-11
1569406293391781,-8,-5,-2,-3,-2,-2,2,-26
1569406293391781,0,-2,0,0,-1,1,2,-5
1569406293392769,5,4,1,0,2,2,-1,-13
1569406293392769,0,1,1,0,0,2,8,-2
1569406293414712,9,1,2,1,0,-2,-16,29
1569406293414712,-5,-4,-1,-2,-1,-3,1,-11
1569406293415709,-6,-1,-1,-2,-1,-3,2,-21
1569406293415709,-7,-1,0,-1,0,1,4,-1
1569406293428674,-3,2,0,0,1,-2,0,-21
1569406293428674,-1,-2,-2,-3,-3,3,7,0
1569406293436971,-3,-2,-1,0,-3,0,-1,-11
1569406293436971,5,-1,-2,0,0,-1,-2,4
1569406293451966,-2,-2,-3,-3,-2,1,1,-6
1569406293451966,-3,-2,-2,2,1,2,9,-4
1569406293453925,-7,-2,-1,-1,0,-2,1,-12
1569406293453925,-9,-3,-3,-5,-3,-3,1,-38
1569406293474869,5,0,2,2,0,0,5,15
1569406293474869,2,1,-2,-2,-3,0,-1,2
1569406293476873,2,1,1,2,0,1,-4,1
1569406293476873,0,0,-2,-1,2,-1,2,0
1569406293488882,-5,-1,-2,-1,-1,-1,1,-11
1569406293488882,-5,-3,0,-2,-1,-2,-1,-3
1569406293497847,3,-1,-2,-1,-1,-1,-1,-2
1569406293497847,2,3,2,1,-2,0,-2,3
1569406293512778,0,0,-1,0,1,4,4,11
1569406293512778,-7,1,3,0,-1,-6,-3,-27
1569406293513778,-5,-1,-3,-3,-1,-2,-2,-4
1569406293513778,-4,-14,-4,1,-1,-1,-1,5
1569406293534765,-4,-3,0,-1,-1,1,1,-2
1569406293534765,9,12,1,0,0,1,0,5
1569406293536704,-7,-2,-3,-1,-1,0,4,2
1569406293536704,-12,-24,-6,-3,-2,-1,-6,-2
1569406293548704,-2,1,1,0,-1,-3,-2,-10
1569406293548704,3,-2,2,0,1,1,-1,-9
1569406293557648,0,4,0,-3,-2,0,7,-4
1569406293557648,1,7,2,0,0,11,2,6
1569406293572609,5,-4,-3,-3,-3,-11,-3,22
1569406293572609,2,0,0,-1,-1,0,-4,4
1569406293573617,3,5,0,0,-1,2,0,0
1569406293573617,2,2,1,2,1,0,-2,-4
1569406293594588,-3,-1,-1,1,-2,-1,-9,13
1569406293594588,5,0,3,2,2,1,6,19
1569406293596544,2,-2,-2,-1,0,-4,-8,-2
1569406293596544,-2,1,-1,-1,-1,-1,2,0
1569406293617530,-5,0,0,-1,-2,1,5,-13
1569406293617530,-1,-3,-3,-1,-2,-3,-4,-3
1569406293618524,3,-2,0,0,-1,-1,-3,5
1569406293618524,10,7,1,-1,-1,-4,-6,6
1569406293632465,-13,-3,-2,0,-1,1,4,-19
1569406293632465,-4,-16,-2,1,2,4,2,22
1569406293634451,19,19,-1,-3,-4,-2,-7,-10
1569406293634451,5,6,0,-2,-1,-3,-1,-2
1569406293654457,-7,-1,-2,-1,-1,1,2,-9
1569406293654457,-17,-12,-5,-3,-1,-1,7,-34
1569406293656383,-9,-8,0,2,0,0,-7,-2
1569406293656383,13,8,2,0,1,-4,-15,11
1569406293668352,-1,-2,-2,-1,0,1,-3,-3
1569406293668352,3,2,1,-2,-3,-3,-1,3
1569406293677328,-11,-3,0,0,-1,1,-3,-18
1569406293677328,-8,-3,-4,-2,-2,-1,17,-8
1569406293692288,4,-1,0,1,1,-3,0,7
1569406293692288,5,9,0,0,0,-2,-5,1
1569406293694283,0,-2,0,0,-1,1,6,-2
1569406293694283,-5,-4,1,0,0,1,5,-5
1569406293715226,-4,-3,-2,-1,0,0,-3,-7
1569406293715226,0,3,-1,-1,-2,-4,-9,-2
1569406293716225,0,-3,-1,-1,-1,-1,0,6
1569406293716225,-6,0,0,-1,-2,0,3,-1
1569406293728227,0,0,-2,-1,1,1,16,-11
1569406293728227,3,1,-1,0,0,0,-5,6
1569406293737173,6,-1,0,0,0,3,0,35
1569406293737173,-6,-2,-2,-3,-2,-3,-2,-15
1569406293752136,-9,-6,-2,-3,-1,3,12,-19
1569406293752136,-3,-4,0,1,-1,-5,-11,-9
1569406293754122,-4,-3,-1,1,4,-3,-2,-7
1569406293754122,2,3,0,-1,-10,-3,-1,6
1569406293775066,-1,4,-1,-1,-1,-1,-4,-3
1569406293775066,8,-5,-2,-1,0,1,7,11
1569406293776103,5,0,1,0,3,2,3,15
1569406293776103,-5,-1,-1,0,2,0,-1,-14
1569406293788071,0,1,0,-1,-2,-1,-3,-7
1569406293788071,3,5,0,-2,-2,2,10,-7
1569406293797042,-14,-9,-4,-3,-3,-3,-16,-11
1569406293797042,8,2,-2,2,1,0,0,13
1569406293819958,5,5,2,1,-1,-2,-5,8
1569406293819958,-2,1,0,0,1,2,3,-3
1569406293820945,0,-4,0,1,-2,-3,1,-11
1569406293820945,2,0,0,-1,2,2,2,5
1569406293834972,-5,-2,-1,-2,-1,-1,-5,6
1569406293834972,0,0,-1,-1,-3,0,4,1
1569406293836902,7,6,2,0,-2,-4,-8,10
1569406293836902,-4,-5,-2,0,2,5,7,18
1569406293849013,2,-1,4,2,-1,-2,-13,-4
1569406293849013,2,-1,-2,-1,-1,1,-2,6
1569406293857845,-8,2,0,-1,-2,-1,3,-31
1569406293857845,-5,1,-1,-2,0,1,-1,-18
1569406293872805,4,0,-3,0,1,1,2,16
1569406293872805,-3,3,1,1,0,-1,-5,-7
1569406293873803,10,2,-1,1,-1,1,-3,8
1569406293873803,1,0,1,0,-1,-1,-4,-5
1569406293894757,-2,-4,-5,-2,-1,-4,-6,-4
1569406293894757,-8,-2,-3,-1,-2,-4,0,-24
1569406293896742,-3,1,2,0,-1,0,9,0
1569406293896742,-1,-2,0,0,0,-2,-7,10
1569406293908712,9,4,0,-1,-2,0,-2,9
1569406293908712,-6,-3,0,-1,1,1,0,0
1569406293917685,6,-2,2,0,-1,1,-5,7
1569406293917685,-4,-1,1,2,0,-4,-8,-3
1569406293939636,-2,2,0,0,-2,1,3,-10
1569406293939636,-1,1,1,0,-1,-3,-5,0
1569406293941623,0,-4,-4,-5,-2,0,5,5
1569406293941623,-15,-6,-5,-4,-4,-1,14,-45
1569406293954596,-3,-5,0,0,-2,-1,6,-12
1569406293954596,4,0,0,0,1,1,-2,10
1569406293956583,-2,-2,0,-1,0,0,2,4
1569406293956583,0,3,-2,-1,-1,-1,5,-11
1569406293968560,-13,-7,-3,-3,-2,-4,-7,7
1569406293968560,-2,1,-1,-2,-1,1,7,10
1569406293983513,-8,-2,-3,-1,-1,-1,2,-16
1569406293983513,6,1,0,1,0,-1,-4,18
1569406293992496,7,1,-1,0,1,3,5,2
1569406293992496,-7,-3,0,1,-1,-2,-4,-5
1569406293993483,-1,-2,-2,0,-1,-1,4,2
1569406293993483,9,1,1,-1,-1,0,-3,14
1569406294015425,-2,-2,0,-1,-1,0,-3,1
1569406294015425,-1,0,2,1,0,0,-3,-4
1569406294016424,6,-1,-2,0,1,1,0,11
1569406294016424,-5,-4,1,0,-2,-3,0,-16
1569406294028390,3,-1,-1,-1,-1,1,10,30
1569406294028390,-1,0,0,-1,-2,0,11,-11
1569406294037367,-7,-3,-1,0,-3,-1,4,-9
1569406294037367,3,-1,-1,-2,1,1,-3,-1
1569406294052326,2,2,1,-2,-1,-4,-10,-4
1569406294052326,-1,-2,-1,-2,-3,0,1,-2
1569406294054322,1,0,0,-1,-1,2,-2,2
1569406294054322,3,3,1,0,1,2,5,21
1569406294074276,-1,-2,-1,-2,2,-1,-3,-8
1569406294074276,4,0,-1,0,-2,-2,-5,1
1569406294076262,-4,-1,1,2,0,-3,-1,-12
1569406294076262,2,0,0,0,0,0,-5,8
1569406294088268,-2,0,-1,0,0,4,4,8
1569406294088268,4,0,-2,-3,-2,-1,-3,3
1569406294097244,-1,1,0,-2,-1,-1,-2,-3
1569406294097244,0,-1,-2,0,0,-2,-4,-5
1569406294112204,7,2,1,1,0,-2,-2,8
1569406294112204,-7,-3,-4,-1,-2,-4,-3,-3
1569406294114161,0,-1,0,-2,0,-1,3,-9
1569406294114161,-12,-3,0,-1,-1,-1,-5,-9
1569406294135243,0,-1,0,0,-3,0,2,-7
1569406294135243,-5,-1,-2,-2,0,0,-2,-10
1569406294136334,13,6,1,1,1,-2,1,49
1569406294136334,4,2,1,1,0,-1,-12,-2
1569406294149116,0,-1,1,0,0,-2,1,-4
1569406294149116,-2,-3,-1,0,1,1,4,-2
1569406294157334,-6,-3,-2,-2,-2,0,1,-17
1569406294157334,2,-2,-2,-1,-1,-2,1,10
1569406294173044,0,0,-1,-1,-1,-2,-4,2
1569406294173044,4,1,0,-1,0,-2,-6,0
1569406294174000,-7,-3,-2,0,0,1,1,-12
1569406294174000,1,2,0,0,-1,1,1,8
1569406294195166,-7,0,0,0,0,-3,-8,-14
1569406294195166,4,-1,1,0,1,-3,-10,12
1569406294197154,-8,-5,-5,-4,-4,-6,-2,-22
1569406294197154,-14,-3,-1,-2,-2,0,1,-16
1569406294218002,-1,-1,-2,-1,-1,0,4,-1
1569406294218002,1,-1,-1,-1,-2,0,0,-2
1569406294218879,-3,1,-2,2,-2,-4,-10,-4
1569406294218879,11,1,-2,0,1,-1,-6,28
1569406294232852,3,1,1,-1,0,1,4,-1
1569406294232852,-1,-2,1,0,0,-2,0,-4
1569406294233839,-5,-1,0,-2,1,2,-2,-5
1569406294233839,3,0,0,1,-1,0,7,-1
1569406294255018,-1,-1,-2,0,0,0,-1,-1
1569406294255018,-1,-2,-1,0,-2,0,2,-7
1569406294256958,0,0,0,-1,0,0,0,-10
1569406294256958,1,-1,-1,0,-1,0,0,0
1569406294277982,-7,-1,-2,-2,-1,1,-1,-14
1569406294277982,11,4,0,2,1,-2,-19,18
1569406294278752,-2,-2,0,0,-1,0,-1,2
1569406294278752,0,0,-2,-3,0,1,1,-2
1569406294292946,2,0,0,-2,-1,-2,-4,-6
1569406294292946,0,2,0,0,0,1,0,-2
1569406294293833,0,-1,0,-2,-1,1,0,-2
1569406294293833,-1,-2,-2,0,-1,-1,-2,-8
1569406294314782,-13,-5,-3,-2,-3,-6,-2,-32
1569406294314782,-10,-5,-2,-1,-1,0,4,-12
1569406294316635,3,1,0,0,0,0,-3,3
1569406294316635,3,2,1,-2,-2,-3,-5,0
1569406294337823,-2,-1,1,-1,0,1,-1,5
1569406294337823,0,0,-4,-2,-1,0,4,-1
1569406294339717,0,1,0,0,-1,-2,0,-5
1569406294339717,-4,-2,-1,-1,-1,1,1,-5
1569406294352979,5,2,0,2,-1,1,0,9
1569406294352979,-4,-2,-2,-1,0,1,4,-2
1569406294353783,25,2,3,4,2,-1,-12,73
1569406294353783,-1,-1,-3,-1,0,-1,1,4
1569406294374625,-2,-2,-1,1,-1,-1,6,10
1569406294374625,-3,-1,1,0,3,-1,4,-10
1569406294376621,-11,-2,-3,-4,-2,1,5,-26
1569406294376621,-1,1,0,-1,-1,0,-1,-3
1569406294397565,3,0,1,0,-1,-2,-2,16
1569406294397565,-2,0,-2,-1,-3,-1,0,-6
1569406294398563,-2,-3,-2,0,0,1,2,-12
1569406294398563,-7,-2,1,-1,-3,-5,-10,-28
1569406294411805,7,0,0,-2,0,-3,3,3
1569406294411805,1,2,1,1,-2,-1,-7,1
1569406294418801,-10,-4,-2,-3,-3,-1,5,-15
1569406294418801,6,2,2,0,1,-1,-10,27
1569406294435511,-4,0,0,-1,2,-1,-4,-4
1569406294435511,3,0,-1,0,-1,0,2,9
1569406294436460,1,0,-1,-1,0,-1,1,-2
1569406294436460,-2,-1,-2,-3,0,3,6,1
1569406294457699,0,-1,0,-1,1,0,0,2
1569406294457699,9,2,1,1,0,2,3,36
1569406294459700,-4,-1,0,1,-2,0,-2,-15
1569406294459700,2,-2,0,0,0,-1,5,6
1569406294471662,-1,-1,0,2,-3,0,-4,-12
1569406294471662,-6,-3,-1,-4,-2,-2,3,-21
1569406294478644,0,0,0,-3,0,-1,0,-4
1569406294478644,3,-1,-1,-1,0,1,2,8
1569406294495598,0,0,-2,2,-1,0,-1,7
1569406294495598,-3,-1,-1,-2,-1,-2,-1,-11
1569406294497529,1,-1,-2,0,-1,-1,3,-7
1569406294497529,8,4,4,6,2,-2,-21,11
1569406294517543,-9,0,-3,-2,-3,-3,-2,-7
1569406294517543,3,0,-2,-1,0,1,1,0
1569406294519239,1,0,0,0,-1,-1,-4,-5
1569406294519239,-7,-3,-5,-2,-1,3,16,-3
1569406294532360,-1,-1,-1,-2,0,-1,-1,-1
1569406294532360,1,3,1,1,-3,-2,-3,-1
1569406294539218,-4,0,-1,-1,0,0,-1,-3
1569406294539218,-5,-2,-1,-1,-1,-1,3,-8
1569406294555438,0,0,0,-1,1,2,0,-4
1569406294555438,-5,-1,1,-2,0,-6,-12,-14
1569406294556330,-1,0,-3,1,2,0,1,-1
1569406294556330,2,0,0,-1,-1,-1,3,-1
1569406294577379,-3,-2,-3,-1,-1,1,-1,1
1569406294577379,-4,-1,-1,0,-1,0,2,-14
1569406294579080,-1,0,-1,-1,-1,1,0,2
1569406294579080,12,2,2,0,1,2,1,59
1569406294592046,6,4,1,0,-1,-2,-5,2
1569406294592046,-8,-10,-4,-2,-1,-1,-4,-11
1569406294598029,1,1,0,-1,-2,-2,-6,6
1569406294598029,-9,-5,-3,-3,-1,1,10,-20
1569406294614986,-2,3,2,-2,-1,1,1,2
1569406294614986,-5,-2,-2,-4,-1,2,15,-7
1569406294615990,1,-1,1,-2,2,1,1,-3
1569406294615990,-4,-1,-2,-2,-1,-1,0,-16
1569406294636929,-1,-2,-1,0,-1,-2,-4,-2
1569406294636929,-2,-1,-1,-1,0,-1,-3,-5
1569406294638919,-5,0,-1,-2,0,2,11,-19
1569406294638919,-13,-5,-3,-1,-3,-8,-14,-48
1569406294651886,1,-3,0,-1,0,1,4,5
1569406294651886,1,0,-1,-1,0,2,0,-1
1569406294658867,9,4,0,1,2,2,-1,15
1569406294658867,7,2,-1,-1,-1,-1,-12,10
1569406294674824,-3,-1,-1,1,-1,0,-1,0
1569406294674824,-1,0,0,-1,1,0,4,-4
1569406294676819,-1,-2,-2,0,-2,-5,-15,3
1569406294676819,0,-2,-2,-2,-1,1,6,-1
1569406294697763,-2,-2,0,0,-2,-2,-6,-7
1569406294697763,-5,-2,0,-1,-3,-3,-2,-19
1569406294698761,-3,-4,-1,-1,-2,-1,1,-6
1569406294698761,0,-2,-1,2,2,2,3,3
1569406294710737,-2,-1,-3,-2,-2,1,2,3
1569406294710737,2,-1,-3,0,1,1,2,7
1569406294719706,3,1,2,1,2,3,3,6
1569406294719706,-5,1,1,-1,-1,-3,-1,-8
1569406294734666,1,-2,-1,-1,-1,0,4,2
1569406294734666,5,2,1,0,0,-2,-1,15
1569406294736659,-3,-3,1,-1,-1,1,3,3
1569406294736659,7,1,-2,-1,0,4,3,20
1569406294757613,3,2,0,1,1,-3,-8,14
1569406294757613,2,1,-1,1,-1,-1,-4,0
1569406294758599,-9,-2,-2,-2,-2,-4,-1,-28
1569406294758599,-6,-3,-1,-1,-1,-2,-4,-9
1569406294771565,-7,-4,-1,-2,-1,1,10,-10
1569406294771565,-1,0,-1,-2,-1,0,3,-19
1569406294779553,-1,1,-1,2,0,-3,-2,-10
1569406294779553,6,4,2,-1,-1,0,-3,3
1569406294794504,-2,-2,1,-1,0,-1,1,6
1569406294794504,2,3,1,-1,1,1,-6,2
1569406294796499,1,3,-2,0,-1,-1,-6,5
1569406294796499,-2,-1,-1,0,-2,-2,6,-1
1569406294817443,-2,-2,-2,0,-1,0,2,-9
1569406294817443,0,-3,-1,-2,-1,1,-2,8
1569406294818440,0,-3,-1,0,-1,-2,-1,8
1569406294818440,4,-1,-2,-1,-2,-1,-2,-2
1569406294831415,-7,-1,-3,-2,0,-1,-3,-2
1569406294831415,-4,0,1,0,-1,-1,-10,-4
1569406294840381,5,-3,-2,-2,-2,-1,0,16
1569406294840381,-8,-5,-3,-1,-3,0,16,-2
1569406294854356,3,2,0,-1,-2,-4,-3,-5
1569406294854356,-1,-1,-3,0,1,0,3,-2
1569406294856338,-6,-1,0,-1,-1,-1,-4,-9
1569406294856338,2,-1,0,0,-1,1,-2,6
1569406294877283,7,4,1,1,-1,0,0,14
1569406294877283,-7,-2,0,0,0,0,2,-22
1569406294879292,6,2,2,-2,0,5,4,0
1569406294879292,-6,-1,-1,0,0,0,-1,-10
1569406294891256,-2,-1,0,-1,0,1,-1,-10
1569406294891256,5,1,2,2,0,-2,-4,15
1569406294900259,4,-1,0,0,-1,-4,-11,14
1569406294900259,1,0,0,-1,0,0,-3,5
1569406294915191,5,1,-1,0,0,1,0,3
1569406294915191,-1,-2,-2,-2,-2,-1,0,2
1569406294916180,-1,1,-2,-1,-1,-2,2,-7
1569406294916180,3,0,0,0,-1,-1,-2,7
1569406294937123,-3,-2,-2,-1,-1,-4,-2,-3
1569406294937123,-5,-3,-3,-1,-4,-3,-1,-14
1569406294939116,-4,-1,-1,-1,0,0,1,-5
1569406294939116,-1,0,0,-1,-1,-1,0,-5
1569406294951086,-6,-2,-2,-2,0,-3,1,-1
1569406294951086,1,0,1,-1,-1,-1,-1,-1
1569406294960061,-1,1,0,0,-2,0,1,5
1569406294960061,-2,0,0,0,1,-3,-5,-5
1569406294975032,0,-3,-2,0,-2,0,-1,-6
1569406294975032,3,1,1,0,1,0,-9,3
1569406294976019,-3,-1,-2,-2,-1,-4,-3,-3
1569406294976019,-2,2,-2,0,0,1,3,2
1569406294996963,-1,-3,-2,1,-1,4,10,4
1569406294996963,7,3,1,2,1,1,-2,19
1569406295002957,3,0,-1,0,0,4,10,16
1569406295002957,0,1,2,0,0,-3,-6,4
1569406295010930,-1,1,-1,1,0,1,-2,-2
1569406295010930,-4,-2,-3,-3,0,0,5,-11
1569406295019902,-4,-3,-2,-1,-1,0,-1,-8
1569406295019902,-2,-2,-1,-2,-1,1,3,3
1569406295034861,4,2,0,0,-1,0,-3,-2
1569406295034861,-5,-2,-1,-1,0,-1,5,0
1569406295036860,0,0,1,1,1,0,-2,-14
1569406295036860,-1,-2,0,-1,0,0,5,-4
1569406295057800,1,1,-1,-2,0,-3,-4,-2
1569406295057800,0,-1,-1,-1,-2,-1,-1,-4
1569406295058798,-2,0,-2,-3,-1,-1,-2,4
1569406295058798,-3,1,1,0,-1,-1,0,-6
1569406295070766,-10,-4,-3,-2,-1,2,7,-14
1569406295070766,-1,-3,-3,0,-1,0,-2,-2
1569406295079742,-4,-2,1,0,0,-3,-8,6
1569406295079742,3,1,-1,0,-1,-1,-3,5
1569406295094711,-2,0,1,1,0,-4,-6,-2
1569406295094711,-6,-1,-1,-2,0,-1,3,-16
1569406295096698,-1,0,1,0,-1,-2,0,-6
1569406295096698,-3,-3,-3,-2,-1,-1,-1,-2
1569406295117640,-1,-1,2,0,0,-2,-5,0
1569406295117640,-1,1,-1,2,-2,-1,-1,-1
1569406295118639,-2,0,0,0,-2,-2,0,-4
1569406295118639,3,2,0,1,0,0,-3,18
1569406295139582,-3,-4,-3,-3,-2,2,12,-3
1569406295139582,11,3,2,1,1,1,5,27
1569406295141577,0,-1,0,-1,0,0,1,0
1569406295141577,-7,-2,-1,1,-1,-4,-9,-7
1569406295154551,-3,1,-1,0,0,0,-1,-3
1569406295154551,-2,-1,0,-1,-1,-1,-2,-10
1569406295156535,1,-1,-3,0,1,1,1,8
1569406295156535,2,1,0,-2,1,-1,3,-1
1569406295177480,5,1,2,1,-1,-3,-5,11
1569406295177480,-3,-1,1,-1,-2,-3,-2,-8
1569406295178488,2,-1,-3,-1,-3,-2,1,-1
1569406295178488,1,-1,0,0,-2,0,-1,-3
1569406295198424,-3,-1,0,-1,-1,0,-4,-1
1569406295198424,-2,-2,-2,0,0,5,12,3
1569406295207400,-8,-2,-2,-1,-3,-2,-2,-20
1569406295207400,-2,-3,-2,-2,0,0,-1,-1
1569406295214391,4,-1,0,0,-1,-3,-3,5
1569406295214391,0,0,0,-1,0,-1,-3,0
1569406295216380,-4,-2,-1,-2,-1,-1,1,-6
1569406295216380,-3,-1,-4,-1,-1,4,15,-5
1569406295237321,1,0,1,-2,-1,-1,-2,5
1569406295237321,-13,-6,-6,-3,-5,-4,-9,-44
1569406295239315,-1,0,0,1,1,0,-1,-8
1569406295239315,6,4,3,0,0,-1,-13,-3
1569406295260269,0,0,0,-2,-1,-2,-2,1
1569406295260269,1,1,1,-1,-1,-1,-1,3
1569406295261257,-2,-2,-1,-3,-1,0,4,-14
1569406295261257,-3,-1,-1,1,0,1,0,0
1569406295275219,-1,-3,0,0,0,-1,0,-13
1569406295275219,3,2,-1,2,0,-6,-15,4
1569406295276217,0,1,-2,0,-1,0,0,-5
1569406295276217,0,0,0,-1,-2,0,-1,0
1569406295297159,4,0,-1,1,0,1,0,8
1569406295297159,-4,-2,0,-1,1,3,3,-3
1569406295299156,-1,0,1,0,2,2,6,0
1569406295299156,-1,0,-1,-2,-1,-4,-11,-2
1569406295327079,-4,0,-2,-3,-1,-1,-4,-3
1569406295327079,1,-1,0,0,-1,0,2,1
1569406295329076,-2,0,0,0,-2,-3,-5,8
1569406295329076,-3,0,-2,0,0,-1,2,-8
1569406295334062,5,1,-1,0,2,0,4,4
1569406295334062,4,1,0,-1,0,0,-5,24
1569406295341043,0,1,-1,0,-1,1,-4,7
1569406295341043,-1,-1,1,0,-1,-3,1,-3
1569406295357000,4,2,1,1,0,-1,-3,11
1569406295357000,0,-1,-2,0,1,-1,3,-3
1569406295358995,3,-2,-1,-1,2,0,-2,2
1569406295358995,-2,-2,-1,-2,-2,0,1,5
1569406295379939,-7,-1,-2,-1,-1,0,0,-13
1569406295379939,1,2,-1,0,-2,0,-2,-1
1569406295381934,3,-1,-2,-2,-2,-1,-2,1
1569406295381934,-2,-1,-2,0,0,0,1,-2
1569406295393910,0,-2,-2,-1,-1,0,1,-5
1569406295393910,4,2,-1,0,0,-3,-9,14
1569406295400884,6,-1,0,-1,-3,-1,0,9
1569406295400884,0,1,1,1,1,1,-1,0
1569406295416841,0,1,-3,-1,-4,2,-7,0
1569406295416841,2,-2,-1,-4,0,1,6,0
1569406295418835,0,-2,-2,-1,-1,-3,-2,-2
1569406295418835,-1,-1,-1,-1,-2,-1,-4,-1
1569406295439779,11,3,4,2,2,-1,-23,47
1569406295439779,-3,-2,0,-1,0,3,4,-10
1569406295441774,-2,0,2,0,0,-1,-4,6
1569406295441774,1,0,-1,-3,-2,0,1,6
1569406295453753,-5,-1,-4,0,-1,-2,5,-4
1569406295453753,7,3,1,1,0,2,3,25
1569406295460723,-2,0,0,1,2,3,9,6
1569406295460723,-1,-4,-2,-1,-2,-1,-5,-8
1569406295477677,-4,-3,-2,-2,-1,1,7,-12
1569406295477677,-3,-1,0,0,-1,-1,-1,-15
1569406295478675,-4,-2,-2,1,0,-2,5,-3
1569406295478675,0,0,-1,0,-2,-1,2,1
1569406295499625,-4,-2,3,1,1,-2,-1,-8
1569406295499625,2,-1,-1,0,-1,0,1,5
1569406295501615,-2,-1,0,-3,-2,-2,-6,0
1569406295501615,-1,-2,-2,-3,1,0,1,-9
1569406295514578,-4,0,-2,-1,-2,-2,-1,-4
1569406295514578,-6,-1,0,1,-2,-1,2,-15
1569406295520564,-1,-3,-2,0,-1,0,6,-2
1569406295520564,-6,-1,-1,0,0,-2,-2,-4
1569406295537534,-2,-2,-1,-1,0,-1,9,-6
1569406295537534,-4,1,2,0,0,0,-1,-2
1569406295538518,2,1,-2,0,-3,-2,-3,4
1569406295538518,1,-1,0,1,-1,0,0,-1
1569406295559469,-7,-2,-2,-1,0,-1,0,-7
1569406295559469,-2,-1,-1,-1,-1,0,3,-5
1569406295561454,0,2,2,-3,1,-1,-3,-4
1569406295561454,0,0,-1,1,0,-1,0,2
1569406295574419,2,1,0,0,-1,0,-1,-4
1569406295574419,4,-1,-1,-1,-1,-2,-2,4
1569406295581400,-6,-2,0,-1,-1,-1,-5,-7
1569406295581400,10,1,1,-1,-1,-3,-12,19
1569406295596372,4,0,-2,1,1,3,7,15
1569406295596372,-6,-2,-2,-1,-2,-3,-2,-13
1569406295605336,1,2,-1,0,-1,-3,2,6
1569406295605336,-1,0,0,-2,-1,-3,1,-2
1569406295619300,-2,0,0,0,-1,-1,0,-2
1569406295619300,-2,-3,-2,-1,1,0,-3,-11
1569406295621293,-5,-3,-2,0,-3,1,3,-16
1569406295621293,-1,-2,-2,0,0,0,-1,6
1569406295634260,1,1,0,-2,-1,0,1,-9
1569406295634260,-4,-3,-2,-2,-1,0,1,-5
1569406295641241,-5,1,0,0,2,-1,-6,-4
1569406295641241,-1,-1,-1,-1,-1,1,2,-5
1569406295657198,-2,-2,-1,0,-3,-2,-6,-5
1569406295657198,6,1,-2,-1,0,0,-2,19
1569406295659194,2,-2,-1,-1,0,-2,-2,11
1569406295659194,-3,0,0,0,1,1,0,-4
1569406295680146,3,-2,-2,-2,0,1,0,16
1569406295680146,-3,0,0,1,-1,-3,-2,-9
1569406295681134,-1,-1,-3,-1,-2,0,6,4
1569406295681134,-9,-4,-3,-2,-4,-2,7,-48
1569406295693102,0,-2,-3,0,0,0,-3,-11
1569406295693102,-9,-2,-3,-1,0,-1,5,-27
1569406295702087,3,0,2,0,1,0,-3,2
1569406295702087,-3,-2,-2,-2,-1,1,3,-5
1569406295717038,-1,0,0,-1,-1,0,0,0
1569406295717038,-1,1,1,-1,-1,0,-2,-6
1569406295719032,2,-1,0,0,-1,0,-4,1
1569406295719032,3,-1,0,1,0,-1,-2,8
1569406295739978,-1,0,-1,0,1,0,0,2
1569406295739978,2,0,-1,-1,0,-2,-2,4
1569406295740974,3,1,-1,-1,-1,0,0,1
1569406295740974,3,2,0,0,1,1,1,11
1569406295752943,0,-1,-1,-1,-1,-1,1,5
1569406295752943,0,-1,0,-2,-1,0,3,6
1569406295762919,-3,-2,-2,-2,-1,2,11,-9
1569406295762919,-2,0,0,-1,-2,-3,-3,0
1569406295776877,0,0,2,-1,0,-2,-3,5
1569406295776877,2,-3,-2,-1,0,0,-3,1
1569406295778873,1,-1,0,-2,0,-3,-2,1
1569406295778873,2,-1,0,0,-1,1,-2,10
1569406295799817,-3,-1,-1,-3,-2,1,1,-8
1569406295799817,-2,-1,-2,0,-1,1,-1,-8
1569406295801811,0,2,0,2,0,-1,-5,0
1569406295801811,-2,-1,-2,-2,-1,-1,3,-1
1569406295813780,3,1,1,0,0,-2,-6,3
1569406295813780,-5,-1,-1,-2,0,-1,-5,1
1569406295822755,0,-3,0,0,-1,-1,-9,0
1569406295822755,2,-1,-2,-1,-1,0,-1,9
1569406295837725,-1,1,1,2,0,-2,1,-4
1569406295837725,3,-1,0,0,-1,2,1,3
1569406295838712,-3,0,-1,-1,-2,-2,-1,1
1569406295838712,-7,-3,-2,-2,0,-1,4,-15
1569406295859656,-8,-4,-4,-2,-1,2,17,-14
1569406295859656,-1,0,0,-1,-1,0,0,-10
1569406295861653,-1,-1,-1,-1,-2,-1,-2,1
1569406295861653,1,-1,-1,-1,0,-1,-4,5
1569406295873620,-1,0,0,0,0,-1,0,-4
1569406295873620,5,3,1,1,1,1,2,8
1569406295882599,-1,1,-1,0,0,-1,0,-4
1569406295882599,3,0,-2,-2,-1,1,2,15
1569406295897556,-1,-2,0,0,-2,-2,-2,-3
1569406295897556,-6,-2,-3,-3,-4,-2,-4,-14
1569406295899550,5,1,0,0,1,3,8,24
1569406295899550,0,0,1,2,-1,-1,-1,5
1569406295919506,4,-2,-2,-2,-2,-4,-1,6
1569406295919506,0,-2,0,2,0,-3,-4,-11
1569406295921494,-4,-2,-1,-2,-1,-2,-3,-7
1569406295921494,-6,1,0,-1,-1,-2,-8,-6
1569406295933462,1,2,0,0,0,3,-2,10
1569406295933462,-2,0,-1,-3,-2,-1,3,0
1569406295942436,-2,-2,-2,0,0,-1,-4,-3
1569406295942436,1,0,-1,0,1,0,3,3
1569406295957421,-3,-1,-1,-1,0,0,-3,-4
1569406295957421,6,2,0,1,0,-2,-13,12
1569406295959390,-4,0,2,1,0,0,0,-14
1569406295959390,-6,-3,0,-1,-3,-2,-2,-21
1569406295979346,4,-1,-2,1,-2,1,3,12
1569406295979346,-8,-1,-2,-2,1,1,3,-5
1569406295981332,0,-1,-1,0,0,-2,-2,3
1569406295981332,1,1,-1,-1,0,-1,-1,-2
1569406295993299,2,0,1,0,0,0,-2,2
1569406295993299,0,-1,0,0,0,0,4,0
1569406296002275,-6,-2,-2,-1,-2,-1,-7,-18
1569406296002275,2,3,1,2,0,-1,3,8
1569406296017236,-3,1,1,-2,-1,1,-2,-8
1569406296017236,2,-1,0,-1,-1,1,4,5
1569406296019231,-5,-2,0,0,-2,-1,4,-11
1569406296019231,4,-1,-2,0,0,-1,-1,13
1569406296040184,-4,-2,-5,-1,-3,-3,-2,2
1569406296040184,-2,-1,-1,-3,-2,-1,5,-11
1569406296041172,5,1,0,-2,1,-2,-6,8
1569406296041172,3,-1,-1,-1,-1,-1,0,1
1569406296053140,-1,0,-1,1,-1,0,-2,-2
1569406296053140,3,0,2,0,2,1,-2,10
1569406296062116,3,-1,-1,-2,-2,-2,0,7
1569406296062116,0,0,-1,-2,-1,1,4,1
1569406296077084,-6,-3,0,0,0,-1,3,-2
1569406296077084,0,-1,-3,-1,-2,-1,-5,0
1569406296079070,1,-1,-1,-2,0,2,1,3
1569406296079070,15,7,4,5,2,2,0,41
1569406296100019,2,-3,-4,-1,0,-1,1,9
1569406296100019,-1,-2,-4,0,-1,2,14,-4
1569406296101012,-3,0,2,-2,0,-3,-3,1
1569406296101012,-6,-2,-1,-2,-1,-2,1,-17
1569406296121956,-1,1,0,-1,0,1,0,-3
1569406296121956,3,-1,-1,0,-1,-1,1,5
1569406296123949,-4,-1,-3,-1,-1,-1,-2,-2
1569406296123949,-2,-2,0,-1,-1,-1,-2,-10
1569406296136925,0,0,-1,-1,-1,-1,-2,-2
1569406296136925,-6,-1,-2,-1,-2,-3,-5,-9
1569406296138909,0,-1,-1,0,-2,-2,0,-2
1569406296138909,-3,0,-1,-2,1,1,-4,-7
1569406296159854,1,0,1,0,0,-2,-3,1
1569406296159854,0,0,0,0,1,-3,-4,-8
1569406296161848,-1,-1,-1,0,-2,-1,1,-3
1569406296161848,-3,-2,-2,-1,-1,-1,1,1
1569406296182798,1,0,-1,1,-1,-1,-1,5
1569406296182798,-17,-5,-4,-3,-3,0,5,-20
1569406296183795,2,1,-1,-1,0,1,-2,-3
1569406296183795,-3,-2,-2,-1,-2,-1,-1,-7
1569406296197753,-2,1,-1,-1,-1,-1,0,1
1569406296197753,-1,1,-2,-1,0,1,-2,-2
1569406296198751,1,0,-1,0,-1,-1,1,-3
1569406296198751,8,0,0,0,-1,-6,-13,26
1569406296219704,-3,-2,1,0,-1,-1,1,-7
1569406296219704,6,2,1,2,-2,-3,-6,8
1569406296221689,1,0,-2,-1,-1,0,-2,7
1569406296221689,0,-1,-1,-1,0,0,2,-8
1569406296242633,-1,1,0,-2,1,-2,-4,4
1569406296242633,1,0,1,1,0,-2,-11,3
1569406296243631,-3,-2,-1,1,0,1,1,1
1569406296243631,-2,-2,0,0,-1,1,0,-7
1569406296257595,1,0,-1,1,-3,0,-4,-5
1569406296257595,0,-1,-1,-1,-1,0,3,-2
1569406296258591,2,0,0,-1,-1,-2,0,-1
1569406296258591,-10,-2,-1,0,0,-2,1,-10
1569406296279534,-1,0,-2,0,1,-1,1,2
1569406296279534,2,-1,1,-2,0,-1,0,3
1569406296281529,-1,-1,-1,0,-1,1,-1,3
1569406296281529,2,0,-1,-2,-2,0,3,4
1569406296302484,0,0,1,-1,1,-1,-2,-2
1569406296302484,-5,-2,-2,-1,-1,-2,-3,-9
1569406296303471,1,1,0,-2,-1,0,0,2
1569406296303471,-1,-1,-2,0,-1,-1,3,-1
1569406296316438,0,-2,-1,1,-2,-1,-2,-4
1569406296316438,1,-2,-1,1,0,1,0,2
1569406296323426,-5,0,1,-2,-1,-2,-1,-9
1569406296323426,-2,-1,-1,0,0,-2,-1,-1
1569406296340376,-2,0,0,-2,-2,-1,-2,-5
1569406296340376,-2,0,1,1,-2,-3,-1,3
1569406296341370,1,-2,-1,-1,-1,-1,2,0
1569406296341370,-2,0,1,0,0,0,0,4
1569406296362315,-4,-2,-3,-1,1,-1,2,-1
1569406296362315,-4,-1,1,2,-2,-3,-9,-3
1569406296364308,1,1,1,1,0,-1,0,1
1569406296364308,-4,-2,-1,-1,0,1,0,-4
1569406296376276,4,-1,-2,-1,-1,-2,-1,3
1569406296376276,-3,-1,-2,-2,-1,2,2,-5
1569406296383258,2,-2,-1,-2,2,-2,-1,1
1569406296383258,2,-1,0,-2,-1,0,-3,5
1569406296400213,1,0,1,0,0,-1,1,-3
1569406296400213,2,-2,-1,1,-1,-2,0,-7
1569406296401211,-1,-1,-1,-1,0,0,-1,0
1569406296401211,-4,0,-1,0,0,-1,2,-13
1569406296422154,2,-1,0,-2,-1,1,0,3
1569406296422154,3,1,0,-1,0,-2,1,5
1569406296424148,-5,0,-1,0,0,1,-3,-4
1569406296424148,-2,-1,-2,-1,-2,0,3,-12
1569406296437113,3,-1,0,2,1,0,-6,8
1569406296437113,2,-2,-2,-2,0,-1,-3,-4
1569406296443105,-1,-2,0,1,-1,-1,0,4
1569406296443105,-3,-1,2,-2,1,1,-2,-1
1569406296460052,-3,0,1,-1,-1,0,3,0
1569406296460052,-6,-1,0,-1,1,-1,-2,-8
1569406296461049,2,-1,-2,-3,-2,0,-2,3
1569406296461049,4,0,0,0,0,-3,-3,1
1569406296482991,-1,-1,0,-2,-2,-1,-1,-5
1569406296482991,1,-2,-1,-2,-1,-1,3,0
1569406296484003,0,0,-1,-1,-2,-1,1,0
1569406296484003,-2,-2,-1,1,-3,0,-2,-3
1569406296496954,1,-1,-1,-2,-1,1,-1,-6
1569406296496954,-1,-1,0,-2,-1,2,2,-1
1569406296503934,-2,-2,-2,-1,-1,-1,0,-2
1569406296503934,1,2,0,-2,0,-1,1,2
1569406296519894,0,-3,-2,-2,1,-1,0,0
1569406296519894,2,0,-1,-1,-1,-1,1,3
1569406296521889,0,0,-1,-1,-1,0,0,-1
1569406296521889,-1,0,-1,1,0,-1,-2,0
1569406296541844,-9,-2,-2,-1,-2,-1,8,-18
1569406296541844,1,1,0,0,-1,-1,-5,-2
1569406296543828,-1,-3,-1,-1,0,-1,2,-1
1569406296543828,1,-2,-2,-3,-3,1,1,-5
1569406296556805,0,-1,-1,1,-1,-1,0,5
1569406296556805,-1,-3,-2,-1,-1,-1,0,-3
1569406296563777,-5,0,0,0,-2,0,-2,-11
1569406296563777,2,-1,0,-1,-1,-1,-2,6
1569406296579732,3,0,-2,0,-2,-1,0,3
1569406296579732,-1,0,1,-1,-1,-2,-1,0
1569406296581727,1,2,2,0,0,-1,-3,-1
1569406296581727,-1,3,0,0,2,-1,-1,-4
1569406296602681,-2,0,1,0,-2,-3,-6,-4
1569406296602681,-4,-1,-1,0,0,1,3,-1
1569406296603670,-3,-2,0,-1,-1,-1,-2,-2
1569406296603670,-2,-1,-1,-1,-1,0,0,-2
1569406296615637,3,1,-1,0,0,0,-1,3
1569406296615637,0,-1,-1,0,1,2,6,0
1569406296624612,4,0,1,0,-1,-1,-2,-3
1569406296624612,-3,-2,-4,0,-3,-1,-1,4
1569406296639574,3,1,-1,1,-1,-1,-1,7
1569406296639574,-4,-1,0,0,-2,-1,-2,2
1569406296641567,1,0,0,-2,0,0,0,2
1569406296641567,1,0,0,-1,-1,-1,-1,3
1569406296662511,-5,-4,-2,-2,0,1,12,-12
1569406296662511,-1,-1,-1,-1,0,0,-4,-8
1569406296663518,-7,0,0,0,0,1,8,-8
1569406296663518,7,-1,1,1,0,-1,1,19
1569406296676473,0,1,-1,-2,-2,-1,-4,-1
1569406296676473,2,-1,-2,-2,-1,-1,-2,1
1569406296685449,0,-2,-1,0,-3,-2,-1,3
1569406296685449,-5,-2,-2,1,0,1,1,-8
1569406296699416,-2,-1,1,0,-1,-1,-2,-2
1569406296699416,2,1,0,-2,-1,-1,-1,5
1569406296701407,0,0,-1,0,-1,-1,-4,0
1569406296701407,1,-1,-2,-2,0,1,1,2
1569406296722350,-12,-3,-2,0,-1,2,0,-12
1569406296722350,6,0,1,3,-2,-8,-11,-4
1569406296724346,-1,-2,-1,-1,0,-1,0,4
1569406296724346,-4,-1,-1,-2,-2,-2,-5,-9
1569406296736316,0,-1,-1,-2,0,1,2,-1
1569406296736316,-2,-2,-2,-2,0,2,3,-1
1569406296745289,1,1,-1,1,-1,-2,-2,2
1569406296745289,1,0,0,1,-1,-1,-2,-3
1569406296760249,4,1,0,1,0,-4,-4,0
1569406296760249,-2,0,-1,-2,0,1,1,-2
1569406296761247,3,-1,0,-2,0,-1,-2,9
1569406296761247,-5,-1,-1,-2,-2,0,-1,-1
1569406296782191,5,1,-1,-1,0,1,-2,4
1569406296782191,6,1,-1,-1,0,-4,-7,4
1569406296784187,-5,-2,0,1,1,2,1,-5
1569406296784187,-3,-1,2,0,0,0,0,-4
1569406296796155,-3,-1,-1,-1,-1,-3,-4,-3
1569406296796155,2,-2,-1,-2,-1,2,6,8
1569406296805129,2,2,-1,-2,-1,-3,-5,-14
1569406296805129,2,2,-1,2,0,1,0,6
1569406296820098,2,0,-1,-1,2,0,-2,-1
1569406296820098,-5,0,-1,-1,-1,0,2,-5
1569406296821086,8,1,-1,1,-1,-4,-10,5
1569406296821086,0,-2,-1,0,-1,-1,2,-3
1569406296842031,0,0,-1,-2,0,0,0,2
1569406296842031,-3,1,-1,0,0,-1,-1,-9
1569406296844030,-4,-1,0,-2,0,0,2,-3
1569406296844030,1,0,-2,-1,1,-1,-1,3
1569406296856003,2,0,-1,0,0,-2,-2,3
1569406296856003,-1,-1,-2,0,-2,1,0,-3
1569406296864969,-2,-2,1,-1,-4,-1,3,3
1569406296864969,-2,1,0,0,-2,-2,-2,-6
1569406296879929,-1,0,0,-2,0,-2,1,-6
1569406296879929,-1,-1,1,1,-1,1,-2,-3
1569406296880927,0,-1,0,-2,-1,0,1,-3
1569406296880927,-1,-1,-2,-1,-3,-1,-1,-3
1569406296901881,-4,0,-1,-3,-1,0,1,-2
1569406296901881,-2,1,1,0,1,-2,-1,-3
1569406296903889,3,-3,-1,-1,0,1,2,2
1569406296903889,8,0,1,1,1,1,3,20
1569406296915834,4,1,-2,1,-2,-5,-15,9
1569406296915834,1,-1,-4,-1,-3,0,2,-3
1569406296924810,-3,-1,-3,0,-2,2,4,-3
1569406296924810,-4,-2,0,-2,-1,0,-1,-7
1569406296939770,-2,-1,0,0,-1,0,1,-7
1569406296939770,1,0,1,-1,2,-1,-1,-2
1569406296941784,1,-1,-2,0,1,-1,-4,1
1569406296941784,-6,-3,-1,-3,-1,0,1,-6
1569406296962708,-1,-2,1,-1,-1,1,2,2
1569406296962708,-2,-1,-1,-1,-2,0,-1,-7
1569406296963706,-4,0,-2,0,-1,-1,1,0
1569406296963706,-3,-1,-1,-1,0,-1,-2,-3
1569406296975684,4,0,0,0,0,0,4,-3
1569406296975684,-4,-2,-1,-1,-3,-2,-2,-2
1569406296984660,0,1,2,0,0,1,1,-1
1569406296984660,2,0,0,-1,0,-1,0,8
1569406296999610,-2,-2,0,1,0,-1,-2,-7
1569406296999610,4,-3,-2,-1,0,0,1,12
1569406297001610,-1,0,-2,0,0,-2,-2,-2
1569406297001610,-2,1,-2,-1,0,0,-1,-2
1569406297022549,1,1,0,1,0,-2,-12,11
1569406297022549,-5,-2,0,0,0,-2,-6,-4
1569406297023547,-6,-2,-2,0,0,0,-1,-5
1569406297023547,5,0,-2,-1,-1,-1,3,6
1569406297035514,-6,-2,-4,-2,-1,-1,3,-6
1569406297035514,-2,0,0,0,-1,1,1,-2
1569406297044490,0,0,0,0,-1,-3,-4,5
1569406297044490,-3,-2,-1,0,0,-1,-2,-6
1569406297059459,0,-1,-2,-1,-2,1,5,1
1569406297059459,2,0,-2,-1,0,1,1,-1
1569406297061445,-3,-3,1,-2,-1,0,1,-1
1569406297061445,-1,0,-2,0,-1,-1,0,-2
1569406297082394,-1,0,1,-1,-1,-2,1,0
1569406297082394,5,1,-1,-2,0,-1,2,-1
1569406297084384,1,0,0,0,0,1,0,4
1569406297084384,0,0,-1,-1,-1,-2,-5,-4
1569406297105337,3,0,-1,-1,-1,-1,0,7
1569406297105337,-3,-2,-1,-2,1,-2,-1,-6
1569406297106325,-8,-4,-4,-4,-1,1,11,-11
1569406297106325,-5,-2,1,-1,0,-1,-2,-6
1569406297120287,1,0,1,1,0,-3,-1,-3
1569406297120287,-4,-1,0,1,-2,-1,-2,-8
1569406297121290,3,0,-2,-1,-2,-2,0,4
1569406297121290,-2,-3,-3,-1,1,1,1,-2
1569406297142238,-3,1,1,0,-2,-1,-2,-10
1569406297142238,1,2,2,2,0,-2,1,-8
1569406297144225,2,-1,-1,-1,0,-3,-5,3
1569406297144225,-1,-2,-1,-1,0,0,2,-2
1569406297165168,-2,-2,-1,-2,1,0,1,-2
1569406297165168,0,-1,-1,-2,-2,-1,0,4
1569406297166165,-8,1,0,0,-1,-1,-4,-14
1569406297166165,2,1,1,-1,-1,1,0,2
1569406297180137,-5,0,-1,-1,0,-1,-1,-10
1569406297180137,0,0,0,0,-1,1,-1,1
1569406297181124,2,-1,-1,0,0,0,-2,-2
1569406297181124,-5,-1,1,-1,-1,-3,-1,-13
1569406297202069,2,0,0,-2,-2,-2,1,-3
1569406297202069,-3,-1,-2,-1,-1,-1,-1,-5
1569406297204062,1,-1,-1,-1,-1,-1,-1,1
1569406297204062,0,-1,0,-1,-2,0,-1,-1
1569406297225007,0,1,-1,-2,1,0,-1,-5
1569406297225007,-3,-2,-2,-1,-1,-1,-1,-6
1569406297226014,3,-1,0,-1,-3,-1,-5,6
1569406297226014,0,-1,-2,1,0,-1,0,-2
1569406297238970,2,-4,-3,-2,0,1,3,1
1569406297238970,-6,-1,-3,-1,1,0,0,1
1569406297245951,0,-1,-2,-1,1,3,5,1
1569406297245951,-2,0,-2,-1,-1,0,2,-2
1569406297262916,2,0,0,-1,-1,-2,-2,5
1569406297262916,-1,1,0,-1,-1,0,1,-4
1569406297263904,0,0,0,-1,-1,-2,-2,-3
1569406297263904,0,0,1,1,0,-2,-6,-1
1569406297284847,-5,-1,-1,2,0,0,-1,-5
1569406297284847,3,-1,-1,-2,-1,0,-1,3
1569406297286841,-1,0,0,-1,-2,0,2,-6
1569406297286841,1,0,-2,-2,-2,0,0,0
1569406297298812,-1,-2,0,-1,-2,-3,-3,-9
1569406297298812,-1,-1,-1,1,-1,-1,0,4
1569406297305794,-1,-1,-1,0,1,1,-1,-8
1569406297305794,3,3,1,2,1,-1,-4,10
1569406297322746,-1,0,0,-1,-2,1,-2,3
1569406297322746,-3,-3,-1,-3,-1,0,0,-4
1569406297323756,0,-2,0,0,0,-1,2,0
1569406297323756,-5,0,0,-1,-1,-1,1,3
1569406297344688,-1,0,-1,0,0,0,1,-1
1569406297344688,-1,-2,1,0,-1,-2,-7,1
1569406297346682,-1,1,0,1,0,-1,-4,-6
1569406297346682,1,-1,-2,-3,-1,0,2,6
1569406297358658,0,0,1,0,1,0,0,5
1569406297358658,-2,1,0,-2,-1,-2,-1,-2
1569406297365639,-2,0,-1,0,0,-3,-2,2
1569406297365639,-1,-1,1,0,-1,-3,2,-3
1569406297382586,-1,0,-1,0,0,0,3,1
1569406297382586,0,1,1,0,-1,0,0,0
1569406297383588,-2,-2,-3,-1,-1,0,-1,0
1569406297383588,1,-4,-1,-1,-1,-1,5,4
1569406297404537,-2,-2,-2,0,0,1,0,0
1569406297404537,0,-2,-3,0,-2,-2,5,-5
1569406297406521,2,-1,1,-3,-1,-1,-7,5
1569406297406521,-3,0,-1,-2,-1,0,0,-5
1569406297427466,-3,-2,-1,0,-1,-2,-3,-13
1569406297427466,3,0,0,-1,2,1,3,8
1569406297428463,-9,-1,-3,-3,-3,1,3,2
1569406297428463,0,0,0,0,-1,0,0,-3
1569406297442435,0,0,0,-1,0,0,-5,4
1569406297442435,2,0,0,0,-2,0,-5,-6
1569406297443425,4,-1,0,-1,-1,-1,-1,2
1569406297443425,-3,0,-1,0,-2,1,4,-8
1569406297465365,-4,-2,-1,-2,-3,-1,-2,-2
1569406297465365,12,5,4,3,2,0,-16,44
1569406297466368,-1,-3,0,1,0,0,0,-6
1569406297466368,4,-1,2,0,0,0,-2,1
1569406297479336,3,0,-1,-1,1,0,4,0
1569406297479336,-5,-2,-1,-1,-1,-2,3,-8
1569406297486309,7,1,0,1,-1,-1,-3,14
1569406297486309,0,0,-1,0,1,-3,-7,6
1569406297502267,2,0,-1,-2,0,2,0,-6
1569406297502267,4,1,0,0,-1,-1,1,5
1569406297504261,-3,2,-1,0,-1,-2,0,-4
1569406297504261,-2,-3,-2,0,-1,0,0,-5
1569406297525207,2,0,-2,0,-3,-2,1,5
1569406297525207,-8,-3,-3,-2,-2,0,2,-20
1569406297526202,4,1,-1,1,0,1,0,5
1569406297526202,-5,-2,-1,-3,-1,1,6,-15
1569406297539168,2,0,-1,-1,1,-3,-8,3
1569406297539168,-5,-4,-3,0,-1,2,6,-2
1569406297547156,0,1,1,0,-1,-3,-1,-1
1569406297547156,1,0,-2,0,0,0,-4,0
1569406297562114,3,1,2,-1,1,-1,2,17
1569406297562114,-4,-1,-2,0,-1,-2,2,-5
1569406297564101,-2,-2,-2,-1,-2,-3,-3,-10
1569406297564101,-2,-1,0,-1,-2,-2,0,-5
1569406297585054,-4,-2,0,0,0,-1,2,-10
1569406297585054,-2,1,1,-2,2,-1,-2,-8
1569406297586043,0,-1,-1,-2,1,2,2,6
1569406297586043,2,1,0,-1,-1,-1,-3,7
1569406297599017,-8,-3,0,0,-1,1,9,-20
1569406297599017,2,-1,1,0,0,-2,-2,0
1569406297607984,3,-2,-1,-1,0,1,1,-2
1569406297607984,-14,-2,-1,-1,1,-3,-4,-17
1569406297621946,1,-1,-2,-1,0,2,4,3
1569406297621946,0,0,-2,-1,-5,0,0,-12
1569406297623941,0,0,-2,0,1,-1,2,2
1569406297623941,1,0,0,1,-1,0,-2,1
1569406297644885,0,-1,0,-1,-1,-2,-4,-4
1569406297644885,-8,-3,0,-2,1,1,-3,-12
1569406297646879,0,0,-1,-1,-2,0,1,0
1569406297646879,2,-3,-2,-2,-2,2,5,4
1569406297658857,0,1,0,1,-1,-2,-5,2
1569406297658857,2,-1,-2,-1,-2,-1,1,5
1569406297667824,-5,-2,0,-1,-2,0,1,-5
1569406297667824,-1,0,0,0,0,1,0,1
