timestamp,emg1,emg2,emg3,emg4,emg5,emg6,emg7,emg8
1569407304622743,-4,-2,0,-1,0,-2,-2,-17
1569407304622743,0,0,-1,0,0,-1,-2,5
1569407304623774,0,1,-1,-1,-1,2,2,6
1569407304623774,3,-1,-2,-1,-1,-1,2,6
1569407304624739,-3,-2,0,1,1,-1,-5,-23
1569407304624739,0,-1,2,-2,-2,-3,-2,-2
1569407304625762,2,0,0,-1,-1,-3,-1,6
1569407304625762,-2,1,-2,-2,-1,2,7,8
1569407304635985,-6,-1,-1,-1,1,1,-5,-35
1569407304635985,0,-1,1,1,-1,0,-2,-6
1569407304638703,0,-1,0,0,-1,0,1,6
1569407304638703,1,-1,0,0,-2,-1,2,5
1569407304653665,-4,-2,0,0,-1,-2,-3,-15
1569407304653665,-2,0,0,0,1,-2,-3,2
1569407304663634,1,-2,-2,-1,-1,0,0,1
1569407304663634,-3,-1,0,0,0,0,0,-3
1569407304670624,4,-1,-2,0,-1,-1,-2,-2
1569407304670624,-2,0,-1,-1,0,1,-1,0
1569407304692569,-1,-2,-1,-1,0,-2,-2,8
1569407304692569,0,1,0,0,0,0,-1,-7
1569407304732460,-3,0,0,-2,0,-1,0,8
1569407304732460,3,2,-2,-1,-1,0,5,13
1569407304733839,-6,-2,0,0,0,-1,-5,-27
1569407304733839,-4,0,-1,0,0,-2,-3,0
1569407304733839,1,-3,-1,0,0,0,0,-1
1569407304733839,0,0,-1,-1,-2,0,3,14
1569407304737443,-1,-2,-1,-1,-2,-3,-2,-20
1569407304737443,-2,-1,-2,-1,-2,0,-3,-2
1569407304743993,-1,-2,-1,-1,0,1,0,3
1569407304743993,-1,1,-1,-2,-1,1,4,17
1569407304752805,-3,-1,-1,0,0,0,-4,-22
1569407304752805,2,0,0,-1,-1,0,1,7
1569407304758797,0,1,-3,-2,-2,0,2,3
1569407304758797,0,1,1,2,1,-1,2,8
1569407304774034,-1,0,-1,-1,1,0,-2,-17
1569407304774034,-4,-2,-1,0,0,0,-4,-4
1569407304781315,1,1,1,0,2,0,0,1
1569407304781315,-7,-1,1,-1,0,-1,-2,-18
1569407304804834,7,2,0,-1,-1,-2,3,12
1569407304804834,1,0,0,1,0,0,-1,0
1569407304805412,-4,-1,-2,0,0,0,-1,-12
1569407304805412,4,-1,-1,-2,0,1,3,8
1569407304819415,-3,-2,-1,0,-1,-1,-3,-17
1569407304819415,-1,-2,0,-3,0,-1,-1,2
1569407304820370,-1,1,0,-2,-1,-1,1,-3
1569407304820370,1,-1,-3,-1,-1,-1,0,10
1569407304841357,-1,-2,0,-1,-1,-1,-4,-8
1569407304841357,0,1,1,1,1,-3,2,6
1569407304842352,-1,-2,0,0,-1,-2,-3,-1
1569407304842352,-1,-1,0,0,0,0,0,1
1569407304864252,-6,-2,-2,-1,-1,-1,-4,-11
1569407304864252,4,-1,-1,-1,-1,0,-1,10
1569407304865250,-1,0,1,1,0,0,-2,-5
1569407304865250,2,0,1,-2,-3,-1,-1,6
1569407304879213,1,-1,-2,-1,0,0,1,-7
1569407304879213,-1,0,1,-1,-3,-1,-2,-6
1569407304880224,-2,-2,-4,-2,0,0,-1,0
1569407304880224,0,-2,0,0,0,-1,1,4
1569407304902152,-5,-1,1,0,1,-2,-5,-11
1569407304902152,2,0,0,0,-3,-3,-1,-3
1569407304902152,2,-1,-1,0,-2,0,2,11
1569407304902152,-2,-1,-2,-1,-2,-1,-3,-5
1569407304924092,-2,0,-1,-1,-1,-1,-1,-1
1569407304924092,-1,0,0,-1,0,0,-1,-7
1569407304926087,1,-1,0,0,-1,0,0,-6
1569407304926087,3,2,-2,-1,1,0,3,11
1569407304939055,-2,1,-1,-1,0,-2,0,-4
1569407304939055,5,1,0,1,1,-1,-13,10
1569407304940053,0,2,3,0,1,-2,-12,-2
1569407304940053,6,-2,-3,-3,-3,-3,-2,-1
1569407304961993,-3,0,1,1,-1,-2,-4,-5
1569407304961993,0,-1,0,-2,-2,1,4,0
1569407304964985,-9,-2,-2,-2,-1,1,5,-9
1569407304964985,3,0,-1,1,-1,1,-4,0
1569407304984932,-6,-6,-3,-3,-1,-1,-2,4
1569407304984932,4,1,0,0,-1,-1,5,5
1569407304984932,2,1,0,2,0,0,1,5
1569407304984932,-5,-2,-2,-3,1,0,-2,-9
1569407304998894,3,1,-2,0,-2,1,0,-6
1569407304998894,-6,-3,2,-1,-1,-2,-2,-9
1569407304999894,5,0,0,0,-2,-2,-3,17
1569407304999894,-5,1,1,-1,-1,0,1,-10
1569407305022830,2,0,-1,-1,-1,-1,-1,2
1569407305022830,-2,0,-2,-2,1,-1,1,5
1569407305022830,-2,-1,-1,-1,1,3,1,-6
1569407305022830,-2,-2,0,0,-1,-2,-1,-5
1569407305044773,2,-1,1,1,1,0,1,-3
1569407305044773,-3,-1,-2,-2,-1,0,4,-6
1569407305044773,-2,-2,-1,-2,-1,-1,-2,-8
1569407305044773,1,0,0,2,0,-1,-1,6
1569407305059733,1,0,0,-1,-1,-2,-2,1
1569407305059733,-4,-2,-1,0,-2,1,-1,-6
1569407305059733,1,-1,-1,-1,-1,-1,1,3
1569407305059733,1,-1,1,0,-1,-2,1,1
1569407305083701,-3,-1,0,-1,0,-1,-1,-3
1569407305083701,-3,0,-2,-1,-1,1,1,-1
1569407305083701,-3,-2,1,0,-1,-2,-1,-1
1569407305083701,-2,0,0,-2,0,0,0,-3
1569407305104610,-2,0,-1,1,1,1,1,0
1569407305104610,0,-1,-1,0,0,0,-2,-2
1569407305104610,1,0,-2,1,-2,-2,0,1
1569407305104610,-4,-2,0,1,-1,0,-2,-7
1569407305119571,3,2,1,0,0,2,1,7
1569407305119571,-3,-1,-2,-2,1,1,-1,-17
1569407305120569,0,0,0,-1,-1,0,3,7
1569407305120569,0,1,1,-1,-1,-5,-5,-4
1569407305143507,-1,-2,-2,-1,0,-1,0,-8
1569407305143507,0,-2,0,-2,-1,-2,1,8
1569407305143507,-2,0,-1,-1,-1,-1,1,-1
1569407305143507,-3,0,-1,-1,-1,1,1,-6
1569407305164451,0,-2,-2,-1,-2,-2,1,7
1569407305164451,-1,-1,-1,-1,0,0,2,-3
1569407305165449,0,-1,-2,0,0,0,-6,2
1569407305165449,1,-2,-1,-1,-1,0,1,5
1569407305180409,-4,0,1,-1,0,-2,-5,-17
1569407305180409,10,-2,-2,-1,-4,-2,3,19
1569407305181407,1,0,-2,-1,-3,-1,0,-4
1569407305181407,-6,-1,0,-1,-2,1,2,-11
1569407305202349,-1,0,-1,-2,-1,0,-2,-5
1569407305202349,-3,1,1,1,0,0,-4,-9
1569407305202349,1,0,1,-1,-1,-2,-4,-2
1569407305202349,3,-2,-2,0,-1,-2,-3,1
1569407305224291,0,-1,0,0,0,0,-2,6
1569407305224291,-2,0,-1,1,-2,-1,-1,-6
1569407305225288,-1,0,0,-1,0,-1,-1,0
1569407305225288,-2,0,-1,-1,0,1,-1,-7
1569407305239252,1,-1,-1,0,-1,2,1,5
1569407305239252,-2,-1,1,1,0,0,-1,-5
1569407305240249,0,-2,0,1,1,-1,-3,-3
1569407305240249,2,1,0,0,-1,-2,1,3
1569407305262213,0,1,-1,0,1,-3,-2,1
1569407305262213,-2,0,-2,-1,0,1,2,-6
1569407305262213,-5,-1,0,-1,-1,-3,-4,-8
1569407305262213,-1,-1,-1,-1,-1,0,-2,0
1569407305284162,-7,0,0,1,0,0,-1,-14
1569407305284162,0,0,0,-1,1,0,0,5
1569407305290115,0,0,0,-1,0,1,0,5
1569407305290115,1,-1,-1,-2,-2,0,0,5
1569407305299131,-2,-2,-1,0,-1,1,1,-1
1569407305299131,1,-2,-1,0,0,-1,-4,-6
1569407305300089,3,0,0,-1,0,-1,1,0
1569407305300089,1,1,1,0,0,-4,-4,-10
1569407305322030,1,-1,0,-2,0,0,-3,-6
1569407305322030,-1,-1,-1,-2,0,-1,-1,-11
1569407305323028,2,1,0,-1,0,0,-2,-5
1569407305323028,-2,-1,0,-2,-1,0,0,-17
1569407305343970,0,-2,-2,-3,-2,2,1,-1
1569407305343970,-1,0,1,0,0,-3,-3,-3
1569407305344968,0,0,0,0,-1,1,-1,2
1569407305344968,-2,-1,-1,-2,1,-1,-2,-1
1569407305358934,2,-1,-2,-1,-1,0,0,7
1569407305358934,-3,-2,-1,0,1,0,1,0
1569407305359929,5,-3,0,0,-1,-1,2,22
1569407305359929,2,-1,-1,2,1,-1,-1,1
1569407305381871,-3,-1,0,0,0,-1,-2,8
1569407305381871,-1,-2,-1,0,-2,-1,1,-1
1569407305383905,-3,-2,-2,-1,-2,-1,-3,-1
1569407305383905,1,-1,0,-1,-1,0,1,8
1569407305404852,6,0,-2,0,-1,-1,-1,5
1569407305404852,-1,-1,0,-2,-1,2,-1,-3
1569407305404852,-1,1,-1,0,-1,-4,-5,-8
1569407305404852,5,-1,-2,-1,-1,-1,0,13
1569407305418771,-1,1,1,0,0,-3,-2,-2
1569407305418771,-2,0,-2,1,-1,2,1,1
1569407305425753,1,-1,-1,-2,0,1,3,5
1569407305425753,-5,-2,1,2,-1,-3,-3,-11
1569407305441711,1,-1,2,-1,1,0,0,1
1569407305441711,3,0,2,0,0,0,-2,12
1569407305442708,-3,-2,0,-2,0,1,1,3
1569407305442708,-6,-1,-2,-1,0,0,0,-7
1569407305464685,2,-1,0,0,-1,-2,-1,-3
1569407305464685,-7,0,0,-2,0,-3,8,-17
1569407305464685,1,0,-2,-1,1,6,4,-9
1569407305464685,-1,0,1,1,0,-4,-6,-13
1569407305478612,-1,-1,-2,-1,-2,2,4,0
1569407305478612,-3,-2,-2,-1,0,2,3,0
1569407305486591,-2,0,-1,0,-2,-2,1,1
1569407305486591,-2,0,-1,0,1,1,1,-3
1569407305501550,0,-1,-1,-1,0,-1,0,-2
1569407305501550,1,-1,-2,-3,-2,-3,-6,0
1569407305502548,-2,-1,-1,0,-1,-1,-1,5
1569407305502548,1,1,-1,1,-2,1,-6,-10
1569407305524490,-3,-1,0,0,-2,-2,-2,-3
1569407305524490,1,-1,-2,0,-1,0,-3,-6
1569407305525526,0,-1,-1,0,2,-1,-1,-4
1569407305525526,-2,-2,-2,-2,-2,2,4,-9
1569407305538450,-4,-1,0,-2,-1,0,-1,-2
1569407305538450,2,1,-1,0,-2,-2,-3,4
1569407305546429,-1,0,0,-2,-2,1,-1,1
1569407305546429,-5,-2,0,-2,-2,3,2,-7
1569407305562459,1,0,-1,0,-1,-1,-1,-4
1569407305562459,0,0,1,0,0,-1,-4,-1
1569407305562459,-2,-1,-2,0,0,0,-2,0
1569407305562459,0,-3,-2,-2,-1,-3,0,-3
1569407305584346,0,-1,-1,-1,-2,0,-1,2
1569407305584346,-1,1,1,0,0,-1,0,0
1569407305585327,1,1,0,0,1,0,0,3
1569407305585327,-1,-2,-3,-3,-2,2,1,-2
1569407305598290,0,-1,-1,1,-3,-14,-2,3
1569407305598290,-4,-3,-3,-4,0,15,-5,-9
1569407305607268,2,1,1,0,0,1,1,-2
1569407305607268,-5,-4,-1,-1,-1,-3,-2,-6
1569407305622227,-3,-4,-1,0,1,-1,1,2
1569407305622227,1,1,-2,-1,-1,-7,0,-9
1569407305622227,-29,-22,0,2,0,3,-2,11
1569407305622227,54,44,1,-2,-2,-2,2,2
1569407305644168,-4,-4,0,-1,0,2,-3,-8
1569407305644168,3,4,2,1,-2,-12,-1,5
1569407305645165,5,3,2,0,0,4,1,-2
1569407305645165,-45,-36,1,4,4,10,1,-6
1569407305659156,24,17,-3,-3,-7,-14,-3,4
1569407305659156,11,-6,-4,-3,-1,-6,-3,3
1569407305667106,-8,-3,-4,-1,-3,4,3,-1
1569407305667106,14,17,7,2,2,1,-7,15
1569407305682066,41,14,-1,-3,-2,2,-8,16
1569407305682066,-3,-3,1,1,3,2,7,1
1569407305683093,-7,-8,-4,-2,-5,-15,-5,3
1569407305683093,-13,-10,0,1,2,24,13,-7
1569407305704012,-3,2,2,3,5,14,1,-8
1569407305704012,6,11,2,1,-1,-4,-1,-1
1569407305705005,11,6,0,-4,-1,-8,-2,-3
1569407305705005,22,6,-2,1,0,-8,-5,-13
1569407305727989,-43,-22,-1,-1,7,21,7,-29
1569407305727989,-42,-29,-7,-2,-1,-2,-4,-28
1569407305728943,25,22,3,1,-2,-7,2,13
1569407305728943,8,8,-4,-2,-5,-10,-5,7
1569407305749918,-21,-2,4,3,1,1,-2,9
1569407305749918,6,2,0,-2,-1,-6,-2,15
1569407305750884,0,-3,-1,-1,1,5,-2,5
1569407305750884,-13,-9,-3,-2,-4,-8,-2,-9
1569407305764847,4,-2,2,1,3,2,9,36
1569407305764847,-21,1,1,2,9,20,-6,-6
1569407305764847,1,-3,-2,-1,-14,-13,2,-12
1569407305764847,-10,-6,-4,-4,-3,-30,-4,15
1569407305787812,30,17,1,-1,-5,-27,-2,13
1569407305787812,4,-4,-2,-2,4,29,9,11
1569407305788810,5,2,0,1,7,-10,-9,-16
1569407305788810,-19,-9,1,3,0,19,7,-10
1569407305809726,-7,-8,-1,-3,-4,-6,-2,-4
1569407305809726,16,8,-4,-4,-6,-11,-4,-1
1569407305810723,-12,-3,0,0,4,8,2,-1
1569407305810723,-2,-6,-2,0,1,0,-2,-1
1569407305824686,19,11,-4,-2,0,4,-1,-7
1569407305824686,-9,-4,-1,0,-6,-6,-1,5
1569407305825684,-17,-13,-2,-3,5,21,-1,-23
1569407305825684,3,-5,-1,-1,4,1,-2,2
1569407305846628,-3,4,-2,-2,-3,0,-2,0
1569407305846628,3,0,0,0,-1,-2,3,7
1569407305847624,-5,3,0,1,3,5,-3,-17
1569407305847624,-4,-2,-2,-2,-11,-22,1,0
1569407305869566,-6,-6,1,2,1,-1,-4,4
1569407305869566,14,8,-1,0,-3,-1,-1,4
1569407305870589,-27,-18,-1,-1,-2,-3,2,-6
1569407305870589,21,17,0,-3,-1,10,-3,-4
1569407305884554,-2,1,0,-2,0,1,1,-5
1569407305884554,-8,-7,-1,1,-2,-11,-1,-8
1569407305885523,14,4,0,0,-8,-11,-3,0
1569407305885523,-4,-1,0,1,9,6,-7,-5
1569407305906502,-10,-3,-5,-3,0,6,0,-4
1569407305906502,3,-3,-1,-1,-1,-9,-2,5
1569407305907465,3,1,-3,-2,-7,-12,-2,8
1569407305907465,-3,-1,-1,-1,0,-11,-7,-11
1569407305930404,-4,-3,-1,0,2,9,4,7
1569407305930404,-2,2,0,-2,0,-4,-2,-11
1569407305930404,9,4,-3,-3,0,6,3,7
1569407305930404,-18,-8,0,0,-2,-4,0,-5
1569407305944365,-4,-7,0,0,-1,-1,-2,-1
1569407305944365,8,5,1,1,-2,-3,-6,3
1569407305945364,-10,4,0,0,0,0,2,-23
1569407305945364,7,6,2,3,0,3,-22,-10
1569407305967343,-7,-5,0,-1,-2,-7,-4,8
1569407305967343,-2,-1,-2,-1,2,10,5,-1
1569407305968301,5,0,0,-1,4,7,2,7
1569407305968301,-4,-5,-1,-3,-1,-1,4,-1
1569407305990283,-5,-4,-4,-3,-4,-5,0,0
1569407305990283,6,6,1,0,-1,-7,-4,-2
1569407305991240,4,1,-2,2,0,11,5,6
1569407305991240,2,-4,-3,-3,-2,-3,3,15
1569407306003208,5,0,1,2,1,0,0,4
1569407306003208,1,-2,-3,-1,-2,5,9,-4
1569407306012185,1,1,0,-2,0,-6,-3,1
1569407306012185,-2,-1,0,-1,-1,0,2,-6
1569407306027182,-4,0,0,0,-1,-2,-4,-5
1569407306027182,-1,0,1,-4,-2,-6,-4,1
1569407306027182,6,0,-1,0,-2,-3,0,5
1569407306027182,-2,1,0,0,2,2,0,-10
1569407306050122,-2,-3,-2,0,0,-3,0,4
1569407306050122,-6,-4,-2,-2,-6,6,3,0
1569407306051080,4,2,-3,-2,-1,1,-2,2
1569407306051080,4,0,0,0,-1,0,-1,8
1569407306064046,-21,-12,0,1,0,3,-1,-22
1569407306064046,35,19,1,-2,-1,-6,0,5
1569407306072024,2,5,-4,-2,-2,-2,-1,9
1569407306072024,-6,-4,1,3,-1,-4,-1,4
1569407306087984,-10,-10,1,-1,3,13,0,3
1569407306087984,-1,2,2,3,-2,-5,-1,-3
1569407306087984,5,1,0,-1,-4,-3,-2,-7
1569407306087984,-1,0,-1,0,1,0,1,-7
1569407306109561,3,-1,-1,-1,-4,-5,2,8
1569407306109561,-9,-4,-1,-1,2,0,2,7
1569407306110557,7,3,1,0,-1,-3,-3,3
1569407306110557,-7,-4,-4,-3,-3,6,0,-5
1569407306123521,13,6,1,-1,-1,-5,-1,5
1569407306123521,5,3,0,1,-4,-6,-1,-3
1569407306131532,-18,-1,0,0,0,-3,4,-3
1569407306131532,-46,-24,-4,-2,0,3,-5,-20
1569407306147458,53,21,-4,-5,-5,2,-2,-7
1569407306147458,-14,4,1,0,0,-10,-6,-6
1569407306148455,55,24,5,2,-4,0,3,11
1569407306148455,-71,-30,-3,-2,0,6,2,-5
1569407306170436,-20,-12,-1,0,0,-1,3,-5
1569407306170436,-4,0,-5,-3,0,10,-1,-13
1569407306170436,10,-4,-3,-2,-1,-3,-5,7
1569407306170436,30,13,0,1,3,-4,-3,4
1569407306183363,-7,-9,-2,-3,-1,11,5,4
1569407306183363,-11,-3,2,4,0,5,0,-3
1569407306192352,11,3,-1,0,-2,-12,-5,10
1569407306192352,1,-8,-3,-2,-5,22,14,11
1569407306207297,-31,-8,2,1,4,-2,-4,-14
1569407306207297,7,-2,1,1,5,-2,-1,9
1569407306208299,-7,2,-1,-1,-6,-4,0,-5
1569407306208299,20,11,-2,-3,-1,7,6,-8
1569407306230275,20,5,3,1,-13,-26,-20,8
1569407306230275,-24,-21,-3,1,4,7,-1,-2
1569407306231234,-18,-13,-2,-3,1,4,-3,9
1569407306231234,59,40,2,-1,-3,-12,-2,2
1569407306243202,-8,-5,-5,-3,3,2,5,-1
1569407306243202,-11,-10,-2,-1,1,-4,0,-7
1569407306252220,-24,-6,1,0,1,5,2,-2
1569407306252220,9,-5,1,1,0,-7,-5,0
1569407306267138,5,7,-2,-2,0,0,3,19
1569407306267138,-5,-3,-2,-2,-2,6,1,-6
1569407306268136,-2,-7,-3,0,1,6,4,-7
1569407306268136,4,8,1,-2,-1,-8,-4,0
1569407306290076,-9,1,2,1,0,1,0,-9
1569407306290076,27,7,-1,-1,-2,-2,3,15
1569407306291111,-43,-15,-1,3,0,-1,0,-10
1569407306291111,-16,-15,-4,-2,0,-7,-5,-10
1569407306313015,24,12,-3,-4,-3,1,0,8
1569407306313015,3,1,0,-1,-4,-2,0,-1
1569407306314012,-4,-5,-3,-3,0,2,-1,-7
1569407306314012,13,4,2,2,-2,-1,-2,4
1569407306326977,-8,-6,0,-1,2,2,2,-4
1569407306326977,-13,-2,-1,-2,-3,-2,-3,-9
1569407306333958,1,1,0,-1,1,3,1,3
1569407306333958,-7,-6,-1,-1,0,-1,-2,-6
1569407306349916,-1,-2,-2,-1,-1,0,2,-2
1569407306349916,11,8,1,-1,-1,-2,-2,-2
1569407306351915,-2,-4,-1,-2,2,-1,2,5
1569407306351915,2,0,-3,-2,0,-2,-2,-1
1569407306372893,5,5,1,1,1,-1,-1,1
1569407306372893,-10,-6,-1,1,0,2,-1,0
1569407306373857,7,2,-2,-1,-1,0,1,-2
1569407306373857,2,2,1,0,-2,-3,-1,-5
1569407306385821,-5,0,0,0,0,0,1,0
1569407306385821,-2,-1,-3,-2,-1,-1,0,-3
1569407306394796,6,0,-1,-1,0,2,0,-3
1569407306394796,6,1,0,-2,0,0,1,5
1569407306409757,-9,-4,0,-2,0,0,-2,-11
1569407306409757,1,1,-1,-1,-1,-3,-2,-3
1569407306411752,8,4,0,0,-1,0,0,5
1569407306411752,-14,-2,1,0,1,0,-2,-8
1569407306432704,-2,-3,-1,-1,0,1,0,-3
1569407306432704,3,0,1,-1,0,-1,-4,2
1569407306433695,-1,1,-1,0,-1,-1,-3,1
1569407306433695,-1,-1,-2,0,0,-1,-2,-5
1569407306446659,-9,-1,-1,0,-1,-1,-1,-13
1569407306446659,6,-1,-1,0,-1,-1,1,3
1569407306455634,-1,0,-2,-1,0,-1,1,5
1569407306455634,1,1,-2,-1,0,-1,-3,-6
1569407306469597,7,1,-2,0,0,0,3,21
1569407306469597,-2,-2,0,-1,1,0,-1,-4
1569407306471591,-1,0,0,-1,-1,-1,-1,-5
1569407306471591,1,-2,-1,-1,-2,0,-1,0
1569407306492535,-1,-1,0,0,1,0,-1,6
1569407306492535,-2,-1,-1,0,-1,-3,0,-4
1569407306494530,5,0,-2,-1,-2,1,0,1
1569407306494530,0,1,0,0,0,0,1,-5
1569407306506537,4,-2,-1,-3,-6,-10,-1,-5
1569407306506537,-5,-3,-2,-1,0,-2,0,5
1569407306513515,7,2,1,0,0,0,3,13
1569407306513515,-3,0,0,1,0,0,-2,-8
1569407306530472,9,0,0,0,0,4,2,22
1569407306530472,-3,1,-1,0,-1,1,-3,-10
1569407306531431,1,0,0,-1,-1,-2,1,2
1569407306531431,-1,-1,-1,-1,-1,-2,0,-2
1569407306552376,-4,-1,-1,1,0,0,0,3
1569407306552376,-1,0,-1,-1,-1,1,0,3
1569407306554372,-1,-3,-1,-2,0,9,4,1
1569407306554372,0,1,0,-3,-2,-1,-2,3
1569407306567336,-3,-1,0,0,0,1,-1,-5
1569407306567336,0,0,-2,0,-1,0,0,0
1569407306581336,-3,0,-1,-1,-3,-2,-1,-13
1569407306581336,4,0,0,-1,2,13,6,9
1569407306590273,-5,-2,-1,-3,-5,-22,-7,-17
1569407306590273,5,-2,-3,-1,-1,-3,1,11
1569407306591276,0,0,0,-1,0,-3,-1,0
1569407306591276,5,0,-1,0,-2,-2,-1,14
1569407306612215,-1,1,-1,3,2,8,4,-2
1569407306612215,-5,0,0,0,-1,0,0,-10
1569407306614210,-2,-1,-1,0,-1,-5,-3,-8
1569407306614210,-2,0,-2,-1,-2,-3,-2,-2
1569407306627217,-5,-1,-1,-2,0,4,-1,1
1569407306627217,3,-1,1,-1,-3,-2,-3,1
1569407306634157,-2,-1,0,1,-1,1,0,-1
1569407306634157,-3,-1,0,-1,1,-3,-4,-9
1569407306650114,2,-1,-1,0,0,2,1,5
1569407306650114,-5,0,-1,-1,2,0,0,-11
1569407306652108,4,-1,-2,-1,0,-2,-1,12
1569407306652108,-1,-2,-1,-1,-2,-2,-1,-4
1569407306672097,3,0,-1,-1,0,2,2,2
1569407306672097,-2,-1,0,-2,0,2,-1,-8
1569407306674049,-3,1,2,1,0,-2,-5,-18
1569407306674049,1,1,1,1,-2,-6,-1,12
1569407306687055,1,0,-2,-2,2,11,3,5
1569407306687055,-2,-2,-1,-2,-4,-10,-3,-5
1569407306694040,0,-2,-1,-2,0,4,0,-1
1569407306694040,-7,-2,-1,-1,-1,-7,-3,-14
1569407306709995,-2,-1,1,-3,1,-2,-2,1
1569407306709995,2,-1,-1,-1,-1,3,1,7
1569407306711948,4,1,-1,-1,0,-1,3,8
1569407306711948,-4,-1,0,1,-1,-1,-2,-5
1569407306732894,-3,-3,1,1,-2,-1,-3,-5
1569407306732894,-8,-3,-2,-3,1,3,13,-12
1569407306733890,3,3,1,1,-1,-7,-14,3
1569407306733890,2,-2,-3,-2,1,1,1,9
1569407306746898,-8,0,-1,1,-2,-7,-11,-30
1569407306746898,0,0,-1,2,0,3,1,10
1569407306753874,2,1,0,1,-1,-1,0,-8
1569407306753874,-12,-5,-4,-3,0,6,21,-17
1569407306769794,7,0,-2,-2,-2,2,5,44
1569407306769794,1,1,2,0,1,-3,-6,11
1569407306771791,-1,-2,-3,-2,0,0,-8,-6
1569407306771791,-9,-3,0,0,0,-1,-7,-23
1569407306792732,1,1,0,-1,-1,5,8,-3
1569407306792732,4,0,-1,0,-4,-15,-3,8
1569407306793731,-8,-3,-2,-1,3,3,5,-3
1569407306793731,1,-1,1,-2,1,5,0,-5
1569407306806697,-5,-1,-1,1,0,-6,1,-2
1569407306806697,2,1,0,-1,-3,1,-6,0
1569407306814674,-5,0,-2,1,-1,-3,-1,-7
1569407306814674,2,0,2,0,0,-1,-8,2
1569407306829676,-8,-2,-3,-2,-3,0,20,-24
1569407306829676,21,7,3,3,5,4,-30,59
1569407306836615,-7,-2,-2,-3,-3,0,11,-5
1569407306836615,17,5,0,1,1,2,-2,54
1569407306852572,19,6,5,4,4,4,-13,58
1569407306852572,-6,-3,-3,0,1,6,16,-2
1569407306854573,0,2,0,-1,0,0,0,14
1569407306854573,3,-1,-1,-1,-3,-6,-6,-4
1569407306866536,-9,-4,-2,-2,-1,-2,-2,-28
1569407306866536,-1,-2,-2,-2,0,0,5,-9
1569407306875511,4,3,2,0,0,1,-8,5
1569407306875511,-7,0,0,1,-2,-3,1,-25
1569407306890471,-1,-2,-2,-1,-2,0,-1,4
1569407306890471,-9,-3,-1,-3,-2,1,0,-26
1569407306891469,-4,-3,-3,-2,-2,-1,3,-9
1569407306891469,3,-1,-1,-2,-3,-7,-3,2
1569407306912412,5,-1,-2,-2,1,4,1,6
1569407306912412,-9,-2,-2,0,-2,-2,-4,-15
1569407306914443,0,0,0,-1,0,0,2,-10
1569407306914443,0,-1,-3,-1,0,-1,-3,-2
1569407306926413,-1,2,1,0,0,-3,-7,-2
1569407306926413,-1,-1,-1,-1,0,6,5,-11
1569407306935351,1,-1,1,0,-3,-11,-6,-5
1569407306935351,-3,-3,-1,1,0,2,9,-17
1569407306950311,-9,-4,-3,-1,-2,0,-2,-17
1569407306950311,-5,-2,-1,-2,2,2,2,-6
1569407306951310,-3,-1,0,0,-2,3,-1,-7
1569407306951310,6,1,0,0,0,-8,-11,-1
1569407306972252,0,-1,-2,-2,0,6,5,0
1569407306972252,0,0,-3,-1,-1,-4,1,-1
1569407306974248,1,1,-1,0,3,0,-8,9
1569407306974248,-10,-3,-3,-1,-2,-1,10,-6
1569407306986216,2,5,4,3,1,3,-16,20
1569407306986216,5,1,1,0,-1,-5,-7,2
1569407306995193,-1,-2,-1,-2,-1,0,2,-3
1569407306995193,-3,-1,2,-2,0,8,0,-21
1569407307010152,0,0,1,-1,-1,-8,2,-7
1569407307010152,-2,-1,-2,1,1,12,6,-2
1569407307011149,-5,-1,-3,-2,-6,-14,0,-3
1569407307011149,-1,2,-1,-1,-1,0,-12,7
1569407307032112,8,-3,-3,-1,0,-3,4,15
1569407307032112,7,2,2,1,-2,-4,-6,6
1569407307034088,3,-2,0,0,4,5,-5,4
1569407307034088,-4,-1,1,0,-3,-2,-3,-1
1569407307046089,-1,-1,-2,-1,-2,-4,-2,-12
1569407307046089,1,2,0,-1,4,13,10,3
1569407307055033,0,-1,-2,2,0,-1,0,0
1569407307055033,1,-1,-3,-1,2,1,-1,4
1569407307069992,1,0,0,1,-4,-10,-5,-3
1569407307069992,-8,-4,-1,-3,-1,-7,-2,-17
1569407307071991,-4,-3,-2,-3,-2,5,-1,-8
1569407307071991,-1,-3,-4,-1,4,4,0,-2
1569407307092931,-6,-4,0,-1,-2,-5,13,-1
1569407307092931,-6,-2,0,1,-2,-1,-7,-3
1569407307093928,5,3,2,0,-3,-7,-10,31
1569407307093928,4,1,0,1,-2,-4,-2,7
1569407307114872,-1,-1,-1,0,0,0,-3,9
1569407307114872,0,-1,-2,-1,0,-2,2,-2
1569407307116908,-2,-3,0,-1,-3,-4,3,-10
1569407307116908,-2,-2,-1,-1,-2,-2,-1,-4
1569407307129831,-2,0,-1,-3,-1,1,-1,-9
1569407307129831,-2,-1,-1,-2,-3,-9,-2,-3
1569407307131858,2,-1,-1,2,6,11,8,-4
1569407307131858,-8,-1,0,-1,-4,-2,-1,-13
1569407307152770,4,-1,0,1,0,5,-15,10
1569407307152770,3,-1,-2,-1,-2,-14,-3,4
1569407307153804,0,1,0,0,0,1,-1,-3
1569407307153804,2,2,1,-1,2,1,0,2
1569407307165773,-5,-3,-2,-1,-4,0,5,-8
1569407307165773,-7,-1,-1,-1,-2,-1,3,-10
1569407307174711,-2,-1,-1,0,-1,-1,-2,-4
1569407307174711,1,-2,-1,-2,0,-3,1,3
1569407307189674,0,1,-1,-2,0,0,3,5
1569407307189674,0,-1,-3,0,0,3,2,2
1569407307191667,-2,1,-2,-3,1,-2,4,-9
1569407307191667,1,3,3,3,-1,-3,-6,1
1569407307212611,5,1,1,-2,1,2,7,9
1569407307212611,2,2,0,0,0,-1,-3,3
1569407307214606,-2,1,-1,1,-1,-3,1,-3
1569407307214606,2,1,-1,0,-2,-2,3,8
1569407307226601,-2,-2,-1,-3,2,2,1,-13
1569407307226601,2,-2,0,0,-2,-9,-4,2
1569407307235550,-2,-1,-1,-1,2,7,0,-1
1569407307235550,-1,-2,-1,-1,2,-8,-4,-5
1569407307250510,0,-3,-4,-2,-8,2,17,19
1569407307250510,3,2,0,1,2,-4,-4,-4
1569407307251507,-2,-3,-1,-1,-1,-3,-1,-7
1569407307251507,-1,-1,0,0,-1,-2,1,2
1569407307272451,0,1,1,0,1,3,-3,-5
1569407307272451,-7,-2,0,1,-2,6,1,-6
1569407307274448,0,-1,-1,2,-2,-6,-3,-1
1569407307274448,2,-1,-2,-1,1,5,-3,7
1569407307295389,-2,-1,-2,-1,-1,-4,-1,-6
1569407307295389,1,1,1,-1,0,1,1,2
1569407307296391,2,0,0,0,0,1,1,3
1569407307296391,2,-1,-1,-2,0,2,1,-2
1569407307310349,0,0,-1,1,2,0,-3,4
1569407307310349,-2,-2,-2,-2,2,8,1,-14
1569407307311346,-4,-1,-1,-1,-2,-4,1,-3
1569407307311346,4,2,1,0,-1,-1,0,6
1569407307332332,-7,-4,-1,-1,-2,-3,6,-17
1569407307332332,5,3,3,0,-4,-3,-16,31
1569407307334299,3,0,-1,-2,3,19,-3,22
1569407307334299,-10,-5,-2,-3,-13,-29,-11,-17
1569407307355230,-2,1,-2,2,1,-6,-5,-8
1569407307355230,-7,-5,-2,-2,-2,15,15,-2
1569407307356382,-5,0,0,0,-1,-20,-5,-20
1569407307356382,2,2,0,2,2,10,6,1
1569407307370189,-10,-2,1,0,-4,-11,-8,-19
1569407307370189,-6,-4,-5,-4,-4,-15,-16,-11
1569407307371216,3,0,0,1,3,17,2,-6
1569407307371216,3,0,-1,0,4,5,7,13
1569407307392130,1,3,2,3,6,9,-19,15
1569407307392130,-6,-5,-4,-1,-1,-5,3,-39
1569407307394128,7,-1,-2,-3,-1,-2,0,24
1569407307394128,3,1,-1,-2,0,1,-8,4
1569407307415069,-8,-2,2,1,-3,-9,-15,-18
1569407307415069,21,7,4,2,5,-1,2,45
1569407307417065,-15,-5,-5,-4,-5,-2,21,-30
1569407307417065,13,2,2,3,3,3,-2,20
1569407307429072,0,0,-2,-1,-1,2,2,-3
1569407307429072,2,2,1,3,11,7,11,5
1569407307436014,-7,-8,-3,-5,-24,-9,0,-17
1569407307436014,8,7,1,2,1,3,-1,22
1569407307452971,-5,-7,-3,0,-3,-3,-7,1
1569407307452971,11,3,-1,2,4,33,1,27
1569407307453967,-8,0,-1,0,-2,-29,-11,-20
1569407307453967,-3,-3,1,-2,2,8,-1,-4
1569407307474909,4,3,1,-1,1,2,9,-18
1569407307474909,-23,-8,-2,-6,-17,-21,2,-27
1569407307476904,0,-6,-1,2,0,-20,-15,6
1569407307476904,-11,3,-4,-4,-1,1,8,-32
1569407307488871,6,-5,1,1,1,-4,14,31
1569407307488871,3,2,-2,-2,-1,-13,-8,-14
1569407307495893,6,-3,0,-1,1,17,8,-6
1569407307495893,12,11,1,1,-2,1,1,8
1569407307512807,-5,-6,0,-2,1,7,2,10
1569407307512807,-35,-19,-3,-1,-10,-34,-5,-13
1569407307513808,64,29,5,4,4,15,7,38
1569407307513808,-39,-16,-7,-3,-3,-42,-25,-25
1569407307534749,5,0,-3,-7,3,29,1,8
1569407307534749,-5,3,4,-1,0,14,0,-29
1569407307536746,-6,-6,1,2,10,5,4,-13
1569407307536746,-45,-25,-6,-3,-9,14,5,-13
1569407307549710,19,11,0,3,-4,-20,1,8
1569407307549710,-6,-2,0,8,24,17,0,-21
1569407307556692,29,8,0,3,4,3,1,11
1569407307556692,-65,-28,-4,2,16,11,16,-30
1569407307572690,1,1,3,1,5,-13,-4,5
1569407307572690,63,32,-1,-6,-11,6,6,36
1569407307574643,-15,-4,1,-2,0,-5,-14,-1
1569407307574643,16,-15,-8,-4,-15,-12,-5,26
1569407307595659,-20,3,0,-5,6,36,13,-21
1569407307595659,24,7,3,4,-7,-21,2,16
1569407307596584,-93,-63,-11,-3,7,-11,-8,-26
1569407307596584,65,51,1,-1,5,29,4,-14
1569407307609615,6,-12,-7,-3,-1,-25,-9,-7
1569407307609615,-8,3,-3,2,15,33,0,0
1569407307616857,-9,3,1,-4,-22,-10,-7,1
1569407307616857,25,-1,7,3,10,7,0,5
1569407307633492,-28,-19,-5,-1,-23,-7,-7,-9
1569407307633492,7,5,4,-8,-6,-10,-2,-8
1569407307634831,16,30,-4,1,4,-1,-9,-7
1569407307634831,-16,-11,4,10,21,9,6,7
1569407307655773,0,13,3,-2,-7,3,-1,-3
1569407307655773,67,19,8,5,-3,-5,8,42
1569407307656425,57,10,-6,-11,-14,8,1,-10
1569407307656425,92,31,4,-2,-9,5,7,30
1569407307670426,-64,-30,-7,3,11,-20,-17,-33
1569407307670426,-10,-6,-1,-1,-4,8,6,22
1569407307676761,-8,6,2,1,6,2,2,-8
1569407307676761,-4,-6,-1,0,-2,-1,-1,5
1569407307693378,27,16,2,2,1,1,8,9
1569407307693378,-34,-15,-7,-5,-4,-10,-10,-18
1569407307694326,-19,-3,0,0,-3,-5,-1,-5
1569407307694326,-18,-7,-2,-1,-4,-7,-6,-1
1569407307715746,5,2,-1,-3,-6,-3,3,13
1569407307715746,-23,-12,-7,-4,-7,-12,-14,-6
1569407307717595,4,1,3,3,-1,-2,-2,-21
1569407307717595,-15,-3,1,0,-6,-7,-3,-7
1569407307730337,18,8,-1,-1,1,4,6,6
1569407307730337,-13,-4,-2,-1,-4,-2,-4,-24
1569407307736213,1,-1,3,2,9,5,4,13
1569407307736213,-15,-3,-3,-4,-6,-9,-4,-8
1569407307753195,12,2,0,-2,-3,-6,-4,3
1569407307753195,-20,-7,-2,0,3,3,1,-31
1569407307754244,6,1,1,1,-1,-3,-16,21
1569407307754244,-5,-3,-3,-3,-4,-7,-1,-1
1569407307775108,2,1,0,2,3,4,1,3
1569407307775108,1,-5,-1,0,-1,-10,-4,-9
1569407307777103,-12,-4,-2,-5,-2,20,14,-11
1569407307777103,2,-1,-2,-2,3,-8,-14,-17
1569407307789520,6,5,3,1,2,1,-1,10
1569407307789520,-2,-3,-2,1,-3,-4,-2,6
1569407307798046,-8,-3,0,0,-2,1,-3,-5
1569407307798046,2,0,-1,-2,0,2,3,13
1569407307813426,1,0,0,-2,-1,0,2,-4
1569407307813426,-5,-1,-2,-2,-1,-9,-3,3
1569407307815088,1,0,-2,2,4,5,4,11
1569407307815088,-4,0,2,-1,-3,2,5,-2
1569407307835397,7,2,-1,1,3,10,-2,5
1569407307835397,-3,-2,-3,-1,-2,-1,3,7
1569407307836944,-2,-1,0,1,3,-3,-3,-4
1569407307836944,0,1,0,-1,-3,-10,-5,3
1569407307849360,4,0,-1,2,8,19,10,-5
1569407307849360,1,-2,1,0,10,11,4,11
1569407307857889,-4,-2,-1,-7,-16,-10,2,-3
1569407307857889,-2,-2,-1,-3,-4,-3,-1,-2
1569407307873278,5,-1,0,-1,-5,-8,-2,6
1569407307873278,-4,-3,0,0,0,5,2,0
1569407307873844,-1,0,0,1,7,-2,1,1
1569407307873844,-2,-1,-1,0,-2,-2,0,5
1569407307896002,1,-2,-1,-1,-4,-5,-3,-2
1569407307896002,-2,-1,-1,0,0,3,3,-1
1569407307896783,-3,-2,-2,0,-1,-4,3,-2
1569407307896783,-8,-3,-1,-3,-3,4,13,-21
1569407307908750,1,0,0,0,0,-1,-1,0
1569407307908750,1,-5,-2,-1,-2,0,0,13
1569407307917821,-6,-1,-2,-1,0,-3,7,-10
1569407307917821,1,-5,-1,0,1,3,6,14
1569407307933103,-6,0,-1,-3,-2,-3,-1,-47
1569407307933103,5,2,1,-1,-3,0,-2,22
1569407307935111,6,3,3,4,2,-7,-23,39
1569407307935111,-2,-3,2,2,2,3,-8,-3
1569407307955989,5,6,-4,-4,-13,-17,-6,15
1569407307955989,-6,-7,-2,-2,-2,0,4,1
1569407307956625,-1,1,-1,1,1,0,-13,-17
1569407307956625,2,1,2,1,1,1,1,12
1569407307969000,-1,-2,0,1,1,3,-10,-9
1569407307969000,4,2,-2,-1,-2,-1,-3,21
1569407307977838,0,-2,0,0,1,0,6,0
1569407307977838,-4,0,-2,0,-2,1,-3,-6
1569407307992527,-1,-6,-1,0,1,3,6,5
1569407307992527,-1,1,-1,-1,-1,-2,0,-9
1569407307994521,-2,-1,-1,-1,-1,4,0,-12
1569407307994521,6,3,0,0,1,-2,-10,19
1569407308015935,-5,-3,-1,-1,2,-1,5,3
1569407308015935,0,1,1,0,-2,0,-1,-8
1569407308017603,2,-2,1,-1,0,1,-2,3
1569407308017603,-4,0,-2,-1,-2,-2,-1,-15
1569407308029403,-2,-1,0,1,-1,-1,0,2
1569407308029403,-5,0,-2,-1,-2,-1,4,-7
1569407308037959,-6,-2,-2,-1,0,0,3,-14
1569407308037959,7,0,-1,-1,0,-2,1,13
1569407308052882,-2,-2,-2,-3,2,1,3,-8
1569407308052882,-3,0,0,0,-1,-1,-7,-6
1569407308054270,-1,-2,-2,-2,0,1,4,-2
1569407308054270,-2,-1,0,-1,-1,0,-3,0
1569407308075919,-5,-2,-3,-1,-1,6,7,-4
1569407308075919,-4,-2,-1,0,-5,-9,-4,-14
1569407308076817,3,-2,-2,-2,4,2,2,6
1569407308076817,-2,-2,-2,-3,-7,-2,0,0
1569407308089104,5,1,2,2,2,5,7,16
1569407308089104,-2,1,1,0,0,3,0,-5
1569407308097759,-1,1,0,1,1,-2,3,-2
1569407308097759,1,1,0,0,1,0,-4,5
1569407308113169,1,-3,-2,0,4,9,-6,1
1569407308113169,-2,-2,-2,-3,-9,-9,2,10
1569407308113718,0,0,0,2,-2,-5,-2,-6
1569407308113718,-2,3,1,-1,2,1,1,-7
1569407308135106,13,5,1,3,0,0,-2,45
1569407308135106,-6,-3,-3,-2,3,7,5,-14
1569407308136656,-5,-4,-2,-2,-3,-7,13,-15
1569407308136656,0,-1,0,0,-5,-4,-2,0
1569407308149077,-3,-1,-1,-2,-1,-2,-3,-7
1569407308149077,2,0,1,-1,1,-1,-2,4
1569407308157887,-3,-1,0,-1,-1,0,0,-5
1569407308157887,0,-1,-1,0,5,2,1,-4
1569407308173423,-4,-1,0,-2,-2,-8,-2,-8
1569407308173423,2,2,1,-2,0,-6,-6,-9
1569407308173983,13,5,3,2,0,-4,-11,18
1569407308173983,0,0,-1,0,0,-1,-2,0
1569407308195376,-1,-3,-3,-2,7,38,7,-2
1569407308195376,2,0,1,0,-8,-19,-1,1
1569407308197381,-4,-1,-2,-3,-1,3,-2,-3
1569407308197381,0,0,-1,0,-3,-4,-5,-13
1569407308225312,1,-1,-2,0,-1,3,2,16
1569407308225312,0,0,-1,0,3,9,5,1
1569407308226864,-3,1,0,-1,-2,2,-2,-3
1569407308226864,2,0,1,1,-1,-6,3,6
1569407308233253,2,4,2,1,-8,-14,-16,-10
1569407308233253,-1,-1,-2,1,4,6,4,3
1569407308235122,6,-1,-2,0,-3,-5,-3,16
1569407308235122,-1,-3,-1,0,0,0,0,-1
1569407308255224,-4,-3,0,-1,-4,-14,-2,-11
1569407308255224,3,0,1,1,4,11,0,3
1569407308256803,-7,-2,-1,-1,-5,-17,-3,-9
1569407308256803,-1,-1,-1,-1,-5,5,7,6
1569407308278135,-2,-2,0,1,-2,-8,-1,-9
1569407308278135,0,0,-1,1,0,-4,-2,3
1569407308278703,-1,-2,-1,0,2,6,2,-3
1569407308278703,-3,-1,-1,-1,-2,6,-3,-3
1569407308293059,1,-1,-1,-1,-4,-12,0,13
1569407308293059,1,-1,0,-2,-1,2,5,-3
1569407308293663,0,0,0,0,0,4,-3,-1
1569407308293663,-2,-1,-3,-1,-1,-5,-2,2
1569407308315971,-4,0,2,0,2,0,-1,-18
1569407308315971,1,-3,-1,-1,-1,1,0,7
1569407308317656,-3,0,0,-1,0,1,-2,-8
1569407308317656,1,0,-1,0,1,1,-1,-3
1569407308337989,0,-4,-1,0,6,6,1,-6
1569407308337989,-5,0,1,-1,-4,-5,-1,-4
1569407308339540,1,-1,-3,0,1,-2,2,-9
1569407308339540,0,0,1,0,1,-4,-2,10
1569407308352546,5,1,-1,-1,0,-2,-13,4
1569407308352546,-1,0,-2,-2,-3,-3,-3,6
1569407308354513,-2,-2,0,1,3,5,-2,-6
1569407308354513,2,-2,0,-1,5,10,0,5
1569407308375825,-5,-1,-2,-3,-15,-20,2,-2
1569407308375825,1,1,-1,0,1,2,-4,-1
1569407308377609,1,1,0,-1,-3,-1,0,-4
1569407308377609,-3,-2,0,-1,3,-3,2,-4
1569407308397838,-4,-3,-1,-2,0,2,3,-7
1569407308397838,1,-1,-1,0,-1,0,2,2
1569407308399379,-6,-2,0,0,6,14,2,-10
1569407308399379,2,0,0,0,-3,-4,5,4
1569407308412776,-5,-1,-3,0,2,-2,3,-5
1569407308412776,-5,0,-1,1,-1,0,-16,3
1569407308418793,8,1,2,2,2,7,2,18
1569407308418793,-1,0,1,-2,-3,-5,-6,6
1569407308435283,2,1,1,-2,3,7,2,0
1569407308435283,-3,-3,-2,0,2,6,4,-9
1569407308436339,-1,-1,-2,-2,-2,-5,-1,1
1569407308436339,-11,-4,-4,-1,-5,-6,9,-48
1569407308457696,10,4,2,2,-1,-10,-1,24
1569407308457696,-5,-3,-4,-3,0,3,5,-3
1569407308460217,-1,-2,-2,-2,-5,-2,-2,-4
1569407308460217,-3,0,3,2,-2,-3,-5,-5
1569407308472625,-5,-1,-1,0,0,-2,-2,-11
1569407308472625,0,-2,-1,-1,-1,-1,5,3
1569407308479614,0,-2,-1,-1,-2,-4,-2,1
1569407308479614,5,1,-2,-1,2,3,-2,11
1569407308495593,-6,-4,-2,-2,-1,2,-2,-8
1569407308495593,2,0,1,-1,0,7,-1,2
1569407308501521,-8,-3,-2,-2,-3,-5,8,-17
1569407308501521,1,-2,-1,-1,0,2,-2,10
1569407308526040,3,-1,-2,-1,-2,-8,-4,6
1569407308526040,-2,-2,0,0,4,-8,1,-3
1569407308527529,2,3,2,1,-9,-2,2,4
1569407308527529,1,0,-2,0,-3,1,-2,2
1569407308532442,0,-1,1,1,-2,-8,-1,3
1569407308532442,-10,-3,-3,-2,1,12,0,-15
1569407308539474,0,1,0,2,1,0,-4,1
1569407308539474,3,0,1,-1,0,-6,-3,15
1569407308555412,-3,-2,-2,-1,0,7,-1,-8
1569407308555412,4,0,-2,0,-3,-9,-2,9
1569407308556960,-3,-2,-1,-1,1,0,-7,-11
1569407308556960,-1,-1,-1,-1,-3,2,2,3
1569407308578371,-3,0,-1,0,0,-2,-1,-2
1569407308578371,0,0,2,-3,-4,-4,0,4
1569407308578900,1,-1,-2,-1,2,6,-2,-5
1569407308578900,-1,0,-1,1,0,-3,-2,-2
1569407308592331,1,0,-1,0,0,3,1,1
1569407308592331,2,0,1,-2,-1,-9,-1,3
1569407308599301,2,1,0,0,5,7,2,9
1569407308599301,-5,-1,-1,-2,-4,-6,-6,-12
1569407308615245,3,-2,-2,-2,-1,3,1,4
1569407308615245,1,1,-1,1,-3,-10,-1,2
1569407308616848,-2,-3,1,-1,-3,-7,-4,-4
1569407308616848,0,-1,0,-2,2,3,0,3
1569407308638103,2,1,-1,1,-1,-4,0,0
1569407308638103,0,-1,-1,0,-2,2,0,17
1569407308638740,1,-2,-1,-1,2,2,-2,11
1569407308638740,2,-1,1,1,1,-1,1,7
1569407308652138,-1,2,0,1,2,10,2,-2
1569407308652138,2,-1,0,-1,1,4,3,-2
1569407308659145,-5,-1,-1,-1,0,5,-1,-7
1569407308659145,-1,0,-2,-1,-3,-11,1,4
1569407308675096,-1,-1,-1,-1,2,10,-2,-2
1569407308675096,-2,-2,-2,-2,0,-3,-1,-5
1569407308676741,-2,0,0,0,-1,-2,-2,-2
1569407308676741,0,-1,-1,-1,-1,2,1,0
1569407308698010,-2,0,0,0,-2,-6,0,-4
1569407308698010,0,1,-1,-1,-1,3,0,0
1569407308699599,-1,-1,1,-2,-2,-3,-2,-6
1569407308699599,1,-1,-2,-1,-1,3,-1,2
1569407308711971,-1,0,-1,-1,-1,-3,0,0
1569407308711971,2,-1,-1,0,-2,3,1,2
1569407308720723,0,-1,-3,0,-3,-7,-2,-5
1569407308720723,-1,-2,-2,0,-2,3,-3,2
1569407308735152,-3,-2,-2,1,-1,-2,1,3
1569407308735152,-3,1,0,0,-2,-3,-3,-13
1569407308736684,4,-1,1,1,0,-2,0,5
1569407308736684,1,-1,1,-2,0,4,3,7
1569407308758077,-4,-2,1,-1,0,-4,-1,1
1569407308758077,1,0,3,2,-1,-4,-4,-10
1569407308760058,-4,-1,0,0,-2,-1,-5,-4
1569407308760058,1,0,-1,0,1,2,-1,3
1569407308772173,0,-2,-2,-2,-2,-2,1,9
1569407308772173,-3,1,-1,-1,0,-2,-11,10
1569407308780383,3,1,-1,-1,-1,-5,-12,9
1569407308780383,-5,-2,-4,-2,0,3,2,-6
1569407308795465,-1,1,3,1,-4,-6,-7,0
1569407308795465,2,-1,0,-4,-2,0,3,2
1569407308797005,1,0,-3,-1,0,3,12,28
1569407308797005,-2,0,0,-2,-1,-1,-8,-8
1569407308818413,0,-1,-2,-1,-1,0,1,-5
1569407308818413,2,-1,-3,-1,-1,2,6,5
1569407308818948,-2,0,0,-2,-2,-3,-2,-15
1569407308818948,-1,-1,0,0,1,1,3,-3
1569407308832167,2,-2,-2,-1,-2,-1,1,10
1569407308832167,-1,-2,-1,-1,-1,-2,-3,-6
1569407308840322,-4,-2,-2,0,0,1,7,-9
1569407308840322,1,1,1,-1,-2,-1,-2,4
1569407308855302,-4,-1,-1,-2,6,5,1,-10
1569407308855302,-2,-1,0,2,2,0,-1,-3
1569407308856845,-1,-5,-4,-4,-15,-6,1,8
1569407308856845,-9,-1,-1,-1,-1,1,4,-12
1569407308878517,5,-2,-2,0,-2,0,3,21
1569407308878517,0,-2,-3,-1,3,2,7,8
1569407308880189,-1,0,-1,2,4,1,-7,-9
1569407308880189,-2,0,0,1,-2,-1,-5,-11
1569407308891685,-2,-3,-1,0,1,0,2,-11
1569407308891685,10,7,4,3,4,3,7,31
1569407308900659,11,-1,0,-2,0,-2,1,2
1569407308900659,3,1,1,0,-3,-3,3,10
1569407308915977,-2,1,0,-2,-2,0,-3,-16
1569407308915977,-2,-3,-1,-1,-4,-1,-1,-10
1569407308917679,5,1,-1,-2,-1,-1,2,17
1569407308917679,4,1,-1,-2,2,0,-1,7
1569407308938015,-6,-2,1,1,-2,-4,-4,-8
1569407308938015,2,1,0,-2,-4,-3,-2,-11
1569407308939558,-8,-2,-1,1,1,1,-1,-16
1569407308939558,2,-2,-6,-1,1,1,0,14
1569407308951960,-10,-4,0,-2,-4,-4,1,-6
1569407308951960,-4,-1,0,-2,-5,-4,-1,3
1569407308960500,-1,0,-1,-1,1,3,2,-4
1569407308960500,-5,0,-2,-2,1,-8,-1,4
1569407308975948,-5,0,-2,-2,-5,-6,2,-3
1569407308975948,5,-3,-1,0,-2,-3,-6,0
1569407308976458,-3,-1,-1,0,-2,-7,1,-12
1569407308976458,1,-1,-1,0,6,10,-3,10
1569407308997819,3,-2,-4,-4,-5,-1,-4,-5
1569407308997819,-9,-2,-1,-1,3,-6,-3,-23
1569407308999396,-4,1,1,0,0,8,12,2
1569407308999396,6,-1,0,2,9,1,6,23
1569407309011787,7,2,-1,0,-3,23,6,-3
1569407309011787,-4,0,1,1,-12,-49,-17,-2
1569407309020339,-10,-2,-2,-2,10,21,6,-27
1569407309020339,4,2,0,2,1,-14,8,4
1569407309035474,-6,1,4,4,4,-11,-25,-19
1569407309035474,4,5,0,1,-2,15,2,35
1569407309036297,-4,-8,-4,-4,-8,-9,-13,-10
1569407309036297,-11,-2,-1,-1,-2,1,14,-22
1569407309057712,-5,-5,-1,-2,2,5,5,-5
1569407309057712,21,6,0,1,8,6,-13,27
1569407309059306,-6,2,3,2,-2,-11,-2,-15
1569407309059306,-1,-4,-2,-3,-9,0,-15,-11
1569407309071675,-2,-1,-2,-3,-7,-16,1,-21
1569407309071675,-10,-5,-3,-3,3,9,6,-32
1569407309080354,10,2,1,2,6,4,4,16
1569407309080354,3,3,3,2,-7,-7,-10,-6
1569407309095620,-9,0,-2,0,0,-4,-4,-13
1569407309095620,-5,-4,-3,-2,0,0,5,-13
1569407309097137,0,-2,-2,-1,-2,-3,-8,7
1569407309097137,10,-2,-2,-2,-3,5,9,6
1569407309118001,9,3,0,0,2,-5,7,19
1569407309118001,0,-2,-2,-2,-3,6,10,2
1569407309119610,-2,-3,-5,-5,0,1,4,-1
1569407309119610,-6,0,2,1,-5,-4,-28,-2
1569407309131981,1,-3,1,0,5,4,14,7
1569407309131981,-6,-2,-2,1,4,25,11,9
1569407309140518,-1,1,0,-2,-1,-27,-7,8
1569407309140518,-3,-3,-3,-3,-6,-5,-8,-12
1569407309155293,7,2,0,1,0,4,2,19
1569407309155293,-1,-3,1,0,-3,-11,3,-3
1569407309156867,4,0,2,2,3,6,0,-10
1569407309156867,-9,-5,-5,-4,2,5,2,2
1569407309178516,-5,4,5,4,1,-2,8,-19
1569407309178516,8,2,0,-2,-5,1,-15,3
1569407309180113,-3,2,1,-1,-6,-3,-7,-9
1569407309180113,-3,0,-1,-2,0,-6,1,-20
1569407309200983,0,-4,-5,-4,-2,5,-9,-1
1569407309200983,1,0,0,0,5,-2,-1,2
1569407309201820,-8,0,1,-1,-1,2,-5,-2
1569407309201820,9,6,3,3,0,2,2,6
1569407309215894,8,0,-3,-1,4,-1,1,32
1569407309215894,-6,-1,-3,-1,-2,4,2,-11
1569407309216788,1,1,1,-1,-4,-5,0,1
1569407309216788,-2,-1,-2,-2,0,4,6,4
1569407309238162,-2,-2,-4,-1,-1,3,-3,0
1569407309238162,2,-1,0,0,-6,-23,-20,13
1569407309238721,2,-2,0,1,6,17,1,8
1569407309238721,4,0,0,0,3,5,8,21
1569407309260532,-1,-1,0,-1,1,-12,-11,-1
1569407309260532,1,-1,-2,-1,-6,6,7,-5
1569407309261119,3,1,-3,1,-1,-1,-2,8
1569407309261119,-6,-2,0,-1,0,-6,-4,-12
1569407309276122,3,0,0,0,0,2,-2,4
1569407309276122,-3,-2,0,-3,2,2,7,-9
1569407309277548,0,1,0,0,-2,-5,-1,-6
1569407309277548,0,-1,-1,-1,-1,2,1,2
1569407309298484,-1,1,-2,-1,-3,0,-2,-6
1569407309298484,-6,-1,-2,0,0,2,3,-15
1569407309300102,1,-1,0,-1,-2,1,-2,-7
1569407309300102,0,0,-2,0,0,2,0,-3
1569407309321079,0,0,0,-2,0,0,0,4
1569407309321079,-4,0,1,-1,0,-3,1,-8
1569407309321956,0,1,0,-1,0,-1,-2,-3
1569407309321956,2,-1,-2,0,-1,0,3,8
1569407309335334,-1,-2,0,-1,-2,-5,-8,-1
1569407309335334,-4,-3,-4,-1,0,4,2,-6
1569407309341329,-2,-3,-2,0,-1,-3,-4,-7
1569407309341329,-2,-2,-1,-1,1,-1,-1,-4
1569407309357860,-2,0,0,1,-3,0,0,-2
1569407309357860,-4,-1,-1,-3,-2,-4,-2,-8
1569407309359286,-7,-2,0,0,1,1,0,-6
1569407309359286,-9,-1,1,0,0,-3,-5,-22
1569407309380997,-1,-3,-3,-3,0,0,14,-8
1569407309380997,-2,0,-2,1,-2,0,-4,-4
1569407309381797,-2,0,1,1,-2,-4,-3,-7
1569407309381797,3,0,-2,-1,-1,2,6,14
1569407309395196,-3,0,1,0,0,-1,-2,-11
1569407309395196,3,0,0,0,1,1,1,0
1569407309402022,1,-2,0,-2,0,1,0,-3
1569407309402022,-1,0,0,1,0,2,2,4
1569407309418129,0,1,1,0,1,-1,0,3
1569407309418129,6,-3,-3,-2,-1,-2,0,0
1569407309420126,2,1,-1,-1,1,0,-1,6
1569407309420126,3,-3,-2,-1,-2,0,-1,3
1569407309441005,-1,0,0,0,0,2,-3,0
1569407309441005,2,0,1,-1,1,-1,2,2
1569407309442633,0,0,0,-1,0,-2,5,1
1569407309442633,1,1,-1,0,0,-2,-2,-5
1569407309455073,0,0,-1,0,-1,1,-2,0
1569407309455073,1,-1,0,-1,-1,0,1,4
1569407309462018,-2,-2,0,-2,-2,-1,-4,1
1569407309462018,3,0,0,-1,-2,-2,0,9
1569407309477984,1,-1,0,-1,-1,-1,-1,5
1569407309477984,-4,0,-1,-1,-1,-2,-1,-2
1569407309479558,-2,-2,-2,-1,-3,0,-1,-3
1569407309479558,-3,-1,-1,-2,-2,0,0,-3
1569407309500921,-1,-2,-3,-3,-2,4,1,1
1569407309500921,-1,3,1,0,-1,-4,-6,-5
1569407309501476,1,0,-1,0,-1,-1,-2,-1
1569407309501476,0,-2,-2,-1,0,-2,-3,-7
1569407309514866,-1,-2,-2,0,1,5,0,-5
1569407309514866,-3,-3,-2,-1,-3,-11,-1,2
1569407309521841,1,1,-1,1,-2,-5,-1,7
1569407309521841,2,0,-1,-1,1,-3,0,3
1569407309537840,0,0,0,-2,0,0,3,2
1569407309537840,-4,-1,-1,-1,0,3,0,-7
1569407309539375,1,1,-1,0,-1,-2,-3,-1
1569407309539375,-1,-2,0,-1,-4,-2,-3,3
1569407309560761,1,0,0,2,1,-3,-3,-5
1569407309560761,-5,1,0,1,1,3,3,-2
1569407309562623,-9,-1,-2,1,1,0,-1,-17
1569407309562623,4,1,1,2,0,1,3,20
1569407309574717,-4,-2,-2,-1,-3,-4,-4,-8
1569407309574717,-3,-2,-1,-1,-2,1,1,-1
1569407309581689,-1,0,2,-1,1,2,-1,-6
1569407309581689,-3,-2,-3,-1,1,0,1,-2
1569407309598534,0,0,-1,-1,-2,-4,0,6
1569407309598534,0,-1,-1,0,2,-1,-6,-1
1569407309600212,2,-1,-1,-2,-2,-1,1,12
1569407309600212,0,2,1,0,-1,1,0,0
1569407309620585,-3,0,1,0,0,0,-2,-3
1569407309620585,2,-1,-3,-2,0,1,-1,7
1569407309621156,5,1,0,0,0,-3,-2,6
1569407309621156,0,0,-1,-3,0,-1,0,-3
1569407309635309,-3,-1,-2,1,-3,-2,2,-11
1569407309635309,-1,-3,-2,-1,0,2,2,-2
1569407309642148,-1,-3,-1,0,-1,0,-1,0
1569407309642148,0,0,0,0,0,-1,-1,7
1569407309658057,0,-2,-3,-3,1,0,-2,5
1569407309658057,3,2,1,1,0,-1,1,7
1569407309659695,1,0,1,-1,-1,-2,-1,5
1569407309659695,-5,-3,-3,-2,-2,0,0,-15
1569407309680561,-5,-4,-1,-2,-1,1,14,5
1569407309680561,-5,-2,0,-1,-1,-1,0,-6
1569407309682127,-5,-2,0,-1,1,1,-2,-22
1569407309682127,1,-3,-3,-2,-1,0,1,5
1569407309694536,1,-1,1,1,-1,-1,-4,5
1569407309694536,-1,0,3,0,1,-1,-2,-9
1569407309703087,-3,-2,-2,-2,-2,0,-2,-3
1569407309703087,-4,-1,0,0,-1,1,1,-11
1569407309718499,8,1,0,-2,0,-4,-7,12
1569407309718499,1,1,0,0,0,-1,-5,-2
1569407309719031,1,-3,-2,0,-1,0,-3,0
1569407309719031,2,1,0,1,-1,0,0,7
1569407309740835,3,0,0,0,0,1,-1,0
1569407309740835,0,-2,-2,-1,-2,0,2,-3
1569407309742544,-4,1,-1,0,-1,2,3,-10
1569407309742544,4,3,1,1,-1,-5,-15,5
1569407309754675,-7,-2,0,-1,-1,-1,-1,2
1569407309754675,2,-2,-1,-1,0,1,4,7
1569407309762768,2,1,-1,-1,-1,1,0,-1
1569407309762768,-1,-2,0,-1,0,0,2,-2
1569407309777756,0,2,-1,0,-1,-1,-2,6
1569407309777756,-1,-1,-2,0,0,-1,-5,-6
1569407309779324,1,0,-1,0,0,-1,2,3
1569407309779324,4,1,2,-1,1,-2,-5,3
1569407309800689,-6,0,1,-1,3,13,-1,-15
1569407309800689,5,0,0,0,0,-10,1,7
1569407309801224,3,0,-1,0,0,0,-1,5
1569407309801224,0,-1,0,0,-2,0,5,-5
1569407309814637,-3,0,1,-1,-1,1,-1,-9
1569407309814637,5,3,2,1,-2,-1,-18,10
1569407309823165,-10,-2,0,-1,0,0,-4,-16
1569407309823165,-4,-5,-3,-3,-5,-3,-3,-5
1569407309838515,4,1,-1,0,-2,-3,-1,0
1569407309838515,-12,-4,-3,-2,0,2,4,-11
1569407309839122,0,0,0,-2,0,-6,-2,3
1569407309839122,-3,1,-2,-1,2,6,4,-3
1569407309860502,0,1,-1,-1,-1,-4,-2,5
1569407309860502,-6,-2,1,0,0,0,-1,-13
1569407309862229,0,-3,-2,-3,0,2,1,-9
1569407309862229,1,0,1,0,-3,-4,1,4
1569407309874595,0,0,-2,0,-2,-3,-1,-2
1569407309874595,-2,0,-2,-1,2,0,1,-3
1569407309889626,-1,-1,-3,1,1,-2,-2,-4
1569407309889626,6,1,0,0,1,1,4,13
1569407309898530,1,-1,-1,0,-1,-1,1,-2
1569407309898530,0,-1,1,-1,-3,-1,-6,-12
1569407309900196,4,-1,2,0,-2,0,2,11
1569407309900196,-4,0,0,1,0,-3,-1,-10
1569407309920536,4,-1,1,0,0,-1,-10,17
1569407309920536,-1,0,0,2,-1,2,3,-4
1569407309922073,0,-1,-1,0,-1,0,-2,-4
1569407309922073,-1,-2,-1,-2,0,2,1,5
1569407309934039,3,-2,-3,0,-1,-3,0,15
1569407309934039,-4,-2,-3,-2,-1,1,4,-9
1569407309943017,-3,-3,-2,-2,-3,-4,-4,3
1569407309943017,-7,0,1,1,-2,-1,-3,-9
1569407309957976,-1,0,-1,-2,0,-1,4,1
1569407309957976,2,0,1,0,0,1,1,5
1569407309959274,-3,-2,0,-1,-1,7,1,-6
1569407309959274,-5,-1,-3,-4,-5,-13,-4,-5
1569407309980809,1,-1,2,1,3,4,3,-2
1569407309980809,-1,1,2,1,2,0,-4,-8
1569407309982622,1,1,0,-1,1,-1,-1,7
1569407309982622,0,0,-1,-1,0,2,0,-5
1569407309994617,6,2,0,1,-1,-4,-12,16
1569407309994617,-7,-5,-3,-4,-1,-2,8,-7
1569407310002285,1,-2,-2,-1,0,1,5,7
1569407310002285,0,2,1,1,-1,0,-7,-16
1569407310018511,-4,-2,-3,-2,-2,-2,3,-3
1569407310018511,-1,-1,-2,-2,-1,2,2,-4
1569407310019243,3,2,2,2,0,0,1,14
1569407310019243,-2,-2,-1,-2,-1,2,4,1
1569407310040622,-1,-2,-2,0,-1,-1,5,0
1569407310040622,2,2,2,1,-1,0,-3,6
1569407310042632,-4,0,1,-1,-1,-2,-1,-8
1569407310042632,0,-2,0,1,0,1,1,3
1569407310054633,-4,0,0,-2,-2,0,0,-10
1569407310054633,2,-3,-1,0,1,-2,-1,6
1569407310063123,-2,0,-1,-1,-3,-3,-3,-3
1569407310063123,1,0,0,-1,0,0,2,0
1569407310078499,-3,-1,-1,-3,-2,-2,-2,-10
1569407310078499,2,-1,-1,1,-2,-4,-16,2
1569407310080128,-1,-1,-3,-2,-1,-2,0,-3
1569407310080128,-2,-2,-4,-2,-1,1,-1,1
1569407310100455,3,0,1,-1,-3,-2,-1,6
1569407310100455,0,-1,-1,1,-2,0,2,1
1569407310106470,-1,-2,-2,0,0,-1,-2,2
1569407310106470,-2,1,0,-2,-1,0,-1,1
1569407310123461,-3,-2,0,0,1,-3,1,-3
1569407310123461,-1,-2,-3,-4,0,0,5,1
1569407310123961,4,4,1,3,1,-4,-9,-4
1569407310123961,6,0,-2,-1,0,0,5,18
1569407310138400,1,-1,0,2,1,1,3,-6
1569407310138400,-2,-1,1,-2,-2,2,1,-2
1569407310138920,-4,-2,0,-1,-2,-1,0,-9
1569407310138920,-1,-1,0,-1,0,1,-1,-3
1569407310160321,1,1,-2,-3,-1,-2,1,1
1569407310160321,-1,0,-2,1,0,0,0,-1
1569407310161859,-2,0,1,-1,1,0,-1,-9
1569407310161859,-6,-1,1,-1,-1,-1,-1,-9
1569407310183254,5,-2,-1,-1,-1,1,0,8
1569407310183254,-3,0,-1,-1,-1,-1,0,-5
1569407310185114,-1,-1,-3,-1,-3,-1,4,5
1569407310185114,-7,0,-1,-1,1,0,0,-9
1569407310196230,-1,-3,-2,1,0,-1,2,-3
1569407310196230,-3,-1,-1,-2,-2,-2,-5,-6
1569407310205741,-1,-3,-1,-1,-1,-2,2,2
1569407310205741,1,-1,0,1,-2,-1,-5,-6
1569407310220980,-1,-1,-1,-1,0,1,3,2
1569407310220980,0,1,1,1,0,-1,1,-17
1569407310221699,-2,-1,-1,-1,-2,-1,-1,2
1569407310221699,4,-2,-1,0,-1,1,1,-1
1569407310243073,-3,0,-1,-1,-1,-1,-4,-6
1569407310243073,2,-2,-3,-2,-2,-3,0,9
1569407310244638,1,0,0,-1,0,0,0,1
1569407310244638,-2,-2,0,-1,0,-2,-4,-4
1569407310258036,-2,0,1,0,0,-1,-1,-4
1569407310258036,-5,-2,0,-1,1,1,-1,3
1569407310259598,-3,1,0,-2,-2,-2,-1,-12
1569407310259598,3,0,-1,0,0,-1,-5,0
1569407310280967,-3,-2,-2,-1,-1,-1,0,-1
1569407310280967,-5,-3,-1,-1,-2,0,7,-14
1569407310282610,-2,-1,-2,-1,-1,-1,-1,-3
1569407310282610,-3,-1,-3,-1,-1,2,5,2
1569407310302484,1,-1,0,-1,1,-1,-3,1
1569407310302484,1,1,-2,0,-1,-2,-1,-2
1569407310304505,1,2,1,3,0,-3,-4,1
1569407310304505,0,0,0,1,0,1,4,2
1569407310317830,-2,-4,0,0,-1,-4,-1,14
1569407310317830,4,-2,-2,-2,1,-1,-3,1
1569407310323905,4,0,1,-1,-1,-4,-13,9
1569407310323905,2,-1,0,-1,0,1,1,10
1569407310340823,-3,0,-3,-2,0,-1,1,-7
1569407310340823,-1,1,0,-1,0,-1,-2,0
1569407310342580,2,-1,-1,-1,1,2,3,6
1569407310342580,-5,-2,-2,-2,-2,-2,-5,-11
1569407310363500,-5,-1,-1,-1,-2,0,-3,-10
1569407310363500,1,1,0,1,-1,-1,3,-8
1569407310364318,2,-1,-1,0,0,0,3,-2
1569407310364318,-1,-1,-1,0,-1,-1,1,3
1569407310377735,-3,-1,-2,0,0,-1,0,-4
1569407310377735,-1,0,-2,0,0,1,-2,3
1569407310384646,-2,-1,-1,-1,-1,1,0,0
1569407310384646,4,1,-1,0,-1,-2,0,3
1569407310400675,-1,0,-1,2,0,1,1,4
1569407310400675,-1,-2,-1,-1,0,0,-2,-6
1569407310402217,0,2,3,1,-2,-2,-6,-10
1569407310402217,11,-1,-1,-2,-2,0,6,20
1569407310422602,4,2,1,-1,0,-3,-6,4
1569407310422602,2,1,0,-2,-1,-1,-3,3
1569407310430371,-3,-2,-2,-1,-1,1,4,-3
1569407310430371,0,1,0,-1,-1,0,1,4
1569407310437124,0,-1,0,0,-1,-1,-1,0
1569407310437124,-1,0,0,-1,-1,-2,-4,-5
1569407310445376,-1,-3,-2,-1,0,2,2,-1
1569407310445376,-6,-2,0,0,1,0,0,-4
1569407310460544,-3,-2,-1,-1,-1,-1,-3,1
1569407310460544,2,-1,1,0,0,0,-1,4
1569407310462059,-2,-2,-3,-3,0,-1,1,-1
1569407310462059,-1,-1,-1,0,-1,-1,-2,-4
1569407310483436,0,-1,-1,0,-1,0,1,-6
1569407310483436,-2,-2,-1,-1,0,1,1,-3
1569407310485065,3,1,0,0,-1,-2,-2,9
1569407310485065,-2,0,1,0,0,-2,-1,-1
1569407310497418,0,2,1,1,-1,-2,-3,4
1569407310497418,1,-1,-2,-1,0,0,-3,-1
1569407310504369,1,-2,-3,-1,1,1,3,4
1569407310504369,-3,-1,-1,-1,-2,-2,-5,-2
1569407310520354,-1,-2,-2,-3,-1,1,5,-1
1569407310520354,-3,0,2,1,-1,-1,-2,-4
1569407310521896,1,-2,1,-1,-2,0,1,2
1569407310521896,-3,1,-3,-1,0,1,3,-2
1569407310543209,-1,0,-1,-2,-1,1,3,0
1569407310543209,-3,0,-1,1,1,2,5,1
1569407310545087,-1,1,1,-1,-1,-1,0,2
1569407310545087,-1,-2,-1,-1,0,-1,-4,-5
1569407310557263,0,0,-2,1,0,-2,0,4
1569407310557263,-1,0,-1,-1,-2,0,-4,0
1569407310564209,-1,0,-1,-2,-2,-2,-1,-3
1569407310564209,0,-1,0,-1,0,0,-1,2
1569407310580586,0,-1,0,-2,0,3,5,6
1569407310580586,-1,-2,-3,-1,-2,-1,2,-6
1569407310582179,-2,1,0,2,0,-2,-4,-3
1569407310582179,3,0,1,0,0,-1,-1,1
1569407310602113,-2,-3,-3,-3,-1,0,5,3
1569407310602113,2,1,2,2,0,-2,-5,-1
1569407310604272,2,1,-2,-1,1,3,1,1
1569407310604272,-2,-3,-4,-1,-1,0,-3,0
1569407310616484,0,0,0,0,-2,-1,-2,-4
1569407310616484,-2,-2,0,-1,0,0,2,-4
1569407310625358,-5,-1,-1,-1,0,0,0,-7
1569407310625358,4,-1,-1,-1,-1,-1,3,13
1569407310640463,0,1,-1,0,0,0,-3,1
1569407310640463,-1,-1,-1,-1,-2,-3,-3,0
1569407310641998,0,-1,0,-1,-1,-2,-2,-6
1569407310641998,-1,-1,-1,-2,-1,0,-4,-2
1569407310663378,0,0,-2,-1,-1,0,1,-2
1569407310663378,-5,-2,-1,0,0,-1,-5,-15
1569407310665125,0,-1,-2,0,-1,1,13,-9
1569407310665125,-4,-3,-3,0,1,-1,1,-2
1569407310677131,1,0,-1,-1,-2,0,-3,0
1569407310677131,-2,-1,0,0,-2,1,-2,-2
1569407310685377,1,1,0,-2,-2,1,1,9
1569407310685377,-1,1,0,-1,0,-1,-2,-5
1569407310700780,-3,-2,1,-1,0,1,-1,-2
1569407310700780,2,-1,-2,0,-1,1,1,3
1569407310701327,-1,-4,-2,-2,-2,1,-1,5
1569407310701327,-2,-1,0,1,-2,-7,-9,-6
1569407310723529,2,0,0,1,0,-1,-1,9
1569407310723529,1,0,-1,-1,-1,-1,0,-2
1569407310724268,1,0,-1,0,1,0,-3,8
1569407310724268,0,-3,-1,-3,-1,0,2,8
1569407310736661,-1,-1,-2,-1,0,-1,1,-1
1569407310736661,1,-1,2,-1,-1,-1,-1,3
1569407310745388,0,0,0,0,-1,-2,0,0
1569407310745388,4,3,1,1,2,0,-4,1
1569407310760584,-1,1,2,1,0,-1,-2,-2
1569407310760584,-6,-3,-1,-1,0,-1,-1,-5
1569407310762634,-4,-1,-1,-3,-1,-1,2,-6
1569407310762634,-3,-2,-1,0,-3,-1,3,-5
1569407310783528,2,-1,-1,-1,-3,-1,1,0
1569407310783528,0,2,-1,1,0,-3,-6,-7
1569407310785106,1,-3,0,1,-1,1,0,4
1569407310785106,-4,-1,-2,-1,0,1,2,-5
1569407310796526,-2,1,-1,0,-1,-3,0,1
1569407310796526,-6,-7,-6,-3,-3,1,10,1
1569407310805403,3,1,2,1,-1,-2,-7,0
1569407310805403,-7,-2,1,0,0,-1,-1,-8
1569407310820430,1,0,0,0,0,0,-2,-4
1569407310820430,5,0,0,-1,0,2,1,4
1569407310822006,0,-1,-2,-1,1,-1,1,4
1569407310822006,-2,0,0,0,-2,-1,-3,-12
1569407310843380,0,0,-2,-2,1,1,4,-1
1569407310843380,1,0,1,0,-1,-2,-2,0
1569407310845092,-8,-3,-2,0,-2,2,10,-13
1569407310845092,-2,0,-1,1,-1,0,-3,-11
1569407310856882,2,-1,-2,0,0,1,9,12
1569407310856882,4,2,1,-1,1,-1,-3,5
1569407310865396,-2,-1,-2,-2,-1,-1,-2,3
1569407310865396,1,0,1,0,-1,0,0,1
1569407310880786,-1,0,0,-3,-2,-1,-1,-1
1569407310880786,0,0,1,0,0,1,-4,-6
1569407310882627,0,0,-1,0,0,1,0,4
1569407310882627,-7,-5,-4,-4,-2,-3,-4,-8
1569407310902298,1,-1,3,1,-1,-4,-13,-18
1569407310902298,-4,1,1,0,0,-2,-3,-5
1569407310904333,2,0,-1,1,0,0,-2,6
1569407310904333,5,2,-2,0,0,-2,1,12
1569407310916689,-2,0,-1,-1,-1,0,0,0
1569407310916689,-2,-1,-1,0,0,-1,-1,-2
1569407310925319,-2,0,1,-2,-2,-3,-6,-8
1569407310925319,0,2,0,-2,1,2,2,2
1569407310940978,1,-3,-1,-1,0,0,3,5
1569407310940978,4,2,3,2,-1,-4,-16,6
1569407310941709,-4,2,3,1,-1,-3,-4,-5
1569407310941709,0,0,-2,1,-1,0,3,9
1569407310963081,-4,-2,0,-1,0,0,-4,-1
1569407310963081,2,-1,-3,-1,-3,2,6,6
1569407310964648,0,0,-1,-2,-1,1,2,1
1569407310964648,0,0,1,-1,0,-1,-4,-3
1569407310977066,0,0,-2,2,-1,-1,1,2
1569407310977066,-3,-2,-1,-1,-1,-1,0,-7
1569407310985590,-1,-1,-2,-2,-1,-3,-3,3
1569407310985590,0,0,-1,-1,-1,3,6,7
1569407311000995,-2,-1,0,1,-1,-3,-8,-1
1569407311000995,2,-3,-1,-1,-1,0,3,2
1569407311002546,4,0,0,-1,0,-1,-2,7
1569407311002546,-2,0,-1,0,-1,0,-1,-5
1569407311022962,0,1,-1,-2,-3,-2,0,-1
1569407311022962,-5,-1,-1,-2,-1,1,10,-12
1569407311024488,1,-1,0,1,0,0,-3,1
1569407311024488,-1,-1,0,-1,0,0,1,-1
1569407311036882,-1,-3,-1,-3,0,1,2,5
1569407311036882,-9,-2,-1,0,-1,-3,-6,-28
1569407311045431,2,-1,-1,-1,0,2,6,14
1569407311045431,2,-2,-3,-2,0,-1,1,2
1569407311060810,0,0,-2,-1,-1,2,3,8
1569407311060810,-1,0,-1,0,-3,-4,-7,-5
1569407311062621,-1,-1,-1,-2,-2,-2,-2,-2
1569407311062621,1,0,0,-1,1,0,-1,2
1569407311083501,0,0,0,-2,-1,-1,1,2
1569407311083501,0,-1,-1,-1,-1,-1,2,6
1569407311084327,0,3,1,1,2,-3,-3,-7
1569407311084327,3,2,2,0,0,-3,-8,-7
1569407311105726,2,1,0,0,1,-2,-2,-2
1569407311105726,3,0,-1,-1,-1,2,-1,6
1569407311107264,-2,-3,-3,-3,-1,1,3,3
1569407311107264,-1,0,0,0,-1,0,1,-4
1569407311120587,0,0,0,-1,0,0,0,2
1569407311120587,0,0,0,0,0,-1,-4,2
1569407311121228,1,-1,0,-1,-1,-1,-2,-1
1569407311121228,-1,-3,-3,-1,0,1,1,-4
1569407311143518,0,2,1,1,-1,1,-1,4
1569407311143518,2,-1,0,-1,0,0,3,2
1569407311145236,0,-1,-1,0,-1,-2,-2,0
1569407311145236,1,0,2,-1,-1,1,2,-1
1569407311165553,-2,-3,-3,-2,-1,-1,0,-4
1569407311165553,-2,0,-2,0,0,0,-3,-6
1569407311167107,-3,0,0,0,0,1,-2,-4
1569407311167107,2,0,-3,-1,0,3,16,11
1569407311180510,-7,-3,1,-1,-2,-3,-10,-8
1569407311180510,0,0,-1,-1,1,-2,-1,-2
1569407311182088,-3,-2,-4,1,0,1,3,-4
1569407311182088,-6,-3,0,-1,-2,-1,0,-12
1569407311203451,-2,-1,0,0,-1,-1,1,-5
1569407311203451,-3,-2,-1,0,0,-1,-2,-13
1569407311204007,-3,-1,-1,-1,-4,1,1,-3
1569407311204007,-4,-3,0,-1,-1,-4,-3,-9
1569407311225346,3,0,-2,-2,1,0,1,-3
1569407311225346,2,1,1,0,0,-1,-3,4
1569407311226947,0,-1,1,0,-1,-5,-3,0
1569407311226947,0,1,0,0,-1,0,-3,4
1569407311240327,-3,-2,-1,1,-1,-2,-4,-13
1569407311240327,-3,0,-1,-1,0,-1,1,-7
1569407311247196,1,1,0,-1,-1,-1,0,0
1569407311247196,4,-1,-2,-2,-2,-3,-2,7
1569407311263343,0,-3,0,0,-1,2,4,7
1569407311263343,-3,-3,-2,-1,-2,1,-2,-11
1569407311265089,6,0,-1,-1,0,0,-4,15
1569407311265089,0,-1,-1,1,-3,-3,-3,-2
1569407311284831,0,-1,-1,0,-1,0,0,0
1569407311284831,4,0,-2,0,-1,1,4,19
1569407311286828,-7,-3,-1,-2,0,0,0,-10
1569407311286828,0,-1,0,-1,0,0,-2,-3
1569407311300192,2,1,-1,1,0,0,5,10
1569407311300192,-5,-4,-2,0,-3,-3,-2,-7
1569407311307138,0,-1,0,-1,-1,-2,-4,0
1569407311307138,-2,-1,0,0,2,0,-2,-2
1569407311323121,0,1,-3,-2,-1,-1,-3,1
1569407311323121,-2,-1,0,-1,0,-1,-3,-7
1569407311323687,1,0,0,0,-1,1,3,4
1569407311323687,-1,0,-1,-1,1,-2,-2,-2
1569407311346114,1,-2,0,-2,-1,-2,-1,0
1569407311346114,-2,1,-1,-1,-1,0,-2,-3
1569407311347663,-1,-1,0,-1,0,0,0,-6
1569407311347663,-1,-3,-1,-1,-1,1,7,-5
1569407311360032,-1,-1,-1,-1,1,-2,-3,3
1569407311360032,2,1,1,1,1,-1,1,10
1569407311367039,-6,-1,-1,0,0,-1,-2,-1
1569407311367039,-4,-1,-3,-1,-2,2,5,-7
1569407311382962,-1,4,2,1,0,-1,-6,-12
1569407311382962,5,-1,-1,0,2,2,2,7
1569407311384525,-1,0,-2,-3,-1,-3,-2,-4
1569407311384525,-2,0,0,0,-1,-3,-5,-4
1569407311405930,-2,-3,-3,0,-2,-2,-2,-3
1569407311405930,-1,-1,0,-1,0,0,0,-6
1569407311406466,5,1,-2,-2,0,1,3,12
1569407311406466,-1,-1,0,-2,0,-2,-4,2
1569407311419869,-2,-1,-1,-1,-1,1,1,-1
1569407311419869,-5,0,0,-1,0,-2,-1,-15
1569407311426416,1,-1,-2,0,-1,0,-1,1
1569407311426416,3,1,0,-1,0,-3,-4,5
1569407311443530,-1,0,-1,0,1,0,0,3
1569407311443530,-3,-1,-2,0,1,-1,-2,-1
1569407311444365,-1,1,0,1,-3,0,0,0
1569407311444365,5,2,3,2,0,-1,-15,16
1569407311465783,2,-1,-3,-3,-1,-1,4,2
1569407311465783,-2,0,-1,0,-2,-1,-3,0
1569407311467600,0,-2,0,-1,0,-3,0,0
1569407311467600,-3,-1,0,-2,-1,0,2,-4
1569407311480359,-2,-1,-1,0,-1,-1,1,0
1569407311480359,1,-2,-1,-1,-1,-1,-4,1
1569407311486673,0,3,-1,1,0,0,1,1
1569407311486673,-3,-3,-2,-1,-1,1,1,-4
1569407311503090,-2,-2,0,0,-2,-1,1,0
1569407311503090,-3,-1,-1,-1,-2,0,0,-12
1569407311504634,7,3,0,2,2,2,-1,9
1569407311504634,3,0,0,0,1,0,-1,7
1569407311525939,0,3,2,2,-2,-2,-4,-2
1569407311525939,-1,-1,-1,-1,-2,-2,-2,-8
1569407311527653,-1,-1,0,-3,-4,-2,0,-6
1569407311527653,-1,-1,-1,-1,-1,1,0,-1
1569407311540000,6,-1,-2,-2,0,0,1,0
1569407311540000,2,2,2,0,0,-3,-1,2
1569407311547501,-12,-2,0,0,0,1,2,-3
1569407311547501,-1,-6,-2,0,0,-3,-5,7
1569407311562461,1,-7,-3,-4,-2,-2,1,-8
1569407311562461,-6,3,-3,-1,-1,0,1,0
1569407311563008,9,9,1,-1,2,-1,-2,7
1569407311563008,-1,-26,-10,-1,1,-1,0,-11
1569407311584383,-4,16,3,-3,0,0,-2,1
1569407311584383,1,-17,-3,0,0,0,-1,-1
1569407311584949,-16,-13,-1,1,0,0,2,-9
1569407311584949,25,22,6,2,0,-1,1,5
1569407311607889,-19,-12,-7,-3,-3,-4,-5,0
1569407311607889,7,7,-2,-5,-2,-2,-2,6
1569407311609281,3,5,-1,-3,-1,-1,-1,-2
1569407311609281,10,24,6,1,2,2,7,11
1569407311622261,-1,-24,2,4,4,0,-1,-7
1569407311622261,-10,-1,-4,-5,-3,2,13,-21
1569407311622848,3,-10,-5,-2,-2,-1,-2,2
1569407311622848,-1,5,-3,-4,-3,-1,-1,6
1569407311645249,3,19,3,-1,-1,1,3,3
1569407311645249,1,-2,-2,0,2,1,0,3
1569407311645249,3,-14,4,1,-2,-2,-1,-2
1569407311645249,-15,-9,-2,2,-1,0,-2,-17
1569407311668094,-4,-2,3,3,1,-4,-3,4
1569407311668094,0,-3,-2,-2,-1,-2,-7,-10
1569407311668727,11,12,-2,-3,-2,-2,-5,7
1569407311668727,-10,-5,6,0,1,-4,-5,-9
1569407311682773,8,2,0,0,0,3,6,17
1569407311682773,13,23,-4,-4,-1,1,-1,18
1569407311682773,-6,-4,13,4,0,-1,0,1
1569407311682773,-22,-35,-16,-3,-2,-1,1,-12
1569407311705072,0,9,14,5,-1,-2,-6,-18
1569407311705072,-6,-6,0,-1,1,0,5,-7
1569407311705627,2,13,-2,-3,-1,2,2,5
1569407311705627,1,4,-1,-2,-1,-3,-8,-9
1569407311718592,-1,-4,-4,-5,-1,1,2,-6
1569407311718592,-7,1,3,1,0,-3,-7,-18
1569407311727881,2,-5,-3,1,-1,0,-2,11
1569407311727881,3,5,0,-2,-1,0,0,4
1569407311742842,6,-1,-6,-3,-1,-1,0,-3
1569407311742842,-10,-9,3,2,-1,0,-2,0
1569407311742842,1,0,-5,-1,-1,-2,-3,-18
1569407311742842,-4,1,3,1,1,-2,0,2
1569407311764846,-5,-2,-3,-1,-1,1,-1,-7
1569407311764846,9,-1,2,2,0,-3,-2,1
1569407311765514,-1,2,-2,-1,0,1,0,-1
1569407311765514,5,6,0,-1,0,-1,1,14
1569407311787875,-3,-9,-4,-1,-1,0,-6,3
1569407311787875,-4,-2,1,-1,-1,-2,-6,-9
1569407311788405,-14,-4,-3,-3,-2,0,-2,-23
1569407311788405,5,4,3,-1,1,0,1,-12
1569407311802367,2,-1,-4,-1,0,0,2,1
1569407311802367,0,-4,1,-1,-2,2,4,13
1569407311803588,4,6,3,1,0,-1,0,-3
1569407311803588,0,1,2,3,0,0,-3,13
1569407311833725,3,0,0,0,-1,-1,-3,15
1569407311833725,5,2,0,0,-1,1,-1,-3
1569407311833725,-2,-3,-1,0,0,0,0,2
1569407311833725,-2,-2,-2,-3,-3,-1,3,6
1569407311848536,-3,1,-2,-1,-1,1,2,-4
1569407311848536,-9,-4,1,-1,-1,-2,-4,-6
1569407311848536,11,-1,-2,-2,-1,2,4,23
1569407311848536,-4,-2,-1,0,0,-1,-3,-11
1569407311862650,-3,0,-2,-2,0,-1,-1,-11
1569407311862650,1,-1,1,0,-1,0,4,2
1569407311862650,-6,-4,-1,0,0,0,-3,-8
1569407311862650,-4,-1,-1,-2,-3,0,0,3
1569407311884586,2,2,1,1,-2,-2,4,-1
1569407311884586,1,0,1,1,1,-2,-12,3
1569407311885151,1,-6,-6,-4,0,0,14,29
1569407311885151,0,3,2,2,0,0,-3,7
1569407311907550,-3,8,1,2,0,0,3,0
1569407311907550,6,-2,1,1,-1,-2,5,6
1569407311909280,-6,-12,-2,1,0,0,-3,-13
1569407311909280,-7,-2,-2,-3,-1,1,1,-9
1569407311922472,4,-4,-2,-3,-1,-1,1,5
1569407311922472,-1,7,-2,0,0,1,2,3
1569407311923046,1,1,-2,-1,-1,-1,-5,-4
1569407311923046,0,-3,-1,1,0,-3,-4,-5
1569407311945313,-3,0,-1,0,-1,-1,-3,-16
1569407311945313,0,-1,0,-1,-1,-2,-5,-6
1569407311945313,-1,2,2,1,0,-1,-2,2
1569407311945313,-1,0,1,-2,0,1,-1,-4
1569407311967925,1,-1,-2,-2,-1,0,2,5
1569407311967925,3,-1,0,0,-1,-2,-4,5
1569407311967925,-2,1,0,0,-1,-1,-3,-4
1569407311967925,4,3,-4,-3,0,-1,4,8
1569407311982320,-3,-3,2,-1,1,0,-2,-5
1569407311982320,-3,0,2,1,-1,0,-3,-3
1569407311982886,2,0,-4,-3,0,0,2,0
1569407311982886,-1,-1,-2,-2,-2,-1,-1,6
1569407312005301,-2,-2,-1,-1,0,0,-2,-7
1569407312005301,-2,-3,-3,-3,-1,0,0,7
1569407312005301,0,7,3,1,0,-1,-3,-4
1569407312005301,-1,-8,-4,-2,-1,-1,-3,-8
1569407312028186,2,-2,-1,1,0,-3,-2,1
1569407312028186,-1,-2,-4,-3,-1,0,3,-4
1569407312028763,-5,-2,1,0,-1,0,-2,-5
1569407312028763,4,4,2,0,0,-2,2,7
1569407312042817,-3,-2,-1,-1,-1,-1,-3,-8
1569407312042817,-1,-1,0,-2,0,0,-1,-2
1569407312042817,-2,-2,-2,-2,-1,1,0,-1
1569407312042817,-1,8,1,0,0,0,-1,-3
1569407312065108,-1,0,4,0,-2,-1,-3,-2
1569407312065108,-4,-7,-4,0,0,0,-3,-1
1569407312065664,6,7,1,-1,-1,-3,-1,-5
1569407312065664,-18,-20,-6,-3,-1,0,-4,-5
1569407312088050,7,-1,-2,-2,-1,-2,1,0
1569407312088050,-2,2,-1,-2,0,0,2,-3
1569407312088604,-2,-1,0,1,-1,-2,1,-3
1569407312088604,10,7,2,2,-1,0,1,10
1569407312110999,-3,-1,-1,-1,-2,-1,-4,-7
1569407312110999,-1,-2,0,2,0,-2,-2,-3
1569407312110999,3,0,1,-1,-2,1,1,4
1569407312110999,4,3,1,-1,-2,0,4,2
1569407312124507,-6,-4,-3,-3,0,1,-1,-4
1569407312124507,-4,0,1,-2,1,1,-1,-11
1569407312125505,1,1,0,1,0,-2,-2,-1
1569407312125505,1,0,0,0,0,-1,1,-1
1569407312147869,2,-2,0,0,0,0,-3,0
1569407312147869,-1,-1,1,-1,0,-1,2,-4
1569407312148444,-3,-2,-2,-1,0,0,-2,-3
1569407312148444,-4,-1,-1,0,-1,-1,-2,-3
1569407312162775,-3,3,-2,-2,-1,-2,-1,-9
1569407312162775,6,4,-1,1,-1,-2,0,8
1569407312163162,-2,-4,-1,-1,-2,-3,-2,9
1569407312163162,1,0,3,-1,1,-1,0,-2
1569407312184698,1,1,-1,1,1,1,-1,-2
1569407312184698,0,0,-1,0,-1,0,-2,0
1569407312185562,-2,-2,-2,1,-1,-2,0,1
1569407312185562,-2,0,0,-1,-1,2,-1,-5
1569407312207960,1,0,-1,-2,-1,-2,0,5
1569407312207960,-2,-2,0,-1,-2,-1,-2,-1
1569407312208500,-1,-1,-3,-1,0,-1,-3,3
1569407312208500,0,0,1,0,1,2,1,10
1569407312222830,5,0,0,1,0,-3,-15,8
1569407312222830,5,2,0,0,-2,-2,-8,10
1569407312222830,-2,-1,-2,-2,-1,0,2,-5
1569407312222830,2,-1,0,1,-1,-2,-4,-6
1569407312244404,-4,-1,-3,-2,1,0,2,-3
1569407312244404,-1,0,-1,0,0,-1,3,1
1569407312245400,-6,-2,0,-2,-2,0,-1,-8
1569407312245400,-4,-1,0,1,-1,-2,5,-15
1569407312267808,-3,0,2,1,-1,-1,-1,-11
1569407312267808,1,-1,-3,-1,-2,-4,-4,-5
1569407312268341,0,-1,-1,-1,0,0,3,-3
1569407312268341,-1,-1,-3,-1,1,0,1,1
1569407312282746,-3,0,1,0,-2,0,0,-6
1569407312282746,0,-1,1,-1,-1,0,1,-2
1569407312282746,2,2,-3,-2,0,0,0,8
1569407312282746,-1,1,0,-1,0,-1,0,3
1569407312304661,1,-1,-1,0,0,-2,1,-1
1569407312304661,0,-2,-1,0,0,1,1,9
1569407312305241,0,-1,-1,0,-2,-3,-4,5
1569407312305241,0,0,-2,-3,-1,2,2,7
1569407312328533,3,0,0,0,0,1,0,-2
1569407312328533,-9,-2,-2,0,0,0,1,-7
1569407312328533,-1,0,-1,0,0,-1,-2,-5
1569407312328533,2,0,-1,1,-1,-3,-4,-4
1569407312342554,-4,-2,-2,-1,-1,2,10,-7
1569407312342554,5,1,0,-1,-1,-1,0,4
1569407312343138,-3,-3,-3,-2,-1,0,0,-4
1569407312343138,-1,1,1,1,0,-2,-1,0
1569407312365378,-4,-2,0,0,-1,-1,-9,-15
1569407312365378,1,0,-1,-2,-1,-1,1,-1
1569407312365378,-2,-2,-1,0,-1,3,4,-3
1569407312365378,-7,-1,-1,-3,0,2,7,-12
1569407312388499,8,3,0,2,0,1,3,14
1569407312388499,0,2,0,0,-2,-1,-1,-1
1569407312389018,0,-3,-1,-1,0,-1,-2,2
1569407312389018,-8,-2,-2,1,-1,0,-4,-11
1569407312401982,-1,0,-2,-1,0,-2,2,9
1569407312401982,-8,-3,0,1,1,-3,-5,-8
1569407312403437,0,1,0,-2,-1,2,4,1
1569407312403437,2,1,0,1,0,-1,-4,4
1569407312425253,-5,-2,-3,-1,0,-3,-4,-14
1569407312425253,10,2,0,-1,-2,-1,-5,20
1569407312425253,-3,-2,-2,-1,-1,-1,0,-1
1569407312425253,-2,0,-3,-3,-2,-1,-1,6
1569407312448318,-3,-1,-2,0,0,-2,-4,0
1569407312448318,-3,-2,0,-2,0,-1,0,-13
1569407312448856,3,1,2,1,0,-2,-3,-2
1569407312448856,5,-2,-3,0,-2,-3,-3,5
1569407312462254,-3,-2,-2,0,-1,1,2,-2
1569407312462254,-6,-1,-1,0,-2,-1,-1,-7
1569407312462820,-8,-11,-4,-2,-3,-2,2,-7
1569407312462820,6,1,0,0,2,0,-2,0
1569407312484763,-2,-1,-1,-1,-3,-2,0,-6
1569407312484763,0,-1,-2,0,0,-1,0,4
1569407312486124,6,3,0,1,0,0,1,5
1569407312486124,-1,-2,-1,0,-2,-1,-1,-2
1569407312507700,2,0,0,0,-1,-1,-1,-4
1569407312507700,-4,-1,0,1,0,3,4,-5
1569407312508697,13,4,2,0,2,0,-10,24
1569407312508697,-2,-1,0,-3,-2,-1,-1,2
1569407312522880,2,-1,-1,-2,0,1,5,9
1569407312522880,3,-2,-2,0,-1,0,2,9
1569407312522880,-9,0,0,0,-1,-3,0,-11
1569407312522880,0,1,0,0,1,0,-3,3
1569407312545045,0,-2,-3,0,-2,-1,-2,0
1569407312545045,3,-1,-1,-1,-1,-2,-1,-1
1569407312545599,-1,-1,3,0,-1,1,1,-4
1569407312545599,-4,-1,0,1,-2,-1,-2,-8
1569407312567874,-2,0,0,-1,0,-1,-4,-11
1569407312567874,-1,-1,-1,-2,-3,1,7,0
1569407312568541,0,1,-3,-1,-1,-2,-1,-7
1569407312568541,-3,-1,-2,0,-1,-1,2,7
1569407312582811,4,0,-1,0,0,-3,0,16
1569407312582811,-2,-1,-2,-1,-1,-3,1,-1
1569407312582811,-6,-2,-2,-3,-2,0,5,-9
1569407312582811,1,-1,2,-1,-1,-3,-3,0
1569407312604897,-5,1,2,4,1,-1,-8,-17
1569407312604897,3,2,0,0,1,0,-5,7
1569407312605439,0,-1,0,-2,-2,2,2,-2
1569407312605439,-1,-1,-2,-1,0,-1,0,1
1569407312628503,-2,-2,0,-2,-1,-1,-1,-4
1569407312628503,-5,-1,0,0,0,1,-1,-8
1569407312628503,0,0,-1,0,1,-2,-1,0
1569407312628503,-1,-2,-2,1,0,1,2,9
1569407312641789,1,0,2,0,-1,-2,-4,-1
1569407312641789,3,1,0,0,0,1,3,9
1569407312649779,-7,-3,-2,-1,-1,-2,-2,-1
1569407312649779,0,-1,0,-1,0,-1,1,8
1569407312665773,1,-1,-2,0,0,-1,2,-3
1569407312665773,-1,1,-1,-1,1,1,-3,0
1569407312665773,-2,0,0,1,-1,-1,-4,-5
1569407312665773,2,0,0,2,-2,2,2,1
1569407312688536,-4,-1,-1,-2,-2,1,-2,-12
1569407312688536,-1,-2,-1,-1,-2,-2,-2,-1
1569407312688536,4,0,-2,-1,-1,-2,0,6
1569407312688536,-2,1,0,-1,1,0,-1,0
1569407312701182,-1,0,-3,-2,-2,-2,2,0
1569407312701182,-1,-1,-2,1,1,-2,-3,0
1569407312710380,4,2,1,2,-2,-3,-10,6
1569407312710380,0,-2,-2,-2,-2,-2,0,-4
1569407312725272,-1,-1,-1,-2,-1,1,1,-6
1569407312725272,2,1,2,0,-1,-2,-8,3
1569407312725272,0,-3,-3,-1,1,1,4,4
1569407312725272,-1,-1,-1,0,-1,-1,-1,-4
1569407312748499,-1,0,0,1,0,-1,-5,-9
1569407312748499,-4,-3,-3,-1,-2,0,3,-3
1569407312748499,-1,2,0,-1,0,0,1,-2
1569407312748499,-3,-1,0,-1,0,-3,-5,-11
1569407312762192,-1,0,-1,1,0,1,0,-8
1569407312762192,11,1,-3,-3,-1,2,6,30
1569407312770348,-3,-1,-2,0,1,-1,-1,0
1569407312770348,0,1,0,-1,-1,0,1,1
1569407312784395,-8,-2,-2,-1,-1,-1,0,-4
1569407312784395,-4,-4,-1,0,0,0,-2,-11
1569407312784961,1,-2,0,1,0,-1,0,-1
1569407312784961,4,0,-2,-2,-2,-1,4,16
1569407312807898,1,-2,-1,-1,-2,1,-2,0
1569407312807898,-2,1,0,-1,-1,-2,-2,-4
1569407312809300,-3,0,-3,-1,0,1,0,2
1569407312809300,-3,0,1,0,-1,-1,-1,-6
1569407312822109,-3,-1,-3,-1,-1,2,11,-5
1569407312822109,-3,-1,-1,2,0,-2,-3,-6
1569407312830274,-1,-1,-1,0,-3,-1,0,-5
1569407312830274,1,-2,0,-1,0,-2,-2,5
1569407312845239,5,0,0,-2,1,0,0,11
1569407312845239,7,0,0,0,0,0,6,29
1569407312845239,3,2,1,0,-1,-3,0,-2
1569407312845239,-3,0,-1,-1,-2,1,1,0
1569407312867858,-1,-1,-1,0,-2,-3,-5,-2
1569407312867858,-7,-1,-2,-1,-2,0,-2,-21
1569407312868737,-2,-1,-1,-1,-2,-1,-2,5
1569407312868737,1,1,-1,-1,-1,0,1,4
1569407312882155,-5,-2,-1,-1,0,-1,3,-11
1569407312882155,-1,-2,-2,-2,0,1,-2,-4
1569407312890105,0,-1,-1,0,0,-1,-1,3
1569407312890105,1,0,-2,0,-1,0,0,-6
1569407312904637,-1,-2,1,-3,-3,-1,-1,-3
1569407312904637,0,0,1,1,0,-1,-2,-2
1569407312905635,0,-1,-3,-3,0,-1,0,-2
1569407312905635,1,0,-1,2,-2,0,1,3
1569407312927605,3,0,0,0,0,-2,-5,0
1569407312927605,-2,-1,0,-1,0,1,-2,-4
1569407312928602,2,-1,-1,0,0,1,0,2
1569407312928602,1,2,1,0,0,-5,-15,5
1569407312950543,1,0,0,1,0,0,-2,8
1569407312950543,-12,1,-1,-3,-3,-2,-2,-18
1569407312950543,3,1,-2,-1,0,2,2,7
1569407312950543,2,-2,-1,-1,1,0,4,6
1569407312964631,-2,1,2,1,0,-2,-3,-3
1569407312964631,1,-2,-1,-2,0,-2,-3,1
1569407312965477,-1,0,1,1,0,2,1,-6
1569407312965477,-2,-1,0,-3,-2,-1,2,-4
1569407312987841,-1,-1,-1,-1,-1,-1,-5,-4
1569407312987841,1,-2,-3,2,1,0,3,3
1569407312988415,-8,-2,-2,-1,-2,1,7,-6
1569407312988415,-1,-1,-1,-1,-1,0,1,3
1569407313010805,-1,-1,-1,-2,2,-2,-3,-3
1569407313010805,4,0,-1,-1,0,-1,0,2
1569407313011355,-4,0,0,0,-2,0,7,-9
1569407313011355,0,0,-1,2,-1,1,2,11
1569407313024760,0,0,0,0,-2,-3,0,-1
1569407313024760,2,0,-1,0,0,-1,-1,3
1569407313025316,-4,-1,0,-1,0,-1,-4,-7
1569407313025316,0,0,1,-1,-1,0,3,4
1569407313048502,-1,0,-2,-2,0,2,-5,-5
1569407313048502,3,-1,-1,-1,0,1,6,13
1569407313048502,3,1,1,1,0,-3,-5,-3
1569407313048502,1,2,-1,0,-2,0,-1,-3
1569407313070966,0,-3,-2,-1,-1,0,0,-4
1569407313070966,-3,0,1,-1,-1,0,-3,-7
1569407313070966,1,0,0,-2,-1,0,-2,0
1569407313070966,3,-2,-2,-1,0,1,1,2
1569407313084447,1,1,1,0,-1,-3,-6,2
1569407313084447,-3,-1,1,0,-1,-2,-1,-3
1569407313085445,-4,-1,-3,-3,-2,-2,4,-19
1569407313085445,1,0,0,2,1,-1,-3,0
1569407313107837,0,-1,-1,1,-2,-1,-1,-4
1569407313107837,-2,-2,0,-2,-1,0,0,1
1569407313108386,-3,0,-1,0,0,-2,-2,0
1569407313108386,-8,-1,-1,-2,1,-2,-1,-19
1569407313130750,4,4,1,0,-1,1,-6,5
1569407313130750,5,1,0,2,0,1,-1,4
1569407313131323,1,-2,0,-1,-1,-1,-1,6
1569407313131323,-1,-1,0,-1,-1,0,1,-1
1569407313144713,-4,-4,-1,-1,1,-1,-1,-2
1569407313144713,-1,1,1,-1,-2,-1,-4,-5
1569407313145286,3,0,2,-1,0,-1,-4,9
1569407313145286,0,-1,1,1,-1,-2,-2,-2
1569407313167691,-2,-2,-1,-1,2,-2,2,-8
1569407313167691,-1,-1,-4,-2,-1,-1,0,9
1569407313168225,1,-1,-2,0,-1,0,-2,0
1569407313168225,-2,-1,-4,-2,-2,0,1,0
1569407313190166,-9,-1,0,-1,-3,1,10,-20
1569407313190166,-2,-1,0,1,0,-1,-3,-7
1569407313191163,2,-2,0,1,-1,-3,-4,12
1569407313191163,2,-1,-1,-2,-2,0,2,3
1569407313205371,-5,-2,-3,-1,-2,-1,0,-7
1569407313205371,1,-1,-1,-1,1,0,2,2
1569407313205371,-1,-1,-2,-2,-1,0,1,-1
1569407313205371,-3,-2,-1,-2,-2,-1,-3,-9
1569407313228347,-3,1,0,1,-1,0,-2,-4
1569407313228347,-3,1,2,0,-3,-2,-4,-10
1569407313229287,-4,-3,-2,-2,-1,-1,1,-7
1569407313229287,1,-1,-1,1,-2,-1,2,6
1569407313251110,2,0,-1,-1,0,-1,0,0
1569407313251110,-1,0,-2,1,-2,-1,2,6
1569407313251110,-1,1,1,1,-2,-3,-1,-5
1569407313251110,0,0,-2,1,0,-1,1,3
1569407313265313,0,-2,0,0,-1,-2,-1,3
1569407313265313,1,0,0,-2,-1,0,4,0
1569407313265313,-2,-1,1,0,0,0,8,-6
1569407313265313,-1,-1,-1,-1,0,-2,-3,1
1569407313288386,4,1,-1,-2,1,0,-2,4
1569407313288386,0,-1,1,0,-1,-1,-3,1
1569407313288386,0,0,-2,-1,0,2,0,0
1569407313288386,0,-2,1,-3,-1,1,0,0
1569407313311074,3,-2,-1,0,-1,2,1,3
1569407313311074,-2,-1,-2,-1,-1,1,4,0
1569407313311074,0,1,2,1,-1,-5,-7,-1
1569407313311074,-1,0,0,1,2,0,1,-6
1569407313325183,4,0,-1,0,0,-3,-3,10
1569407313325183,2,0,-1,-1,1,-2,-1,1
1569407313325183,-2,1,-2,-2,1,-1,-5,-5
1569407313325183,13,3,0,2,-1,0,1,31
1569407313348547,-4,-2,-2,0,-1,-2,-2,-6
1569407313348547,-1,-1,-1,-1,-2,1,-1,2
1569407313348547,-3,-2,-3,-1,-1,2,10,-2
1569407313348547,-4,-1,2,1,-1,-3,-4,-8
1569407313370607,-1,-1,1,0,-2,0,-1,-7
1569407313370607,3,-2,-2,-1,0,0,-3,10
1569407313371145,7,1,0,-1,0,0,-3,7
1569407313371145,-5,-3,-4,-3,0,1,1,-4
1569407313384353,-1,-1,0,0,-1,-3,-3,-4
1569407313384353,-4,0,-1,1,0,-2,0,-9
1569407313385107,1,-1,-1,2,-2,1,-5,-3
1569407313385107,1,-1,0,-1,-1,-1,-1,-2
1569407313408046,-2,0,-1,1,-1,-2,-1,-6
1569407313408046,-1,1,2,0,-1,-1,1,0
1569407313409043,0,0,0,-1,0,-2,-1,8
1569407313409043,-3,-2,-1,-1,-2,0,-4,-11
1569407313430986,-3,-3,-3,-3,-1,0,7,-3
1569407313430986,2,-1,-1,1,0,-2,-5,5
1569407313430986,-2,0,-1,0,0,-1,-3,1
1569407313430986,-2,0,-1,0,0,-2,0,-9
1569407313443983,-1,1,0,-2,-1,0,1,-1
1569407313443983,1,-1,-2,-1,-1,-1,0,2
1569407313451929,-2,1,0,-1,-2,-1,-3,-5
1569407313451929,-2,-3,-1,-3,0,0,3,2
1569407313467922,3,-1,-1,1,-3,-4,-6,-3
1569407313467922,-1,0,-1,0,-2,0,-1,1
1569407313468913,6,2,2,2,0,0,-2,14
1569407313468913,-2,-1,0,0,0,-2,2,1
1569407313497842,-1,-1,-1,-2,2,0,1,2
1569407313497842,2,0,0,0,-1,0,1,-1
1569407313498842,-4,0,-1,0,-1,-1,2,-4
1569407313498842,6,1,0,0,-2,2,3,17
1569407313504822,3,0,1,-1,-1,-3,-7,-4
1569407313504822,0,-1,-2,-2,-1,1,0,6
1569407313504822,-6,-1,-1,-1,-1,-1,-4,-14
1569407313504822,-2,1,1,1,0,0,-4,-3
1569407313527762,-3,-3,-2,0,1,2,-2,-2
1569407313527762,-1,0,1,-1,0,-1,3,6
1569407313528759,1,-3,-2,-1,-1,1,1,-1
1569407313528759,-4,2,-2,-1,-1,-1,-2,-15
1569407313549703,-2,2,0,-1,-1,-1,-2,-3
1569407313549703,-1,-3,-2,-3,1,0,1,0
1569407313550664,-1,-3,-1,1,-1,-2,0,0
1569407313550664,0,0,0,0,-2,-4,-6,-14
1569407313563672,-2,2,-1,2,0,0,1,-2
1569407313563672,-3,-1,-1,-1,-1,-3,-6,-5
1569407313571643,-1,-1,-2,-2,-2,-1,1,-2
1569407313571643,1,-1,-1,0,-1,0,-2,3
1569407313587597,-4,1,0,1,-1,-1,-3,-6
1569407313587597,1,1,-1,-1,-1,0,6,-3
1569407313588563,6,2,0,0,0,-1,-7,5
1569407313588563,-2,-1,-1,-1,0,-1,1,-3
1569407313610542,1,-2,0,-1,-1,1,-1,0
1569407313610542,-6,-1,-1,0,0,2,0,-8
1569407313610542,0,0,0,-1,1,-1,0,1
1569407313610542,-2,-2,0,0,-1,-1,-1,-5
1569407313623470,1,-2,0,-2,-2,-2,-5,3
1569407313623470,0,-1,-1,0,0,-1,0,0
1569407313631449,-2,-2,-1,-2,1,-2,-2,-4
1569407313631449,0,-1,-3,-1,0,0,1,3
1569407313647465,-2,-2,-1,0,0,-2,-1,-3
1569407313647465,-3,0,0,0,-1,-2,-4,-2
1569407313648403,2,-1,-3,0,-4,-1,1,3
1569407313648403,-1,-2,-2,-1,0,1,2,0
1569407313670459,-4,-3,-1,0,0,2,10,-8
1569407313670459,13,5,4,2,1,-1,-11,18
1569407313671343,-1,2,1,-2,-2,-1,-2,-1
1569407313671343,-1,-1,-1,0,0,-2,0,-1
1569407313683310,-1,0,-2,-2,-1,-1,1,-2
1569407313683310,-3,-3,-2,0,-1,-1,3,0
1569407313692286,-8,-3,0,1,0,-1,-1,-12
1569407313692286,5,1,0,0,-2,1,-1,6
1569407313707246,0,0,-1,1,0,-2,-5,-2
1569407313707246,-4,-1,-3,-2,-1,-1,1,-1
1569407313708244,1,-4,-1,-2,-3,-2,-5,2
1569407313708244,-4,0,-1,1,0,-1,0,-13
1569407313730184,-2,-2,-2,1,0,0,0,-3
1569407313730184,1,-5,-1,0,-1,-1,0,2
1569407313731182,-1,-1,-2,-1,0,-1,4,1
1569407313731182,-1,-1,-1,-2,0,-1,-2,0
1569407313744147,3,3,1,0,-3,-7,-20,2
1569407313744147,-1,1,0,0,-1,-1,1,-3
1569407313752136,-3,0,-2,-2,1,-1,3,2
1569407313752136,-1,-2,-1,0,0,2,4,1
1569407313767086,0,0,-1,1,0,-1,1,4
1569407313767086,3,1,0,-1,0,-1,-2,1
1569407313774101,-3,0,0,0,-1,0,-5,-2
1569407313774101,2,-1,0,1,0,-2,1,0
1569407313790025,0,-1,2,-1,0,0,2,-1
1569407313790025,-3,-1,0,0,0,-1,1,0
1569407313791022,3,0,0,0,0,1,2,2
1569407313791022,-1,1,-1,0,-1,0,-3,-2
1569407313803996,1,-2,-1,0,0,1,1,-2
1569407313803996,0,-1,-1,-2,-1,0,2,9
1569407313811966,2,1,2,0,0,2,1,5
1569407313811966,-4,0,0,0,-1,1,8,-18
1569407313827953,2,1,1,1,0,0,-4,-2
1569407313827953,-3,-1,-2,-1,-1,1,1,-6
1569407313827953,2,-1,0,0,0,-2,2,1
1569407313827953,0,-1,-2,-2,-1,0,1,2
1569407313849864,-2,0,-1,0,-2,0,2,-3
1569407313849864,2,-1,0,0,-1,-3,-7,-1
1569407313850862,5,-3,-2,0,-1,0,-1,7
1569407313850862,-11,-3,-2,-1,-2,-4,-7,-18
1569407313863827,3,0,0,0,-1,0,-1,4
1569407313863827,-2,1,-1,0,-1,0,-3,-1
1569407313871815,-1,-3,0,-1,-3,-1,0,-1
1569407313871815,0,-2,-1,-1,-1,-1,-2,-3
1569407313887772,-5,-1,-1,-3,1,0,1,-2
1569407313887772,-1,-1,-1,-2,0,1,5,4
1569407313888761,-6,-2,-1,1,-2,1,10,-13
1569407313888761,2,0,3,1,1,-1,-3,3
1569407313910783,0,-2,-2,-1,-1,0,1,5
1569407313910783,0,0,1,1,0,-1,-1,-2
1569407313910783,0,0,-2,1,0,-2,-1,0
1569407313910783,0,-2,-2,-3,-1,-1,-2,2
1569407313932679,-1,-3,0,0,0,1,0,-3
1569407313932679,-2,-1,-2,1,0,-1,1,-7
1569407313933687,-1,0,1,1,-1,1,-2,-1
1569407313933687,8,4,1,0,-2,-3,-2,21
1569407313947648,1,-1,-2,-2,0,2,2,1
1569407313947648,-1,0,3,0,-3,0,-2,-3
1569407313948645,-4,0,1,-1,0,-1,-3,-5
1569407313948645,-1,0,-1,1,0,-1,-2,-3
1569407313970601,0,0,-1,-1,-1,1,1,-3
1569407313970601,-1,-2,-4,-1,-1,-1,-2,3
1569407313970601,0,-1,-2,-2,-1,-2,-12,0
1569407313970601,-2,-2,-1,-2,-1,1,2,-9
1569407313992520,0,-1,-1,1,0,-3,-4,-2
1569407313992520,3,-1,-1,1,0,3,8,19
1569407313993481,-2,0,-4,-3,-2,0,2,4
1569407313993481,0,0,0,-1,0,-1,-4,-6
1569407314007443,-1,0,-1,-2,-1,-1,-1,-3
1569407314007443,-2,1,-1,0,0,-1,-3,-4
1569407314008441,1,-2,-1,-1,0,1,-1,-1
1569407314008441,0,-2,0,0,-1,0,-2,2
1569407314030382,-2,-1,0,-1,-1,-1,0,5
1569407314030382,-6,-1,0,-2,-2,-2,-2,-11
1569407314031390,1,0,-1,0,1,0,-1,2
1569407314031390,-2,-2,-3,-1,1,-1,-1,-6
1569407314052324,0,-2,-1,1,-1,0,1,-1
1569407314052324,-2,0,-1,1,0,-2,-4,-6
1569407314053321,4,2,1,1,0,1,0,11
1569407314053321,-2,-2,0,0,0,0,-4,-4
1569407314066294,-1,-3,-4,-1,-1,-1,5,1
1569407314066294,8,2,-1,-1,-1,-2,-6,13
1569407314075284,-1,0,1,-2,-1,-3,-3,-4
1569407314075284,-1,-3,-2,-1,-1,0,7,-5
1569407314090248,-2,-1,0,-1,-2,0,-1,0
1569407314090248,-2,-3,-3,-1,-1,-1,1,-4
1569407314091241,-2,-1,-1,0,-2,-2,-1,-1
1569407314091241,0,0,-1,-1,-1,-4,-3,-2
1569407314112194,0,2,1,-1,0,-2,-2,2
1569407314112194,-3,-1,0,0,-1,-2,1,-7
1569407314114180,2,1,-1,0,0,0,1,3
1569407314114180,0,-1,1,1,-3,-2,-4,-4
1569407314126148,1,0,0,0,0,-1,-2,-3
1569407314126148,-5,0,-1,-2,1,0,-1,-5
1569407314135362,0,-1,1,0,-1,-2,0,-1
1569407314135362,-4,-2,-3,-1,0,0,0,0
1569407314150350,1,0,1,1,-2,-4,-4,0
1569407314150350,10,3,1,1,1,0,-8,20
1569407314151325,0,1,2,-1,-1,-2,-5,-10
1569407314151325,1,1,-1,-1,-2,-3,-2,-2
1569407314173278,1,-1,0,-1,-1,1,-1,2
1569407314173278,-7,-3,-1,-3,0,1,3,-9
1569407314174257,-3,-2,-4,-2,-1,2,2,-11
1569407314174257,-3,-1,-1,-1,0,-1,-1,-3
1569407314186255,-4,-2,-1,-1,-1,1,1,-3
1569407314186255,-1,0,-2,0,-1,0,2,-8
1569407314195203,1,0,-1,-1,-1,-1,0,3
1569407314195203,-5,-1,0,-1,0,0,-1,-11
1569407314210207,5,2,0,-1,-1,-1,-1,7
1569407314210207,-3,-3,-1,0,1,0,2,-3
1569407314212157,0,0,0,-2,-1,1,0,2
1569407314212157,7,2,1,1,1,-2,-13,6
1569407314232131,-2,-2,-1,-2,0,1,0,-3
1569407314232131,1,-3,0,-1,-2,1,-2,-6
1569407314234099,0,-1,1,0,0,0,1,1
1569407314234099,-4,-3,0,-1,0,0,5,-6
1569407314247095,-1,1,-2,-1,1,0,-3,-1
1569407314247095,-1,0,0,0,-1,-2,-1,-1
1569407314254077,-3,-2,-1,1,-1,-2,0,-4
1569407314254077,0,-1,-2,-1,-2,1,3,-3
1569407314270003,-4,-1,0,1,0,-2,-1,-10
1569407314270003,0,-2,-1,0,-1,2,7,-1
1569407314271998,-3,-1,-1,-2,-1,-2,3,-1
1569407314271998,3,0,-1,0,0,-1,-3,8
1569407314292941,-8,-2,2,0,-1,-2,-2,-3
1569407314292941,-1,-1,-3,-3,-2,-4,-2,0
1569407314293939,-1,-1,-2,-1,0,-1,0,0
1569407314293939,2,-3,-2,-2,-1,-1,1,0
1569407314306933,1,-1,0,0,-1,2,0,3
1569407314306933,-1,1,0,-1,-2,-1,-1,-2
1569407314313916,1,0,1,0,1,0,3,13
1569407314313916,-4,-1,-1,-1,-1,-1,-2,-12
1569407314329870,-1,-2,0,-1,0,-1,1,-1
1569407314329870,-5,-1,-1,-1,-1,0,3,-7
1569407314331838,0,-2,-2,-1,-1,-2,-5,6
1569407314331838,-4,1,0,-1,-2,0,2,-10
1569407314352820,3,-2,-2,-2,-1,0,0,10
1569407314352820,-2,-1,-2,0,0,0,1,-4
1569407314353816,0,1,0,0,-2,-3,-7,-2
1569407314353816,0,0,-2,-1,-2,0,-2,0
1569407314366743,-1,-1,-1,0,1,0,-1,0
1569407314366743,-2,-2,1,1,0,0,-2,-3
1569407314373766,3,-1,-1,-1,1,2,1,7
1569407314373766,0,1,0,0,1,0,-1,-6
1569407314389952,10,4,0,1,-2,-5,-19,13
1569407314389952,1,-1,2,0,-2,-2,-1,-2
1569407314391677,1,0,-3,-1,-1,2,4,2
1569407314391677,-2,-1,-2,-1,0,0,1,-1
1569407314412627,-5,-3,-1,-2,-1,0,4,-11
1569407314412627,-1,0,1,0,-2,0,2,5
1569407314414618,0,-2,1,-1,-1,1,-5,0
1569407314414618,-1,-1,-1,-1,-1,0,0,-2
1569407314426587,-4,-1,0,0,-1,-1,3,-5
1569407314426587,2,0,-2,-2,-1,0,0,7
1569407314435561,-3,-1,-1,1,-1,0,1,-3
1569407314435561,-1,1,0,0,0,0,-1,-2
1569407314450521,0,-3,-3,-3,-2,-2,1,1
1569407314450521,2,0,-3,-2,0,1,2,13
1569407314451528,0,-1,1,-3,0,0,0,-1
1569407314451528,-2,-2,1,-1,1,-1,-3,-5
1569407314472463,4,-1,-2,-1,0,0,4,8
1569407314472463,1,1,0,1,0,-1,-11,1
1569407314474455,0,-1,-1,-1,-3,-1,1,0
1569407314474455,-3,-2,-1,-1,-2,-3,-3,-2
1569407314486432,-1,-1,-1,0,0,0,4,1
1569407314486432,0,-2,-2,-2,1,2,6,0
1569407314495410,3,0,0,0,0,0,2,9
1569407314495410,0,0,-1,1,0,-1,-4,-2
1569407314510360,-2,1,0,-1,0,0,3,0
1569407314510360,-3,-2,-1,0,-1,-2,0,-10
1569407314511357,-5,-1,-2,-1,1,0,2,-3
1569407314511357,0,0,-1,-1,-3,-1,2,0
1569407314532304,-2,2,0,3,0,2,-2,-3
1569407314532304,3,0,0,-1,-1,-1,-1,4
1569407314534300,-3,-1,0,-2,1,0,1,-4
1569407314534300,0,-1,0,0,0,-1,-1,0
1569407314546269,0,-1,0,1,-1,0,-2,-7
1569407314546269,-5,-1,0,-2,-1,-2,-3,-2
1569407314555242,-2,1,-1,-1,0,-1,-4,-7
1569407314555242,3,0,0,-1,1,-1,2,4
1569407314570206,0,-2,-1,-1,-1,-1,2,4
1569407314570206,-5,0,0,0,-1,-2,-2,-19
1569407314571198,-1,-2,-1,0,-1,-2,-2,2
1569407314571198,0,1,1,0,-1,-1,-7,-3
1569407314592142,-3,-1,-2,-2,-1,1,0,-2
1569407314592142,1,1,1,0,0,0,0,-4
1569407314594139,-2,-2,0,0,-2,1,1,1
1569407314594139,-5,-4,-5,-3,-1,1,7,-9
1569407314606121,-1,0,0,-1,1,-1,-1,-3
1569407314606121,0,-2,-1,-2,-1,-1,-1,-2
1569407314615082,1,-1,0,-1,-2,-1,-1,5
1569407314615082,3,-1,0,1,-1,0,0,1
1569407314630042,-3,-1,-2,-1,1,1,2,2
1569407314630042,2,0,0,0,0,-1,-1,2
1569407314632036,0,-2,-2,-1,-1,-2,0,-3
1569407314632036,-2,-2,-1,-1,0,-1,-2,-3
1569407314652985,1,-1,0,-1,-2,-1,-2,3
1569407314652985,-4,-4,-3,-2,-2,0,8,-8
1569407314653976,4,2,-1,1,0,-2,-1,2
1569407314653976,0,1,-1,2,0,0,0,-2
1569407314665945,-2,0,0,1,0,-2,-5,-5
1569407314665945,3,-4,-3,-2,-1,1,2,8
1569407314674920,-1,0,-1,-2,0,1,1,5
1569407314674920,-5,-1,1,1,0,-1,-3,-10
1569407314690878,-1,0,0,0,0,0,3,-4
1569407314690878,-1,0,0,1,1,-1,-2,-1
1569407314691874,-4,-2,0,-1,-1,1,0,1
1569407314691874,-1,-1,1,-1,-2,-2,-3,-2
1569407314712818,2,-1,-1,-2,0,0,-2,4
1569407314712818,1,-1,0,1,-1,-1,-2,-1
1569407314713815,2,0,-1,0,0,-3,0,3
1569407314713815,-4,-2,-1,-2,0,1,7,-3
1569407314725791,2,-1,-1,-1,-4,-1,1,8
1569407314725791,-2,1,1,1,0,-2,-5,-12
1569407314735762,-1,1,0,0,-1,1,10,1
1569407314735762,1,0,-2,-3,-1,0,-1,-2
1569407314749721,-3,-3,-1,0,-1,1,3,-1
1569407314749721,1,2,-1,1,1,3,1,10
1569407314751717,4,0,-1,1,0,-1,0,12
1569407314751717,4,-1,0,1,-2,-1,-3,2
1569407314772662,3,0,0,-1,0,0,0,5
1569407314772662,-2,-2,-2,-2,-1,-1,2,1
1569407314774668,-1,1,0,1,-1,-1,-4,-2
1569407314774668,0,-2,1,0,1,-1,-2,0
1569407314786631,-2,1,0,0,-1,-2,-3,-4
1569407314786631,8,0,-2,0,-2,-1,0,8
1569407314795598,-4,-4,-2,-4,-1,-2,-2,1
1569407314795598,2,0,0,-2,-1,-3,-3,-5
1569407314810557,-1,0,0,-1,0,1,-1,0
1569407314810557,-1,0,-1,0,0,-2,-1,-3
1569407314811555,2,-1,0,-1,1,-1,1,8
1569407314811555,-4,-2,-3,0,0,3,9,1
1569407314832537,1,-1,-2,-1,-1,-2,0,0
1569407314832537,-7,-2,1,0,-2,-5,-8,-8
1569407314834496,1,-2,-2,-3,-1,-2,0,5
1569407314834496,-3,-1,-2,-2,0,1,0,-4
1569407314846490,1,1,-1,0,0,-1,-5,-3
1569407314846490,-2,-2,-1,-1,-1,-1,0,2
1569407314855438,-2,0,-2,-1,0,0,1,-2
1569407314855438,-2,1,1,-2,-2,-4,-7,-8
1569407314870398,2,-1,-1,-3,-2,3,2,8
1569407314870398,-1,-1,-1,-1,2,-1,-4,-6
1569407314871394,-1,1,2,1,0,-1,-2,-1
1569407314871394,3,0,-1,0,-1,-1,-2,-1
1569407314892340,-1,-1,0,0,-1,-1,-2,6
1569407314892340,-2,-1,-1,1,-1,0,0,-2
1569407314894334,1,1,-1,0,0,-1,-1,2
1569407314894334,1,-1,-1,-2,-2,-2,-4,-2
1569407314915277,-2,-1,-1,-1,-1,-1,2,7
1569407314915277,-1,-1,0,-3,-2,2,10,0
1569407314916275,-1,1,-1,0,0,-3,-9,-7
1569407314916275,1,0,-1,1,-1,-1,-1,6
1569407314930237,-1,-2,-1,1,1,-1,2,0
1569407314930237,0,0,0,-1,0,-1,-4,-3
1569407314931237,-2,-1,-1,0,-1,-1,0,-3
1569407314931237,-7,-1,1,-1,1,-1,-2,-14
1569407314952180,-3,-1,0,0,1,-1,-2,-11
1569407314952180,-4,-2,-3,-2,-1,0,6,-5
1569407314954172,-1,-1,0,1,-1,-1,-2,-2
1569407314954172,3,0,1,1,-1,0,-1,-1
1569407314975119,-1,1,0,-1,-1,-2,0,-1
1569407314975119,-1,-1,0,-1,0,-1,-3,3
1569407314977158,-1,1,-2,-2,0,1,3,1
1569407314977158,-5,-2,-2,-1,0,0,0,-13
1569407314989114,0,0,-1,1,-1,1,-1,1
1569407314989114,3,0,0,0,1,-1,-2,8
1569407314996063,1,-2,-1,-1,-2,-1,1,2
1569407314996063,1,1,0,1,0,-3,-15,-8
1569407315013016,1,1,-1,-2,-1,-2,1,3
1569407315013016,0,0,-2,-1,-1,-1,-1,1
1569407315014016,1,0,0,-1,0,-1,3,3
1569407315014016,-5,-1,-2,-2,0,0,0,-7
1569407315034958,-5,-1,1,-1,-1,-1,-4,-10
1569407315034958,2,1,-1,1,-2,0,-8,3
1569407315036958,2,1,0,-2,1,2,6,5
1569407315036958,1,-3,-3,-1,-1,0,2,3
1569407315048921,0,0,-3,-1,0,-2,-1,-1
1569407315048921,-2,0,1,1,-1,-3,2,-3
1569407315055936,-4,-1,0,-1,-1,1,-1,-5
1569407315055936,0,-1,2,0,-1,-1,0,0
1569407315072859,-1,0,-1,1,-1,-2,-3,3
1569407315072859,4,0,-3,-2,0,0,4,10
1569407315073860,5,0,1,-1,-1,-1,-2,10
1569407315073860,3,-2,-1,1,0,-1,1,0
1569407315094798,0,-1,-1,-2,-1,1,1,-1
1569407315094798,4,-1,-1,0,-1,0,-6,10
1569407315096793,-6,-1,-1,-1,-1,-1,0,-6
1569407315096793,-2,-1,-2,-2,-1,1,2,5
1569407315109758,0,-1,0,0,0,0,-1,3
1569407315109758,-1,-3,0,-1,0,0,3,3
1569407315115748,-1,0,0,1,-1,-1,-4,-4
1569407315115748,7,2,1,1,-2,-1,-4,2
1569407315132698,2,1,1,0,1,3,6,9
1569407315132698,-3,1,-1,-1,0,-2,-2,-10
1569407315134711,1,-1,-3,-1,1,-1,1,10
1569407315134711,-8,-3,-3,-2,-1,1,3,-2
1569407315154638,2,0,-1,-1,-3,-4,-6,-2
1569407315154638,-2,-1,0,0,1,-1,-1,-5
1569407315156632,2,0,-1,0,0,-1,-2,-1
1569407315156632,0,1,-1,0,0,0,-2,-2
1569407315169598,1,-1,1,-1,-1,-1,1,2
1569407315169598,-4,0,0,0,-1,-3,-11,-2
1569407315176589,-6,-3,-1,-1,-2,-4,0,-14
1569407315176589,-3,-4,-1,-2,-1,-2,4,1
1569407315192545,-1,0,1,1,0,-1,-3,2
1569407315192545,0,-1,-1,0,-1,-2,2,0
1569407315194531,-3,0,-1,0,-1,-2,-3,-5
1569407315194531,0,2,-1,-1,2,-2,-3,-5
1569407315215487,-2,-2,-2,-2,-1,0,0,5
1569407315215487,-3,-1,0,-1,-1,0,1,-6
1569407315216474,5,0,-2,-1,-2,1,1,5
1569407315216474,-2,-3,-1,-2,0,-2,1,-4
1569407315229438,0,0,0,0,1,-1,-4,-5
1569407315229438,2,0,0,0,0,-2,-1,-2
1569407315236444,-2,0,0,0,0,-2,-1,-2
1569407315236444,-1,-1,0,-1,-2,0,-1,-2
1569407315252387,-6,-2,-1,0,-1,-2,-1,-4
1569407315252387,-1,-1,1,0,-2,-1,-1,-1
1569407315254372,0,-2,-1,-1,-1,1,0,-1
1569407315254372,-2,0,0,1,-1,-1,-2,-5
1569407315275315,-1,-2,-1,-1,-2,1,3,2
1569407315275315,-5,-2,0,0,-2,3,13,-10
1569407315276322,-2,1,0,0,-1,0,-2,-4
1569407315276322,1,-1,0,0,0,0,-2,-1
1569407315289277,-1,1,-1,-1,0,0,1,-3
1569407315289277,2,0,-3,-1,0,-2,-2,2
1569407315296259,3,-2,-2,-1,-3,1,2,12
1569407315296259,-1,-3,1,0,0,0,-2,-9
1569407315312226,3,-1,-1,-1,-2,0,-1,9
1569407315312226,-2,0,-1,-1,0,1,-2,6
1569407315314212,0,1,1,-1,0,-3,-3,-7
1569407315314212,-5,1,-1,0,0,-1,-2,-1
1569407315335155,0,0,-2,0,-2,1,2,3
1569407315335155,1,2,1,2,0,-2,-3,-4
1569407315337152,-4,-1,1,0,-1,0,-5,-5
1569407315337152,1,-1,-2,-1,-2,0,1,-1
1569407315350131,-1,0,0,-2,-1,-2,1,-3
1569407315350131,-2,-3,-1,-3,-2,-2,-1,-1
1569407315356131,1,2,0,1,0,0,-7,2
1569407315356131,2,0,0,-2,-1,-1,-2,-3
1569407315372057,-2,-1,0,0,0,2,0,2
1569407315372057,1,-1,-1,0,0,-1,-5,-1
1569407315374050,-1,-1,-1,-1,-1,0,3,-3
1569407315374050,-2,-2,1,-1,-2,0,-2,-2
1569407315395005,1,-2,-1,-1,-1,-3,-3,-3
1569407315395005,-2,-1,-2,-1,0,1,4,-4
1569407315396990,-5,-2,-1,0,-1,-2,-2,-11
1569407315396990,0,0,-1,1,-1,-1,-1,-2
1569407315408969,-1,-3,-1,0,-2,0,1,-2
1569407315408969,0,-1,0,-1,0,1,1,2
1569407315417937,-4,-3,-3,-3,-2,-1,-2,-12
1569407315417937,6,1,1,0,1,-2,0,9
1569407315432894,-3,-1,0,0,1,0,-2,0
1569407315432894,0,0,-1,-1,-2,1,3,-1
1569407315434892,4,1,-1,0,0,-3,-7,2
1569407315434892,-1,-1,-2,-1,-2,0,0,-5
1569407315454836,3,-1,-4,-1,1,-2,-1,4
1569407315454836,2,-1,-1,-1,-2,-1,-2,-1
1569407315456830,-1,-2,-2,-1,0,1,4,0
1569407315456830,0,1,0,0,-1,-1,-2,-3
1569407315468798,1,2,0,0,0,0,0,0
1569407315468798,-5,-2,0,-2,1,0,3,0
1569407315477775,-1,-2,-2,-2,-1,-3,-4,-1
1569407315477775,-1,1,0,1,1,1,-3,-1
1569407315492764,-2,0,0,-2,-1,-2,2,-2
1569407315492764,-2,-2,-2,-2,-1,0,2,-3
1569407315493731,-1,0,-1,0,-3,0,4,-3
1569407315493731,-3,0,0,-2,0,-1,-2,-7
1569407315514703,-3,-3,-2,0,-1,1,-1,3
1569407315514703,2,2,0,0,1,1,-2,3
1569407315516671,1,0,-1,0,0,1,4,2
1569407315516671,-2,0,-2,0,-2,-1,-3,-4
1569407315528668,0,0,0,-2,-1,-1,3,-3
1569407315528668,-3,0,0,1,-1,-3,-1,-7
1569407315537613,3,1,0,-1,-1,-2,-6,7
1569407315537613,4,1,1,-1,0,-2,-5,5
1569407315552575,1,1,1,0,1,3,4,11
1569407315552575,-1,-3,-3,0,-2,0,-2,3
1569407315554569,1,1,2,1,0,0,1,1
1569407315554569,-2,-3,-2,-1,-3,1,2,-2
1569407315575541,0,1,1,0,-1,-2,-7,4
1569407315575541,-2,-1,2,0,-2,-2,-4,-8
1569407315576513,-2,0,-3,-1,-1,0,5,7
1569407315576513,-8,-2,-1,-3,-2,-4,-8,-16
1569407315588482,-1,-1,0,0,0,1,-1,-8
1569407315588482,-1,0,0,0,-2,-2,-3,0
1569407315597454,0,-1,-1,0,0,0,1,1
1569407315597454,-4,-2,-2,-2,0,0,3,-3
1569407315612414,-2,-1,-2,-3,-2,-1,2,0
1569407315612414,0,-1,2,-1,1,0,1,2
1569407315614409,-1,0,2,0,0,-3,-2,-10
1569407315614409,3,-1,-2,0,2,2,1,6
1569407315635353,-1,-1,1,-1,-1,-2,-3,-9
1569407315635353,3,0,-2,0,1,0,0,3
1569407315637346,8,4,2,2,-1,-2,2,15
1569407315637346,-2,-2,-2,0,0,-1,0,3
1569407315648328,-3,-4,-2,0,-2,-3,-1,-4
1569407315648328,2,3,-1,-2,-1,-1,-1,-3
1569407315657304,-3,-2,-2,-3,-1,1,-2,-7
1569407315657304,-1,0,-1,0,-2,-1,3,2
1569407315672254,-1,-1,-2,-1,-1,0,0,0
1569407315672254,-1,-2,-1,-2,0,2,-1,-1
1569407315674249,2,1,3,0,0,-2,-4,3
1569407315674249,-6,-2,1,0,-1,-1,-3,-5
1569407315695193,-4,0,-1,0,-2,-1,-2,-10
1569407315695193,1,-1,-3,1,0,-1,0,1
1569407315697188,-4,-4,-2,-2,0,1,1,-8
1569407315697188,5,-1,0,1,0,0,2,3
1569407315717135,0,-2,-1,0,-2,-2,-1,1
1569407315717135,-4,-3,-3,0,1,-2,-2,-3
1569407315719129,-2,-1,-1,0,1,0,2,-11
1569407315719129,-4,-1,-3,-2,0,-1,-1,-8
1569407315732094,3,0,0,0,-1,0,-8,1
1569407315732094,4,1,2,1,-2,-4,-7,0
1569407315734093,-3,-2,-2,-1,-2,-1,0,-7
1569407315734093,-1,0,1,1,1,0,0,2
1569407315755033,-3,0,-3,-2,1,1,1,0
1569407315755033,-1,0,-2,-2,-1,0,2,5
1569407315757055,-3,-1,-3,-3,0,-2,-4,-11
1569407315757055,2,-2,-1,0,1,0,1,10
1569407315768996,3,-1,-2,-2,-1,-2,1,1
1569407315768996,-2,-1,0,0,-2,-2,-1,-1
1569407315777972,-6,-3,-3,-2,-1,1,3,-9
1569407315777972,-5,-1,-1,-2,-1,-2,2,-1
1569407315792960,-2,-1,-1,-2,-1,1,2,5
1569407315792960,-1,0,0,0,-2,2,2,-4
1569407315793930,-2,0,-2,-1,-1,0,-2,-2
1569407315793930,-2,1,0,-2,1,-2,-2,-3
1569407315814872,2,1,2,-1,0,-2,1,6
1569407315814872,-1,0,0,0,0,-4,-10,1
1569407315816868,7,0,1,0,-1,2,2,13
1569407315816868,4,-1,0,0,0,1,-2,-1
1569407315837812,0,2,0,0,1,-1,1,-3
1569407315837812,-3,-2,-3,0,-1,-1,2,-2
1569407315838810,-5,-3,-2,-1,0,1,0,-8
1569407315838810,-3,-1,0,0,0,-1,-5,-9
1569407315852772,3,1,1,0,0,-3,-1,7
1569407315852772,-1,-1,1,-1,-1,-1,2,0
1569407315853779,1,0,-1,0,0,-1,-1,-5
1569407315853779,-5,-1,0,-1,-2,0,0,-5
1569407315874713,-3,-4,-2,-1,-1,1,-1,-4
1569407315874713,0,-1,0,-1,0,1,1,0
1569407315876710,-3,-1,-1,-1,-2,-1,4,-5
1569407315876710,10,3,0,0,-2,-1,-14,10
1569407315897683,-9,-5,-3,-2,-1,-5,-7,-19
1569407315897683,-3,-3,-3,-3,-1,0,7,3
1569407315899750,-1,-1,-1,-1,-2,-2,0,-5
1569407315899750,-3,-1,-1,0,-2,1,4,-1
1569407315912612,-3,-1,-1,-1,-3,-3,-4,-10
1569407315912612,-2,0,-2,-2,-2,1,-1,1
1569407315914607,-3,-2,-1,1,1,0,-5,-12
1569407315914607,-1,-1,-1,0,-1,1,1,-3
1569407315935550,5,1,0,0,-1,-1,1,9
1569407315935550,0,0,2,1,0,2,2,-2
1569407315936547,-3,0,0,0,0,0,-5,-3
1569407315936547,-6,-2,-2,-1,0,-3,-1,-11
1569407315957520,3,-1,-1,0,1,3,3,8
1569407315957520,-2,-2,-3,-1,-2,-2,-2,1
1569407315959487,-1,-2,-1,-3,-1,-2,1,2
1569407315959487,1,-3,-2,0,-2,0,1,2
1569407315972509,2,2,2,1,-1,0,-11,1
1569407315972509,0,-2,-1,0,0,0,0,5
1569407315979452,3,3,1,0,0,0,1,2
1569407315979452,1,0,-2,0,-1,1,5,3
1569407315995391,-2,-2,-3,0,-2,0,4,-3
1569407315995391,3,0,1,0,0,2,2,4
1569407315996387,6,3,2,2,0,-4,-12,3
1569407315996387,0,1,0,-1,0,-1,-1,4
1569407316017342,-1,-1,0,0,-1,-1,0,-1
1569407316017342,0,-1,2,-3,-1,-1,-2,-3
1569407316019327,-2,0,-2,-2,-3,0,3,-5
1569407316019327,0,3,2,0,0,0,-1,3
1569407316032292,-4,-1,-2,-1,1,1,2,-4
1569407316032292,-3,-1,-2,-1,1,-1,0,-1
1569407316039277,-3,-2,0,0,0,0,1,-3
1569407316039277,-9,-4,-2,-1,-2,-3,-5,-10
1569407316055230,-2,-1,-1,-1,-3,0,0,-4
1569407316055230,9,3,1,1,-1,-3,-13,14
1569407316056228,-5,-2,-2,-2,0,1,0,-10
1569407316056228,2,-1,0,-1,0,1,5,18
1569407316078322,4,-2,-1,-3,-1,0,2,10
1569407316078322,-4,-1,-3,-1,0,-1,4,-7
1569407316079167,1,-4,-3,-2,-2,-2,-4,-3
1569407316079167,2,-1,-2,0,0,-2,-2,1
1569407316092132,-2,-2,0,1,1,0,1,-1
1569407316092132,1,0,1,-1,-2,-2,2,3
1569407316099112,-1,-1,0,-1,0,0,0,-3
1569407316099112,-1,-1,0,0,-3,1,2,-4
1569407316115072,-3,1,-1,1,-1,-1,1,0
1569407316115072,-3,0,-2,-2,0,0,0,-7
1569407316117067,0,-1,-1,0,0,-1,0,-4
1569407316117067,2,-1,-1,-1,0,1,-2,0
1569407316138329,0,0,-1,-1,1,-1,-1,0
1569407316138329,-1,-2,-2,0,-1,0,-1,-1
1569407316139135,-3,-1,-1,1,-1,1,6,-6
1569407316139135,3,1,-2,-2,0,2,0,3
1569407316152140,-2,-2,0,0,-1,-1,-3,-2
1569407316152140,4,-1,-1,1,-1,0,2,11
1569407316159083,-5,-2,-1,0,-1,-1,1,-6
1569407316159083,-2,-2,0,-1,0,-1,0,-5
1569407316175040,0,-1,-2,-2,-1,1,3,0
1569407316175040,4,-1,-2,-2,-3,-3,-3,0
1569407316177034,1,1,1,0,-1,-1,-2,-6
1569407316177034,-1,0,-2,-3,0,1,2,5
1569407316197978,1,1,0,-1,-1,0,2,-5
1569407316197978,-3,-3,-2,0,0,1,3,-3
1569407316198975,0,2,-1,-2,-4,-2,-6,0
1569407316198975,-2,-1,0,-1,-1,-3,-3,-2
1569407316211941,0,0,-3,0,0,1,1,3
1569407316211941,-2,2,1,1,0,0,-1,-4
1569407316218970,-1,-1,-2,0,0,-1,-2,2
1569407316218970,-1,-1,0,0,-1,1,2,5
1569407316234881,0,-1,-1,-1,0,-1,-3,1
1569407316234881,-3,0,3,0,0,0,1,-6
1569407316236873,4,1,1,-1,1,-5,-15,4
1569407316236873,0,-1,-1,1,-2,0,0,-2
1569407316257828,6,1,-2,0,0,-2,-3,5
1569407316257828,-2,-1,-1,-1,0,0,2,2
1569407316258816,-4,-2,-2,-1,0,1,3,0
1569407316258816,2,-2,-4,-3,0,-3,-1,4
1569407316271838,-5,-2,2,-1,0,-1,-3,-12
1569407316271838,3,2,0,1,-1,-1,0,9
1569407316278797,2,2,0,1,1,-1,-4,-4
1569407316278797,-2,-2,-2,0,0,0,0,1
1569407316294720,-3,0,1,0,-1,0,1,-1
1569407316294720,-1,0,-1,-3,-2,-1,-3,-2
1569407316296714,-2,-2,-2,1,-1,-1,1,-5
1569407316296714,0,1,1,0,-1,-1,-2,1
1569407316317664,1,0,-1,-1,0,-1,0,1
1569407316317664,-2,-1,-1,0,-2,0,0,-1
1569407316318656,1,-3,-1,-1,-1,0,0,1
1569407316318656,0,-1,1,2,-1,1,-1,2
1569407316331621,-2,-2,-1,1,-1,-1,2,0
1569407316331621,-1,-1,-1,-1,-1,-1,-1,3
1569407316340597,0,-2,0,0,-1,0,0,-1
1569407316340597,1,2,1,3,-2,-5,-6,-3
1569407316355595,-1,-2,-2,-2,-1,2,2,6
1569407316355595,1,-1,-1,0,-2,0,-1,3
1569407316356554,0,-1,-1,-1,0,0,1,-6
1569407316356554,-4,-3,-2,-3,-1,0,2,-1
1569407316377526,3,-2,-1,-1,-2,-2,-3,-6
1569407316377526,3,3,2,2,0,2,3,8
1569407316379493,2,1,-2,-1,0,-1,1,9
1569407316379493,-2,0,-1,-1,-1,1,0,2
1569407316391494,-3,0,-1,-1,-1,-1,0,-6
1569407316391494,0,-1,-1,-1,-1,0,0,-5
1569407316400440,-6,-2,-1,-1,-2,-1,2,-8
1569407316400440,10,2,-1,0,1,-2,-2,21
1569407316415397,-2,-1,-1,2,-1,0,0,3
1569407316415397,-4,-2,-1,-1,2,0,-2,-6
1569407316416415,-2,0,0,-1,-1,0,-2,-6
1569407316416415,-2,-1,-1,0,-1,-1,0,-7
1569407316437375,0,-2,0,-1,-2,0,-1,2
1569407316437375,-4,-4,-4,-1,-1,1,8,-4
1569407316439335,-1,0,-1,-1,-2,-2,-2,-4
1569407316439335,-2,-2,-1,-2,1,1,4,-2
1569407316451301,0,-1,0,-1,0,0,-1,-1
1569407316451301,-4,-2,-1,-2,0,-2,-2,-10
1569407316460277,3,0,0,0,-1,1,-1,3
1569407316460277,-2,-1,0,0,0,-1,-2,-5
1569407316475295,-2,-1,-1,-1,-2,0,-1,-4
1569407316475295,1,0,-2,1,-2,-1,-1,3
1569407316476269,-5,-1,0,-1,-1,-2,-2,-10
1569407316476269,5,-1,-2,-1,-1,0,1,11
1569407316497209,0,1,0,-1,-1,0,-1,4
1569407316497209,0,2,-1,-1,0,-1,-2,4
1569407316499173,-1,-1,0,-1,0,-2,-2,-5
1569407316499173,0,0,-1,0,0,1,1,-1
1569407316511178,-1,1,-3,-1,-1,-1,2,3
1569407316511178,1,-1,0,-1,-1,-1,-5,7
1569407316520117,0,0,-1,-1,-1,2,0,6
1569407316520117,-6,-1,-2,-2,-2,-1,-3,-8
1569407316535077,2,-1,-2,0,0,-2,-3,1
1569407316535077,-1,0,0,-1,-1,0,1,-2
1569407316537072,-10,-4,-3,-1,0,0,9,-26
1569407316537072,-2,-1,0,-1,0,-1,-2,-1
1569407316558018,-1,-1,0,2,2,2,2,-8
1569407316558018,-3,-1,-1,-1,0,-2,0,4
1569407316559013,-1,-1,-1,-1,0,-2,-3,-4
1569407316559013,1,0,1,0,-1,-3,-4,1
1569407316570981,0,0,1,-1,-2,-2,-2,-3
1569407316570981,1,-1,0,0,-1,-1,1,0
1569407316579956,2,1,0,0,1,0,-4,-1
1569407316579956,-1,-1,-1,-1,0,-2,0,-3
1569407316594952,1,0,0,0,1,0,-3,2
1569407316594952,1,-1,0,-2,1,-1,1,2
1569407316596933,3,-2,-1,-1,0,0,-2,0
1569407316596933,-1,0,-1,-1,1,0,2,4
1569407316617859,-2,0,0,0,-3,-4,-2,-5
1569407316617859,-1,-1,-2,0,0,0,0,-4
1569407316618873,2,-1,-2,-3,-2,-1,-2,3
1569407316618873,-2,0,-1,-1,1,-1,-1,-3
1569407316630821,0,0,-1,-1,0,1,-2,2
1569407316630821,0,1,0,-2,-1,-5,-15,1
1569407316639797,2,-1,0,1,0,-2,-4,-2
1569407316639797,2,-1,-2,-1,-1,-1,1,4
1569407316655763,-5,-1,-2,-1,1,-4,-1,-7
1569407316655763,-7,-4,-2,0,-2,1,10,-5
1569407316656752,5,1,0,-1,-1,-2,0,2
1569407316656752,2,0,0,0,-2,1,-1,3
1569407316677697,-4,0,-1,-1,-1,-3,-1,0
1569407316677697,-1,0,-2,-1,-1,-1,2,1
1569407316678914,-1,-1,1,-1,-1,0,-1,-4
1569407316678914,1,0,-1,-1,-2,1,4,8
1569407316690884,4,-2,-2,-1,0,0,3,2
1569407316690884,0,0,-1,1,0,0,-2,3
1569407316700860,-2,-1,-2,0,0,-1,0,0
1569407316700860,-1,-1,0,1,-1,0,-1,7
1569407316715818,-4,-2,-1,-1,-1,-1,0,-3
1569407316715818,-2,0,2,-1,-1,-1,1,-8
1569407316716816,-1,0,0,1,-1,-7,-19,-13
1569407316716816,3,-1,-2,0,0,-1,1,3
1569407316737759,0,0,-1,0,1,0,0,-2
1569407316737759,3,-1,-3,-2,-1,-1,5,5
1569407316738777,-5,-2,0,-1,-1,2,4,-1
1569407316738777,-4,1,-1,-2,0,0,0,-5
1569407316751723,1,-1,3,-1,-1,-1,-4,3
1569407316751723,2,-1,-2,0,0,0,-2,2
1569407316760697,-2,0,0,-1,-2,0,4,2
1569407316760697,0,-1,-1,-1,-1,-2,-3,-3
1569407316774981,0,-1,0,-1,0,2,4,5
1569407316774981,-1,0,-1,-2,0,1,0,0
1569407316776976,1,-1,-1,-1,-1,1,-1,0
1569407316776976,-4,-1,-2,-2,0,-1,2,0
1569407316797949,-3,0,-2,-1,-2,0,-3,-9
1569407316797949,2,2,2,1,1,-3,-3,7
1569407316798917,1,-1,-2,-1,1,1,3,-2
1569407316798917,-5,-4,-3,-3,-3,-1,-1,-3
1569407316819871,-1,0,1,0,-1,-2,-4,-9
1569407316819871,7,3,1,2,-2,-2,-13,13
1569407316821855,-5,-1,-2,0,0,-2,0,-7
1569407316821855,3,1,0,-1,0,0,-4,5
1569407316834823,6,-2,-3,-2,-2,0,5,15
1569407316834823,-3,-2,-2,-1,-1,2,4,-4
1569407316836815,-1,0,-1,-1,-1,1,0,-3
1569407316836815,-1,2,1,3,0,-1,-1,-4
1569407316857759,-1,0,-1,1,0,0,1,0
1569407316857759,0,-1,-1,-1,-2,0,0,-5
1569407316858829,0,-2,0,-1,0,-1,-2,-2
1569407316858829,-1,-2,-1,-1,0,-2,2,1
1569407316879710,1,1,-1,-1,0,0,0,2
1569407316879710,-4,-3,-1,0,-1,-1,2,-3
1569407316881696,-1,-1,1,0,0,-1,-3,-6
1569407316881696,1,1,1,0,-2,1,1,2
1569407316894669,-3,-3,0,-1,-1,-1,0,-10
1569407316894669,2,0,1,-1,1,0,2,1
1569407316901643,-5,-1,-1,1,0,-1,-2,-3
1569407316901643,-1,0,0,0,0,-1,0,-1
1569407316917646,-4,-2,-2,-1,1,-1,2,-2
1569407316917646,1,-2,-1,-1,-2,-1,-3,-4
1569407316919611,-3,0,0,0,-1,-1,0,-10
1569407316919611,-2,-3,-1,-1,-2,-1,-5,-9
1569407316940562,7,-1,-1,-2,-1,-1,1,18
1569407316940562,-3,-3,-1,-2,-2,-1,0,-2
1569407316941537,0,0,0,-2,-1,0,0,-4
1569407316941537,4,1,1,0,0,0,-2,4
1569407316954719,-2,3,2,1,-1,-2,-5,-10
1569407316954719,-2,-2,-1,0,0,-1,-3,-1
1569407316961765,2,-1,-3,0,-2,-1,-1,0
1569407316961765,-2,-1,-1,-1,-1,-1,2,3
1569407316977723,0,0,0,0,-1,-1,-2,-1
1569407316977723,0,1,-1,0,1,-1,2,-3
1569407316979435,-1,-3,-1,-1,2,-2,0,-1
1569407316979435,-2,-1,-1,0,-2,-1,0,0
1569407317000379,-2,-2,-1,2,-1,1,-2,-3
1569407317000379,-1,-2,0,-2,0,0,1,-5
1569407317001535,2,-3,0,-2,0,-2,-10,0
1569407317001535,4,2,2,-1,0,-3,-1,14
1569407317014616,-7,-3,1,-1,-1,0,6,-14
1569407317014616,1,3,4,2,-1,-5,-7,-3
1569407317021969,1,0,-1,1,-3,-1,1,1
1569407317021969,0,-2,-1,0,-1,-1,-2,1
1569407317037934,-2,0,-1,-2,-2,1,-2,1
1569407317037934,-1,-1,-2,-3,-1,1,5,-1
1569407317038898,0,1,0,-1,0,-2,0,-2
1569407317038898,-3,-1,0,0,0,0,-3,-5
1569407317060900,4,0,-2,-1,-1,-2,-1,6
1569407317060900,-5,-1,-2,0,-1,-2,-1,-4
1569407317061900,0,0,1,1,-1,0,4,0
1569407317061900,2,-1,-2,-1,0,1,-7,4
1569407317075132,-2,1,-1,-1,2,-2,-2,-1
1569407317075132,-2,-1,-1,-1,0,0,0,-1
1569407317081931,-2,-1,1,0,-2,-1,3,-4
1569407317081931,-2,0,-1,-1,-2,1,4,-2
1569407317098095,2,0,-1,1,-2,-1,0,7
1569407317098095,1,0,-1,-1,-1,-1,-4,-2
1569407317099835,-1,0,-2,-1,-1,-2,-2,-1
1569407317099835,3,1,0,1,0,0,1,17
1569407317128018,0,0,-3,-1,-1,0,-3,-2
1569407317128018,-4,-3,0,-2,0,-1,1,-7
1569407317129936,1,0,0,-1,-1,0,1,5
1569407317129936,-5,-1,-2,-3,-1,0,2,-5
1569407317134997,-3,-1,0,-1,-1,-1,0,-4
1569407317134997,2,1,-2,0,0,0,2,8
1569407317141955,-4,-2,-1,-2,0,0,0,-6
1569407317141955,3,-1,-1,-1,-1,0,-2,-2
1569407317157938,0,0,1,1,-2,-1,0,0
1569407317157938,-2,-1,-1,0,0,0,-1,-6
1569407317159932,1,0,-1,1,0,0,-2,0
1569407317159932,-2,-2,2,1,-1,-2,2,-5
1569407317180785,3,0,0,-1,1,1,-2,8
1569407317180785,-1,0,-2,0,0,0,0,-4
1569407317181580,-1,-1,-1,-1,0,0,0,1
1569407317181580,-4,0,-1,-1,-1,-1,0,-6
1569407317194839,1,-1,-1,0,1,0,0,3
1569407317194839,2,-1,0,-3,-1,-2,-3,-6
1569407317201818,0,-1,-3,-2,0,1,-2,-2
1569407317201818,0,2,-2,-3,-2,0,3,10
1569407317217523,-1,1,1,0,-1,0,0,-6
1569407317217523,-2,-5,9,0,-1,-1,0,0
1569407317219478,-8,-2,-5,3,1,-1,-3,-12
1569407317219478,-1,1,0,0,9,4,-2,-8
1569407317240423,6,-3,-13,-13,-7,-2,1,3
1569407317240423,-8,3,-7,4,-8,-5,-3,-6
1569407317241613,13,11,7,-5,-5,-3,-2,-8
1569407317241613,-17,-4,2,-1,-4,-2,-2,-13
1569407317254677,10,-5,9,9,3,2,0,15
1569407317254677,0,6,7,5,5,4,1,-8
1569407317261661,-5,-15,-4,-18,-11,-3,-2,3
1569407317261661,-24,-4,-19,2,14,3,1,-4
1569407317278365,19,5,-7,10,13,5,0,-7
1569407317278365,-14,-1,13,2,5,-2,-1,3
1569407317279319,10,16,33,15,-17,-3,2,8
1569407317279319,2,-10,4,-5,-13,-8,-1,3
1569407317300263,9,10,-23,-3,-2,-6,-4,-3
1569407317300263,-37,-12,-14,-2,4,3,-1,-6
1569407317301463,22,13,3,-4,12,3,-2,-1
1569407317301463,-15,-17,15,6,-1,1,-5,-9
1569407317314474,-12,-1,14,-9,-7,-5,-4,-7
1569407317314474,12,-9,-32,-10,-6,-2,-1,1
1569407317323201,-11,2,-14,-4,2,-1,3,2
1569407317323201,23,17,7,0,-4,0,2,9
1569407317338278,0,-10,20,10,-2,1,3,8
1569407317338278,-1,-8,4,-3,2,2,0,-3
1569407317339159,-11,0,-10,6,-5,0,-2,-6
1569407317339159,21,13,-16,0,4,1,1,2
1569407317360395,-17,-2,27,-10,-19,-2,-2,-8
1569407317360395,-4,-12,-3,-6,12,-2,-4,-3
1569407317362098,-7,-23,-39,-5,-1,-2,-2,2
1569407317362098,5,6,16,-1,-1,-1,2,9
1569407317374357,-5,10,-20,-9,-1,0,2,1
1569407317374357,11,0,7,7,-10,-2,1,-3
1569407317383082,5,2,19,15,18,5,2,-3
1569407317383082,6,17,19,13,2,-1,-1,-6
1569407317398307,-3,14,28,-4,-7,-2,-3,-4
1569407317398307,0,-20,-38,-3,-2,0,-3,-10
1569407317399063,-1,-2,-17,4,19,3,0,-6
1569407317399063,-10,-14,22,-21,-27,-4,0,3
1569407317419943,-4,0,-23,12,18,0,-3,-3
1569407317419943,9,15,10,-7,-13,-1,1,-2
1569407317421955,-7,-7,7,-2,-7,-3,-3,1
1569407317421955,3,-7,-13,7,15,-1,1,9
1569407317433909,3,4,12,3,1,1,-1,5
1569407317433909,4,22,13,1,-4,-3,-3,0
1569407317442884,-7,-16,-8,-4,0,-1,-1,-7
1569407317442884,0,0,0,-2,-9,-3,-2,0
1569407317457842,-9,-20,-29,-9,-11,-2,2,6
1569407317457842,12,1,-7,11,17,2,2,4
1569407317458839,-1,10,34,-3,-11,-3,-4,-6
1569407317458839,0,10,-11,-5,-11,0,-3,-5
1569407317479783,0,-1,-4,4,3,0,-3,-10
1569407317479783,4,-2,12,0,13,3,-1,-1
1569407317481779,4,-6,-1,3,-9,0,4,17
1569407317481779,-13,-7,-2,5,12,0,-9,-33
1569407317493746,-15,-9,-6,-7,-7,-4,-5,-16
1569407317493746,8,8,-6,-7,-19,-3,4,17
1569407317502724,-13,1,-11,-9,12,-4,-8,-18
1569407317502724,11,-10,-7,-2,1,1,8,22
1569407317516715,12,4,-4,6,8,-1,4,10
1569407317516715,-14,12,25,6,1,-2,-2,-17
1569407317523695,-5,-4,4,6,2,-2,2,7
1569407317523695,4,5,-6,1,0,1,4,7
1569407317540623,2,-6,-6,-3,16,3,6,7
1569407317540623,13,6,7,2,-5,2,5,11
1569407317541618,-13,-9,-11,-12,-16,-4,-3,-16
1569407317541618,5,10,-9,-2,2,-1,-10,-36
1569407317553586,-3,-4,16,7,1,0,-1,6
1569407317553586,20,-12,1,13,14,2,4,23
1569407317562562,6,15,-3,-10,-18,-4,-5,-9
1569407317562562,-8,-21,-26,-8,17,-1,0,17
1569407317576527,-17,6,7,1,0,1,-1,-2
1569407317576527,13,-2,-5,-11,-13,-4,-7,-16
1569407317583511,8,-2,-7,1,6,1,9,35
1569407317583511,7,3,0,-2,-11,-6,-17,-51
1569407317600467,-5,-19,-12,-7,-5,2,14,39
1569407317600467,-23,18,11,7,0,-5,-6,-18
1569407317601459,-1,-7,-7,-4,5,-1,-2,1
1569407317601459,-9,3,8,4,-2,3,7,26
1569407317613454,41,12,-7,-8,-10,-6,-4,-5
1569407317613454,-15,-29,-15,-6,-11,-3,-3,1
1569407317622403,11,35,30,14,2,0,-3,-19
1569407317622403,-13,-27,-17,-13,-10,0,1,7
1569407317637371,-16,15,6,17,35,2,-6,-16
1569407317637371,37,6,-8,-13,-9,2,2,13
1569407317644347,-48,-17,-5,6,7,1,-4,-14
1569407317644347,14,16,15,13,16,3,4,20
1569407317660301,-6,-18,-11,-13,-27,-2,1,39
1569407317660301,21,-6,-9,-9,-6,-7,-4,36
1569407317662300,-1,-11,-5,-5,2,5,12,52
1569407317662300,-4,6,10,11,4,-3,-2,48
1569407317673274,-6,4,2,2,-8,2,2,-7
1569407317673274,-29,-4,12,6,17,5,4,-26
1569407317682299,11,12,-5,-2,-2,-3,-1,-16
1569407317682299,-9,-20,-18,-9,-14,0,5,-10
1569407317697201,26,15,3,-5,-6,-2,-4,-3
1569407317697201,-17,-8,11,5,-1,5,5,-13
1569407317704422,29,7,-9,-12,-8,1,-7,-47
1569407317704422,-38,-18,5,20,36,5,-4,-12
1569407317720141,5,1,-9,-10,-14,0,4,88
1569407317720141,-23,-11,-6,-6,-9,-7,-11,-88
1569407317722134,-15,-18,12,-2,-11,-4,1,39
1569407317722134,0,3,-3,0,4,-2,0,-128
1569407317743323,-12,-7,1,9,23,3,-2,-87
1569407317743323,25,20,-15,-12,-12,-2,9,-33
1569407317744077,10,4,-3,3,2,-4,-6,-64
1569407317744077,23,5,2,-9,-17,-6,4,73
1569407317757083,6,4,4,1,1,-2,0,58
1569407317757083,-20,-11,-13,-6,1,0,-1,-4
1569407317764065,1,19,19,3,6,4,-8,-18
1569407317764065,18,5,-3,4,-6,0,-2,54
1569407317780020,-23,-13,-5,-4,-4,-3,-1,50
1569407317780020,22,-9,-10,1,9,-1,0,-7
1569407317781975,-7,0,9,4,0,-4,-3,-31
1569407317781975,2,10,7,-15,-22,-2,-1,26
1569407317802959,-1,-5,0,18,27,3,-1,27
1569407317802959,17,14,9,3,-2,-5,-7,-10
1569407317803919,-31,-8,-4,0,2,0,-3,1
1569407317803919,11,3,-9,-5,-5,1,2,8
1569407317816886,-18,-11,7,-5,-11,-4,6,45
1569407317816886,-12,9,0,1,2,2,15,10
1569407317823892,40,-3,-12,-7,-7,-3,2,-24
1569407317823892,-43,-39,-11,-2,1,5,8,43
1569407317840847,40,30,12,-3,-10,-3,1,34
1569407317840847,-14,-7,-2,4,5,-1,-13,-21
1569407317841841,-7,8,-5,-5,-4,-2,-17,-19
1569407317841841,2,8,-1,11,10,-2,-15,19
1569407317862788,-8,-8,-5,-4,-4,-3,-6,31
1569407317862788,8,-3,-6,-21,-17,-3,3,-13
1569407317863786,10,4,11,22,23,6,6,-2
1569407317863786,-19,-11,-9,-13,-6,-2,1,-29
1569407317876721,-4,0,8,8,0,-3,-7,-5
1569407317876721,15,16,6,1,-4,2,5,3
1569407317885697,-37,-6,3,-17,-21,-4,-6,18
1569407317885697,9,8,8,22,19,4,6,33
1569407317900682,-3,-7,-10,-18,-10,2,16,28
1569407317900682,7,0,8,27,20,1,3,-7
1569407317901656,0,-3,-5,-7,-18,-2,-7,29
1569407317901656,0,5,5,-2,6,-2,-5,-4
1569407317922631,-1,-7,-10,5,9,1,-6,11
1569407317922631,-2,-2,5,-1,-6,-1,0,-12
1569407317924593,-14,-3,2,6,8,1,-2,-3
1569407317924593,-6,0,-6,-13,-17,-5,3,-11
1569407317936562,30,32,11,9,7,0,10,22
1569407317936562,-20,-28,-3,2,2,1,3,-8
1569407317945539,17,-3,-11,0,-1,-1,-7,28
1569407317945539,3,-10,-8,-13,-11,-4,-1,8
1569407317960773,-2,7,5,3,-1,4,9,11
1569407317960773,18,22,11,21,17,3,0,-5
1569407317961496,-4,-6,0,6,11,2,-9,35
1569407317961496,8,11,6,-2,-11,-1,-6,3
1569407317982440,-1,-13,-11,-8,-3,-1,-5,11
1569407317982440,-11,-3,-6,-15,-13,-6,-10,-23
1569407317984436,-5,-4,-3,11,14,1,-3,10
1569407317984436,-35,-10,17,10,7,5,8,-13
1569407317996431,26,15,-2,-2,-6,0,8,5
1569407317996431,31,-7,-9,-10,-5,-6,-9,-19
1569407318005377,-12,-7,-7,-17,-14,-1,1,33
1569407318005377,2,3,-5,8,5,-1,-2,5
1569407318020338,-24,-10,3,9,3,3,3,-4
1569407318020338,-20,-10,-8,-9,-8,0,2,-15
1569407318021335,18,15,9,6,6,-4,-7,-21
1569407318021335,8,14,5,15,13,4,1,-3
1569407318042289,2,-10,-6,-4,-3,1,5,9
1569407318042289,-2,8,7,0,-1,-2,2,-10
1569407318044275,-15,-16,-8,-11,-5,-1,-2,-1
1569407318044275,5,15,14,-1,-1,1,2,-7
1569407318057240,11,-1,-2,-3,-3,-2,7,21
1569407318057240,3,2,-7,-5,-1,0,-5,-22
1569407318064258,-16,-8,7,3,3,5,13,19
1569407318064258,37,26,-23,-9,-5,-7,-22,-15
1569407318080179,-34,-14,34,7,3,-1,-30,-7
1569407318080179,-41,-29,4,-2,-1,0,-4,-16
1569407318082276,27,-7,-12,2,-1,-2,-1,26
1569407318082276,0,7,-1,-3,-3,-1,0,-12
1569407318102361,18,17,-3,-7,-3,-2,7,15
1569407318102361,-16,6,0,4,4,2,-1,-16
1569407318104114,-1,3,-18,-1,1,1,0,21
1569407318104114,-16,-17,26,-1,-2,-2,-2,-16
1569407318116082,38,6,-11,-1,-1,1,10,7
1569407318116082,-30,-13,9,1,-1,-2,-3,-15
1569407318125062,-13,-19,-10,-3,0,0,-3,27
1569407318125062,4,9,-18,-10,-6,-3,-1,19
1569407318140018,1,-13,2,-4,-4,1,8,10
1569407318140018,8,22,10,12,6,0,-11,-5
1569407318142023,-2,5,-4,-4,-3,-4,-5,-2
1569407318142023,0,-3,7,4,2,3,5,9
1569407318163014,-12,-7,-10,-6,-2,-3,-2,7
1569407318163014,22,6,-4,-4,-3,-2,0,-9
1569407318163955,2,4,6,0,-1,-3,-4,0
1569407318163955,-3,-17,-4,-2,-2,-2,4,13
1569407318175953,-8,-1,-10,-3,-4,-2,-1,-2
1569407318175953,5,0,-8,-4,-1,1,4,19
1569407318184899,-15,-7,0,3,3,2,12,28
1569407318184899,-2,2,-1,-1,-1,-3,-8,-3
1569407318199858,35,7,-4,-5,-3,-3,5,4
1569407318199858,-35,1,4,3,5,1,-5,8
1569407318201852,26,5,4,-1,-6,2,2,8
1569407318201852,-22,-1,4,4,2,-2,0,-16
1569407318222798,-27,-18,3,5,3,3,-1,4
1569407318222798,10,-7,-10,-8,-5,-5,-2,-6
1569407318224791,-37,-6,5,6,2,2,9,-4
1569407318224791,27,0,-8,-8,-6,-2,-1,21
1569407318236765,31,6,2,10,10,5,9,5
1569407318236765,-14,-13,-8,5,10,-3,-16,-21
1569407318244748,-10,1,4,1,-4,1,8,17
1569407318244748,17,0,5,4,3,1,-8,-9
1569407318260699,-28,-4,-5,-7,-11,-1,14,26
1569407318260699,57,27,5,-1,-4,1,8,21
1569407318261709,19,-9,-11,-8,-7,-7,-16,0
1569407318261709,-15,0,3,-2,0,0,2,13
1569407318282637,-9,-7,0,-1,2,-1,-4,-1
1569407318282637,37,4,0,2,2,3,5,7
1569407318284631,-43,-6,-1,-4,-7,-3,-3,-8
1569407318284631,14,4,-3,3,11,2,6,2
1569407318296611,-36,-11,-4,1,0,1,1,-12
1569407318296611,25,18,3,-2,-6,-1,6,-9
1569407318305576,16,11,4,0,2,3,-4,-14
1569407318305576,4,-2,-3,0,-6,-4,2,4
1569407318320564,58,13,4,0,3,-3,-11,-24
1569407318320564,-81,-21,0,-8,-13,-1,-3,-16
1569407318321534,56,31,1,-3,-2,5,8,43
1569407318321534,-46,-19,0,33,39,5,8,-21
1569407318342525,9,5,-2,2,0,-1,2,5
1569407318342525,-10,-9,2,-1,-2,-2,-10,-11
1569407318344472,-14,-5,0,-5,-9,-3,1,-1
1569407318344472,1,-9,-8,-16,-19,1,0,30
1569407318356472,80,34,4,-3,-3,-4,-7,-12
1569407318356472,-44,-22,1,2,1,-5,-17,-12
1569407318365417,10,2,4,3,2,0,-1,22
1569407318365417,9,6,4,-4,-4,0,5,4
1569407318380404,-54,-14,-3,1,0,-1,-3,4
1569407318380404,9,0,-10,-8,-6,3,15,5
1569407318381387,11,5,2,-2,1,-3,-11,-10
1569407318381387,11,1,-2,-5,-15,-6,10,-22
1569407318402346,-7,-2,-1,-4,-4,1,6,7
1569407318402346,2,4,-3,0,-5,-3,-11,-11
1569407318404314,2,6,10,14,30,4,8,16
1569407318404314,-38,-30,-13,-14,-14,-6,15,-39
1569407318416279,-4,-8,-14,-11,-9,-6,-10,-1
1569407318416279,-3,0,6,2,3,0,1,-5
1569407318425257,-29,-16,-7,-6,-14,-5,1,-3
1569407318425257,65,29,-3,-10,-6,0,-6,22
1569407318440217,15,-19,1,5,7,0,2,-1
1569407318440217,11,-8,-2,-3,-2,2,7,4
1569407318442215,10,-7,-1,6,1,-2,7,9
1569407318442215,-10,2,10,6,7,5,-14,-11
1569407318463157,61,49,-6,-3,-6,-1,5,3
1569407318463157,-76,-44,0,-3,0,-5,-12,4
1569407318464152,0,-3,-3,-1,0,3,17,15
1569407318464152,-5,-4,1,-3,-12,-5,-8,16
1569407318476130,-23,-3,0,-5,5,1,-2,-8
1569407318476130,-32,1,-3,15,7,-6,-10,-6
1569407318491364,-1,-3,-2,-1,5,3,6,-13
1569407318491364,-35,-18,3,5,12,6,-9,4
1569407318499341,-38,-5,-2,-10,-10,-1,9,-6
1569407318499341,102,18,-4,-3,-6,1,11,-3
1569407318506076,-80,-40,-15,-17,-25,-12,-20,-11
1569407318506076,32,-12,-7,4,14,-3,-3,19
1569407318522995,8,0,-3,-1,-4,2,0,17
1569407318522995,10,-13,-6,2,6,1,0,-11
1569407318523994,-1,16,14,10,5,4,0,0
1569407318523994,-9,4,-13,-16,-20,-10,-4,3
1569407318535962,-30,-14,2,5,-5,-1,-6,-6
1569407318535962,9,33,8,12,27,5,-14,-1
1569407318544939,-1,-16,-9,-7,-7,-2,-5,26
1569407318544939,4,4,-4,-4,3,1,10,36
1569407318560171,5,-9,5,2,-4,-1,-11,-21
1569407318560171,93,61,1,-7,-11,1,15,17
1569407318566161,2,-39,-12,-5,-17,-9,-9,-6
1569407318566161,66,18,0,1,1,0,-12,-31
1569407318582921,-19,-11,-5,-3,3,-2,0,8
1569407318582921,12,13,15,14,15,0,3,11
1569407318583840,23,17,11,9,19,4,-11,-8
1569407318583840,-11,-1,-7,-15,-27,-1,5,17
1569407318595800,9,-7,-1,1,5,-1,6,12
1569407318595800,-36,-18,-7,-3,1,1,-5,-15
1569407318604786,16,8,3,7,7,6,9,26
1569407318604786,-47,-2,-2,-2,-2,-4,-8,-30
1569407318619736,-26,4,3,1,-6,5,8,6
1569407318619736,16,-25,-18,-17,-17,-13,-10,10
1569407318626718,6,-1,0,5,3,2,-3,-7
1569407318626718,17,10,5,4,8,5,10,31
1569407318642706,-11,-4,-6,5,5,-8,-3,-16
1569407318642706,3,1,3,-1,-1,1,-4,-8
1569407318644687,-6,15,5,4,3,2,7,24
1569407318644687,5,-2,-4,-8,-3,-2,-2,15
1569407318656669,17,-3,7,11,10,3,-5,-12
1569407318656669,-4,15,21,11,-2,4,-1,0
1569407318665613,40,24,-14,-13,-7,-13,-13,-5
1569407318665613,-29,-16,1,-1,-5,2,11,57
1569407318679606,5,-4,-3,-1,3,1,-4,-31
1569407318679606,-32,-30,-6,-4,-1,2,-6,8
1569407318686587,5,6,4,-1,-8,2,8,10
1569407318686587,14,7,1,6,17,-2,-3,-18
1569407318702545,4,1,2,-7,-20,-3,-3,-1
1569407318702545,-21,-6,-5,-3,6,-2,-7,0
1569407318704508,-15,-5,1,-1,2,2,3,6
1569407318704508,-15,1,-1,-4,-18,-2,-3,1
1569407318725482,9,2,3,4,-2,0,-8,-17
1569407318725482,-16,2,0,-1,7,2,-4,5
1569407318726451,4,-4,-2,3,12,-1,3,-4
1569407318726451,19,7,9,8,19,5,1,-2
1569407318739416,-12,-2,-2,-7,-9,-2,3,-6
1569407318739416,3,-3,0,1,-5,-3,-23,4
1569407318746397,17,8,2,-2,-2,0,4,10
1569407318746397,-2,-3,2,0,-3,0,3,-7
1569407318762364,12,5,1,2,4,-2,-17,-9
1569407318762364,-3,1,-2,-1,-1,3,2,6
1569407318764350,12,-2,0,2,6,3,-6,-19
1569407318764350,3,4,-1,0,-5,-2,-1,1
1569407318785331,-26,-12,-6,-5,-1,-3,23,-15
1569407318785331,-6,6,-2,-2,-3,-3,0,2
1569407318786291,1,-7,-1,0,-3,0,-2,-9
1569407318786291,3,-7,-8,-1,-2,-3,-2,-5
1569407318799269,-2,-1,2,0,4,0,-2,-16
1569407318799269,-13,-7,-3,-3,-4,-2,3,21
1569407318807292,-2,9,1,0,-3,-2,-4,-1
1569407318807292,23,-7,-9,-2,-2,-3,-3,-5
1569407318822397,2,3,3,2,6,2,3,-9
1569407318822397,-1,-1,-2,-2,-3,-2,-3,2
1569407318824191,-1,1,1,1,3,2,12,-3
1569407318824191,0,4,3,0,0,-3,-13,-21
1569407318845162,-3,3,-2,-5,1,0,-9,-18
1569407318845162,-11,-17,-8,0,1,-1,4,-6
1569407318847168,5,9,7,2,1,0,7,6
1569407318847168,-17,-1,4,2,0,1,0,-10
1569407318859124,13,2,-7,-6,-1,-1,2,4
1569407318859124,-3,0,-2,-1,-4,0,1,4
1569407318868074,8,-5,-5,0,1,1,5,3
1569407318868074,-1,1,3,1,0,0,5,8
1569407318883033,-1,3,3,4,4,-3,-19,-48
1569407318883033,15,12,9,5,6,4,-9,14
1569407318884029,-1,-2,-3,-4,-3,-1,1,5
1569407318884029,0,-1,0,-2,-1,-1,-5,2
1569407318905003,-16,-8,-3,-4,-2,-2,2,-2
1569407318905003,0,-4,-3,-3,-2,-1,7,19
1569407318906970,5,6,5,2,0,-1,-9,-2
1569407318906970,1,1,-3,-2,1,3,3,26
1569407318918966,0,-6,-2,-1,-2,0,12,15
1569407318918966,2,4,2,3,1,-3,-6,25
1569407318927912,6,1,0,1,-1,-1,-1,-18
1569407318927912,10,1,-1,0,-1,-1,1,18
1569407318942874,-47,-13,-5,-3,-2,-5,-5,-81
1569407318942874,2,-3,-6,-7,-6,-5,-2,16
1569407318943869,-1,-2,4,0,-2,1,8,-20
1569407318943869,19,18,1,-2,9,8,7,-4
1569407318964823,-47,-17,6,9,1,-3,-16,-6
1569407318964823,-2,1,2,1,-5,2,5,40
1569407318966809,-14,-6,-4,-3,-7,-3,12,-12
1569407318966809,-4,9,6,5,4,2,0,-27
1569407318978776,12,9,-2,-1,1,0,-3,-27
1569407318978776,-7,-1,-1,1,0,-1,3,-18
1569407318987752,3,-9,-9,-5,-1,3,3,13
1569407318987752,-9,-8,-3,-1,-4,-2,11,-9
1569407319002712,27,12,6,6,6,5,-25,36
1569407319002712,-5,-9,-14,-9,-4,-2,2,-16
1569407319003710,24,29,13,5,3,-2,-31,-17
1569407319003710,14,-7,1,4,2,-6,-3,6
1569407319025852,4,0,0,-4,-1,0,20,15
1569407319025852,-4,4,-5,-8,8,12,14,29
1569407319026649,-13,-9,17,21,7,3,4,65
1569407319026649,5,-4,-7,-4,-6,-2,-17,-15
1569407319038650,-22,-7,-10,-7,-6,-6,-11,2
1569407319038650,2,-7,-6,-3,-3,-4,7,14
1569407319047593,19,8,-3,-5,-2,-1,4,-8
1569407319047593,-32,-9,-6,-4,-8,-6,33,-8
1569407319062551,53,21,5,3,2,2,1,14
1569407319062551,-54,-21,-4,-2,-5,-8,-15,-39
1569407319064547,17,-2,-2,-3,0,-1,0,-30
1569407319064547,-4,-5,0,1,-1,1,7,-63
1569407319085492,-8,-4,-6,-4,-4,-4,-5,-68
1569407319085492,16,10,7,3,-2,-4,-2,-4
1569407319086487,7,-8,-9,-6,-3,0,24,29
1569407319086487,10,0,-2,-7,0,1,1,21
1569407319098485,-8,0,3,7,3,0,-6,11
1569407319098485,17,13,0,2,-2,-4,-20,23
1569407319107432,-35,-23,-12,-14,-1,-1,-10,5
1569407319107432,14,12,8,14,-2,0,-7,50
1569407319122392,0,-9,14,11,1,-1,-7,12
1569407319122392,27,23,17,8,1,-1,1,-1
1569407319124387,-36,0,6,4,2,1,-2,-43
1569407319124387,11,-19,-21,-22,-12,-8,-14,-12
1569407319145332,-5,7,-2,3,2,-2,-6,-13
1569407319145332,12,-8,-1,3,-1,4,7,30
1569407319146330,6,8,-9,-11,-9,-8,0,8
1569407319146330,10,1,9,10,6,2,-7,25
1569407319159298,-15,-1,-5,-8,-7,-12,-5,-34
1569407319159298,24,0,-8,-6,-4,9,12,-21
1569407319167274,36,5,-4,2,9,1,-17,35
1569407319167274,-19,4,7,6,3,-4,2,-7
1569407319182234,29,-1,-4,-3,-3,5,16,0
1569407319182234,-24,-11,1,-3,1,2,-4,31
1569407319184227,-12,-10,-6,-5,-7,-6,14,-24
1569407319184227,6,6,1,1,5,5,-1,15
1569407319205202,-39,-6,1,3,-2,-8,-5,-11
1569407319205202,23,10,1,-4,0,-2,0,5
1569407319207165,-7,-2,-3,0,0,1,5,-13
1569407319207165,-13,-5,-3,-4,-1,-3,-12,6
1569407319219162,-20,-6,-2,-8,-3,2,2,-26
1569407319219162,-7,-5,0,1,0,-2,2,23
1569407319228111,10,4,2,3,0,-2,-3,-4
1569407319228111,-19,-6,-1,-3,-3,-1,6,0
1569407319243080,9,3,-5,-2,-1,3,-4,-1
1569407319243080,3,-1,-3,1,-1,0,1,16
1569407319244067,-3,0,0,0,0,0,-28,-12
1569407319244067,3,3,5,1,-4,-7,-17,-28
1569407319265069,10,2,-3,-1,1,3,3,-8
1569407319265069,-6,-2,2,3,0,-7,-11,12
1569407319267010,-6,-3,-2,-3,-4,1,15,2
1569407319267010,-8,-2,-3,-1,-3,3,5,5
1569407319278974,-1,-2,-2,1,1,0,-5,22
1569407319278974,-2,-8,-2,-1,-1,-3,17,41
1569407319287949,-5,-2,1,1,0,-2,-4,-1
1569407319287949,-3,-4,-2,-2,-1,2,2,17
1569407319302942,10,-3,0,-3,-1,-2,2,36
1569407319302942,0,-2,1,0,5,17,0,28
1569407319303908,4,-2,-3,-3,-7,-20,6,-7
1569407319303908,7,2,2,2,1,-2,-6,-35
1569407319324880,-6,0,-1,-2,-1,0,-2,-55
1569407319324880,-8,2,2,0,-3,-1,-1,-54
1569407319325886,2,5,-1,1,0,6,0,-28
1569407319325886,-11,0,-3,-1,-1,1,3,-12
1569407319346801,2,4,0,-1,0,-1,0,-4
1569407319346801,-7,-2,-2,-1,-1,-4,-2,8
1569407319347790,-5,-3,-3,0,-2,3,5,0
1569407319347790,0,-2,-2,0,0,0,3,33
1569407319361755,0,-5,-1,1,1,1,-2,31
1569407319361755,-2,-1,-1,0,-1,-3,-2,36
1569407319369731,8,-1,-1,-1,0,3,0,28
1569407319369731,4,-2,-1,0,-1,1,1,26
1569407319384693,-2,-1,-1,-4,0,-1,-5,4
1569407319384693,-5,-1,0,0,-1,-3,2,-5
1569407319385728,34,5,1,0,-1,-1,5,17
1569407319385728,5,3,1,0,0,-1,-1,-6
1569407319407649,-4,-1,-2,0,0,-1,1,-17
1569407319407649,-2,0,-1,0,-1,-5,2,-13
1569407319407649,-5,0,-1,0,1,3,0,-9
1569407319407649,-1,0,0,-1,-1,0,-3,-12
1569407319421628,-1,-1,2,-2,0,-1,-1,-4
1569407319421628,5,0,0,0,0,1,3,12
1569407319422592,-12,-2,1,0,0,0,-4,-17
1569407319422592,5,0,-2,-2,-2,0,1,1
1569407319444589,-4,-2,-1,0,-1,-1,-2,-9
1569407319444589,-2,-1,-1,-2,-1,-1,0,0
1569407319445564,-8,-2,-2,-1,-1,0,-2,-8
1569407319445564,-4,-2,-1,0,-1,1,0,-7
1569407319467473,3,2,1,-1,-1,1,-1,6
1569407319467473,-1,-1,0,0,0,-5,0,7
1569407319467473,0,1,-1,-1,0,1,4,10
1569407319467473,3,1,-1,-1,1,0,-3,2
1569407319482430,-2,-1,1,-2,-3,0,-4,-5
1569407319482430,2,2,0,1,-1,0,2,7
1569407319482430,-8,0,0,1,0,0,-1,-11
1569407319482430,6,-2,-1,-1,0,-2,1,13
1569407319504372,-8,0,-1,0,-3,0,-3,-24
1569407319504372,1,0,-1,-2,1,-4,1,3
1569407319505369,1,-1,0,-2,-1,-5,-2,-3
1569407319505369,-5,0,0,1,0,-1,0,-8
1569407319527318,-2,0,-1,-1,-1,0,-2,-1
1569407319527318,1,-2,0,0,-1,0,0,5
1569407319527318,-3,-1,-1,-1,-2,0,-1,-3
1569407319527318,-6,-2,0,-4,-1,-1,-1,-7
1569407319542270,-2,0,-1,0,0,-1,2,5
1569407319542270,0,0,-1,-1,0,1,-2,2
1569407319542270,-2,0,0,0,-2,-2,-2,-1
1569407319542270,-2,-1,0,-1,-3,0,1,1
1569407319564220,-5,-1,0,0,-2,2,-3,-8
1569407319564220,11,-1,-2,-2,-1,1,2,23
1569407319565209,0,-2,-1,-1,0,2,2,6
1569407319565209,-5,1,0,2,0,1,1,-6
1569407319587185,14,-1,-2,0,2,-1,-1,11
1569407319587185,-5,-1,-1,-1,-1,-3,-1,-2
1569407319588156,-3,-3,-1,-1,1,0,-3,-1
1569407319588156,-1,0,1,2,0,0,-1,-6
1569407319602112,-1,-1,0,-1,-1,0,-1,-3
1569407319602112,-3,0,0,0,-1,0,-2,-5
1569407319603110,3,-1,-1,-1,-1,0,0,0
1569407319603110,-6,0,0,0,-1,-1,-1,-7
1569407319624062,-4,0,0,0,0,-1,-1,-5
1569407319624062,0,-1,0,1,1,1,-4,-8
1569407319625050,2,-1,0,0,0,-1,-1,2
1569407319625050,2,-2,-2,-3,-1,-1,2,4
1569407319646990,-3,-1,-1,2,-4,-1,-3,0
1569407319646990,-10,-4,0,-1,0,0,1,1
1569407319648003,-3,1,-1,-2,-1,0,-1,-8
1569407319648003,-10,2,0,1,0,-1,-1,-10
1569407319661950,21,-1,-2,-3,-1,-4,-3,-6
1569407319661950,-2,1,0,0,-1,-2,1,5
1569407319662949,-3,-3,0,0,0,-1,-3,-4
1569407319662949,-1,-1,-2,-2,-1,1,0,-5
1569407319684902,-8,0,-1,0,0,1,0,-6
1569407319684902,1,0,-1,0,0,2,-1,-2
1569407319684902,3,1,-1,-3,-2,0,0,3
1569407319684902,4,2,-1,0,-1,-2,-2,4
1569407319706860,-7,0,-1,-1,0,-1,0,-3
1569407319706860,3,-3,-1,-2,1,1,-1,1
1569407319707828,1,1,0,1,-1,1,-1,3
1569407319707828,6,-2,-1,-2,-1,0,-1,-2
1569407319721790,1,0,0,-1,1,-2,-1,10
1569407319721790,-10,0,1,1,0,-2,2,0
1569407319722789,5,2,1,1,1,-1,-1,-5
1569407319722789,1,-3,-2,0,-2,0,-1,4
1569407319744729,-5,1,1,-1,-1,1,-2,-5
1569407319744729,2,0,-2,-2,-1,1,1,3
1569407319745730,-4,-2,-1,-1,-1,-2,1,-1
1569407319745730,-1,-1,-1,0,-1,1,0,-1
1569407319766674,-2,-1,-1,0,0,1,-3,-1
1569407319766674,1,-1,0,0,-3,-1,-1,1
1569407319767672,-2,-1,1,2,1,0,-1,-1
1569407319767672,-1,0,-1,-2,-3,0,-3,-3
1569407319781631,-3,-2,0,0,-1,0,-2,-7
1569407319781631,2,0,0,-2,-1,0,1,2
1569407319782629,-2,-4,-1,-1,0,-1,-2,-2
1569407319782629,-2,-2,-2,-2,-1,-2,0,6
1569407319804601,-6,1,-1,0,-1,-2,-1,-7
1569407319804601,3,0,-2,-1,-1,1,-1,5
1569407319805568,-2,-2,-1,-1,-1,-1,2,0
1569407319805568,-16,-2,0,-1,-1,-1,-3,-17
1569407319827648,0,0,0,-1,1,0,2,2
1569407319827648,3,0,1,0,-2,0,2,4
1569407319827648,-4,0,0,0,-1,-1,0,0
1569407319827648,1,-2,0,0,1,-1,1,0
1569407319842543,-4,-3,0,0,-1,-3,-3,-4
1569407319842543,0,0,1,1,0,-1,2,-2
1569407319842543,1,0,0,-1,-2,1,0,2
1569407319842543,3,0,-2,-1,0,0,0,3
1569407319864417,0,-1,2,0,0,-1,-2,0
1569407319864417,-1,-1,0,-1,-1,-1,-4,-5
1569407319865407,6,0,-2,0,-3,-2,0,10
1569407319865407,2,1,-1,0,0,-1,0,2
1569407319887348,-2,-1,-3,-3,0,-1,-1,-2
1569407319887348,-1,-1,-1,-3,-1,-2,-3,-4
1569407319887348,-1,0,-1,-1,-1,1,0,0
1569407319887348,1,1,0,0,0,0,-2,1
1569407319902316,4,1,-1,-2,-1,-2,-1,2
1569407319902316,-2,-1,0,2,1,-1,1,0
1569407319902316,0,-1,-1,-1,0,-1,-1,-6
1569407319902316,4,-1,0,0,-1,-2,0,7
1569407319924250,-3,-1,-1,-1,-1,1,-3,-4
1569407319924250,-2,-1,-3,-3,1,1,0,3
1569407319925253,-4,0,-1,0,-1,-2,-1,-3
1569407319925253,-1,-4,-1,0,-2,-1,1,-3
1569407319947228,-1,-1,0,0,0,-1,-2,-5
1569407319947228,4,1,0,0,-2,-3,1,7
1569407319948198,-1,0,-1,0,1,0,-1,-6
1569407319948198,8,0,-1,-2,-2,0,1,22
1569407319962178,-4,-2,-2,0,-1,-1,0,-3
1569407319962178,-2,-1,0,0,-2,-1,-2,-8
1569407319963185,0,1,-1,-1,0,0,0,4
1569407319963185,-1,1,-1,1,1,-2,0,-3
1569407319984089,2,-3,-2,-1,-1,-1,2,-4
1569407319984089,-2,-2,0,-2,0,-1,0,-1
1569407319985086,-3,-1,-1,-2,-1,-3,0,-2
1569407319985086,-2,1,1,2,1,-1,-2,-6
1569407320007038,-3,0,1,1,0,0,-1,-1
1569407320007038,0,-1,-1,-2,0,-1,-3,-5
1569407320008035,-11,-3,0,-1,-1,0,-1,-10
1569407320008035,6,0,-2,-3,0,1,3,8
1569407320021988,0,0,1,3,-1,-1,2,-3
1569407320021988,-1,-1,-1,1,-1,0,-1,2
1569407320022991,-1,-1,-4,-4,1,-1,-3,-1
1569407320022991,-6,0,1,0,1,-1,-2,-4
1569407320044926,-2,-1,-1,-1,-1,-1,-1,-4
1569407320044926,-1,1,0,0,-2,0,3,-1
1569407320044926,1,-4,-3,-4,-2,-1,-1,1
1569407320044926,-2,-2,-3,-3,0,-2,-1,-5
1569407320066908,1,-1,0,-2,-2,0,-2,2
