timestamp,emg1,emg2,emg3,emg4,emg5,emg6,emg7,emg8
1569408075657298,-3,-3,-3,-1,-2,-2,-2,-20
1569408075657298,-1,-1,-2,-1,0,-2,-2,-1
1569408075657298,6,3,4,2,1,0,-10,14
1569408075657298,1,1,-3,0,0,-3,2,13
1569408075659284,-3,-2,-1,-1,0,-1,-1,-15
1569408075659284,0,-2,-1,1,-2,-2,-10,-2
1569408075660248,3,-2,-4,-2,-1,1,5,5
1569408075660248,-1,0,-1,-2,0,0,3,11
1569408075667273,-5,0,-1,-1,-1,-2,-2,-16
1569408075667273,-1,1,0,0,1,-1,2,-8
1569408075673497,-5,-4,-3,-1,-2,-1,1,-7
1569408075673497,1,-1,-1,-1,-2,0,2,11
1569408075688466,1,-1,-4,-3,-2,-1,-1,-7
1569408075688466,7,2,-1,-2,1,1,3,9
1569408075697450,-3,0,-1,-2,-2,-2,-1,-1
1569408075697450,5,0,0,-2,0,0,0,9
1569408075705127,-4,-1,2,0,1,-1,-3,-12
1569408075705127,-3,-1,1,-1,-1,1,-1,-4
1569408075727360,0,0,-1,1,-1,0,0,-1
1569408075727360,-1,0,0,0,-3,-1,4,2
1569408075765965,0,0,-1,-1,-2,0,2,1
1569408075765965,6,3,0,-1,-2,-3,-8,24
1569408075766963,-1,-1,0,0,-1,-1,-1,-14
1569408075766963,-1,-2,-1,-2,0,1,-1,-2
1569408075767959,-9,-4,-2,-1,-2,-1,6,-6
1569408075767959,-3,-2,-3,-2,0,1,6,14
1569408075771141,0,-1,-1,-3,-1,-1,-3,-9
1569408075771141,0,-1,3,1,2,-1,-3,-4
1569408075779218,3,-3,0,-1,0,-2,-5,1
1569408075779218,1,2,0,1,0,-1,4,21
1569408075786172,-3,-3,-1,0,1,-1,-2,-10
1569408075786172,-8,-4,-2,-3,-4,0,2,-6
1569408075793186,3,1,2,1,0,-1,-4,3
1569408075793186,1,1,0,0,0,0,0,-3
1569408075807898,5,0,-2,-1,0,-1,2,0
1569408075807898,-6,-1,-2,0,-1,-1,-2,-7
1569408075815832,-2,1,-1,-1,0,-1,-1,-1
1569408075815832,-1,-2,-1,-2,-1,-2,-2,5
1569408075830838,-4,0,0,-1,-1,-1,-1,-13
1569408075830838,2,-3,-1,-1,-1,0,-1,2
1569408075838815,2,0,-3,0,1,0,0,2
1569408075838815,-1,-2,0,-1,-2,0,4,-4
1569408075853775,-1,-2,-2,0,0,0,-2,-5
1569408075853775,2,0,0,-1,-2,0,-2,3
1569408075854767,2,1,1,-2,1,-1,-2,2
1569408075854767,-2,-1,-2,0,-1,-1,1,-5
1569408075875672,1,-4,-1,-2,-3,0,3,3
1569408075875672,3,1,0,0,0,-1,-4,2
1569408075876670,-4,-1,1,0,-2,-3,-3,-5
1569408075876670,3,0,0,1,0,2,4,1
1569408075890633,-1,0,-1,-1,-1,0,-1,-5
1569408075890633,-2,0,-1,-1,1,-1,2,-6
1569408075898649,2,-2,-1,0,-2,1,1,8
1569408075898649,-2,0,0,-1,0,-1,1,0
1569408075913571,-3,0,2,1,-1,-1,-4,-7
1569408075913571,0,1,-1,0,-1,-2,-2,2
1569408075914569,-5,-4,-2,-3,-2,1,4,-5
1569408075914569,1,-1,2,-1,-2,0,-3,1
1569408075936557,-3,-1,-3,-1,0,-2,-2,-16
1569408075936557,0,-1,0,1,-1,-1,-1,-2
1569408075936557,0,-2,0,0,-1,0,-1,0
1569408075936557,-2,-2,-1,0,-2,-2,-1,-1
1569408075959500,-3,-3,-1,-1,-1,1,-1,-5
1569408075959500,-2,-1,-1,1,0,0,0,3
1569408075960449,4,2,-2,0,1,0,-1,3
1569408075960449,4,0,0,-1,1,1,-1,2
1569408075973412,-4,1,-1,0,0,-1,-4,1
1569408075973412,-2,-3,-1,-1,-2,0,0,-2
1569408075975444,0,-1,-2,2,-1,0,0,1
1569408075975444,0,-1,-2,-1,-3,-1,-2,0
1569408075996355,1,0,0,-1,0,1,-1,-2
1569408075996355,0,-1,-1,0,1,-1,-1,1
1569408075996355,0,1,-2,-2,0,-1,-2,2
1569408075996355,-2,0,-1,-1,-2,-1,0,-1
1569408076010312,0,0,-1,0,-1,0,-1,-2
1569408076010312,1,1,0,0,-1,-3,0,-3
1569408076019288,-1,1,-1,0,-1,1,-2,0
1569408076019288,-3,-3,-2,-2,0,-1,-2,-7
1569408076033251,0,-1,0,-2,-1,1,0,2
1569408076033251,1,-1,-1,0,0,0,-1,1
1569408076036288,-1,0,-1,-2,2,-1,-1,-2
1569408076036288,-2,-1,-1,0,0,-1,1,-7
1569408076056190,-1,-1,-1,0,0,0,0,1
1569408076056190,-1,-2,-3,-2,-1,0,1,-1
1569408076057186,-1,-2,0,-1,-3,-2,-2,-1
1569408076057186,-1,0,-3,1,0,0,-1,-5
1569408076079168,-1,2,0,-2,-1,-3,-1,-6
1569408076079168,2,1,0,-1,0,0,1,8
1569408076080126,-1,-1,-3,1,1,2,1,-2
1569408076080126,0,0,0,0,-1,-4,-2,-3
1569408076094091,-2,-1,-2,2,-1,0,0,-2
1569408076094091,-2,0,-1,-2,-1,-1,-1,-2
1569408076094091,-1,-1,-1,-1,-2,-1,-2,-10
1569408076094091,-5,-1,0,-2,-1,0,-1,-7
1569408076116031,1,0,-1,-1,0,-1,1,0
1569408076116031,0,0,-1,-1,1,-1,-4,-3
1569408076117028,0,-2,-1,0,0,1,2,3
1569408076117028,-3,-2,-1,-3,2,0,0,-4
1569408076138969,1,-1,2,1,-2,-1,-2,6
1569408076138969,-4,0,-1,-1,0,-4,-3,-6
1569408076139968,0,0,-1,0,1,-1,-1,-2
1569408076139968,3,0,-3,-1,-2,1,1,-2
1569408076153963,-1,-2,-1,-2,1,0,1,2
1569408076153963,-1,-1,0,-3,0,-2,-3,-1
1569408076153963,-2,0,0,-2,-2,-1,0,3
1569408076153963,-2,-1,-2,-1,-1,-3,-1,-7
1569408076175871,6,0,-1,-2,2,0,0,1
1569408076175871,0,-2,0,-1,-1,-1,0,-1
1569408076176867,-1,-2,-1,-2,-2,-2,-3,4
1569408076176867,-1,1,-1,1,-2,1,3,-4
1569408076199807,-3,0,-1,1,-2,-2,-1,4
1569408076199807,8,2,0,0,1,0,4,9
1569408076199807,-2,-1,0,0,1,0,-1,1
1569408076199807,1,1,0,-1,0,-1,-1,0
1569408076213768,-5,-3,-2,0,-1,-2,-3,-2
1569408076213768,-1,-2,0,-1,-2,1,-1,-2
1569408076214767,1,0,0,-1,-2,-1,1,1
1569408076214767,-1,-1,-1,1,0,-2,-2,-6
1569408076235756,1,0,-1,-1,0,1,0,-4
1569408076235756,1,0,0,0,-1,1,-1,4
1569408076236706,0,-1,0,0,0,-2,1,-2
1569408076236706,-2,-1,-1,-2,0,-1,-2,-5
1569408076259679,-1,-1,-1,0,-1,-1,0,0
1569408076259679,-2,-1,0,0,-2,1,-3,1
1569408076259679,1,0,2,1,-2,0,-1,-4
1569408076259679,0,-2,1,0,0,0,-2,-1
1569408076273608,-2,0,1,0,-1,-1,1,0
1569408076273608,0,-2,-2,-2,-1,-1,-1,8
1569408076274607,1,0,-1,-1,-1,0,0,2
1569408076274607,1,-1,-2,-1,-1,-1,-1,-4
1569408076296547,-2,1,-2,-1,0,0,-2,-6
1569408076296547,3,1,0,1,-2,1,2,-2
1569408076296547,-3,-1,-1,0,0,0,-1,4
1569408076296547,-1,0,-1,0,-1,0,-2,-3
1569408076319524,-2,-1,-1,-2,0,1,0,5
1569408076319524,-2,0,-1,-1,1,0,0,-5
1569408076320526,8,-1,-2,-3,-2,-1,2,25
1569408076320526,-3,0,0,-1,0,0,0,-6
1569408076333451,-1,-1,0,-2,-1,-2,-5,-1
1569408076333451,-1,-1,0,-2,-2,0,1,-2
1569408076334448,-2,1,0,0,-1,-1,-1,-6
1569408076334448,0,0,-2,0,0,-1,0,-2
1569408076356390,0,-3,-1,-1,-3,0,2,3
1569408076356390,3,0,0,-2,-1,0,0,-1
1569408076356390,-6,-1,-1,0,0,-1,-2,5
1569408076356390,-1,2,-1,1,0,-1,-3,-2
1569408076379327,0,0,1,-1,-1,-1,-1,-2
1569408076379327,-1,0,-2,-1,0,-1,1,-2
1569408076380335,-1,-1,-2,0,0,0,1,-7
1569408076380335,3,-1,-1,0,-2,0,-3,4
1569408076393290,1,-1,0,1,-1,0,-1,5
1569408076393290,-3,-3,0,-2,0,-1,-3,-22
1569408076394287,2,-1,0,-1,1,0,-1,5
1569408076394287,-3,-2,0,-1,-1,1,-2,-7
1569408076416229,-1,0,-1,0,-1,0,0,-3
1569408076416229,-4,0,0,0,-1,-1,-1,-4
1569408076417226,7,1,-2,-2,0,0,3,3
1569408076417226,-2,-1,-1,-1,0,0,-1,-7
1569408076439167,-1,0,-2,-2,-1,-2,0,3
1569408076439167,2,0,-1,1,0,-1,0,0
1569408076440164,-1,-1,-1,0,1,0,-1,-5
1569408076440164,-3,-3,1,1,0,-2,-2,-7
1569408076453129,1,1,0,0,-1,0,0,2
1569408076453129,-7,-3,-2,-2,-1,-1,-1,-4
1569408076454125,-3,0,-1,0,0,1,-1,-3
1569408076454125,-1,0,-1,-3,-2,-1,-2,-4
1569408076476067,-3,0,-2,-1,0,1,-1,1
1569408076476067,1,-2,0,-2,-1,1,0,-4
1569408076477097,0,0,0,-1,-1,-1,-1,0
1569408076477097,-3,-2,0,-1,0,-1,-1,-1
1569408076499041,2,0,-2,0,1,-2,-1,4
1569408076499041,0,1,0,0,0,0,1,6
1569408076500009,-4,-1,0,-1,-3,-2,-2,-6
1569408076500009,6,1,0,-1,0,0,2,7
1569408076513967,0,-1,-1,-1,0,-1,-1,-5
1569408076513967,-1,1,-2,1,-1,-1,-2,1
1569408076513967,-2,0,1,-1,0,0,-1,-1
1569408076513967,-1,-2,0,-1,-1,0,1,-6
1569408076536018,0,-1,0,-1,1,0,0,0
1569408076536018,-1,1,1,0,0,-2,-2,3
1569408076536909,-1,0,-1,2,-2,-1,0,1
1569408076536909,-2,0,0,0,-1,-1,-3,-4
1569408076558878,0,-1,-1,1,-3,1,2,1
1569408076558878,-2,-3,-1,-1,-1,0,-1,-2
1569408076559844,0,-1,-1,-1,1,-1,-1,1
1569408076559844,-2,-2,-2,0,0,-1,-1,-4
1569408076573807,-1,-2,0,0,0,-1,-2,0
1569408076573807,0,1,0,0,-1,0,0,5
1569408076574842,0,1,-1,0,0,-1,0,-8
1569408076574842,-3,-1,-2,0,0,-2,-2,-5
1569408076596746,-3,-1,-2,-2,-2,-1,-2,-3
1569408076596746,5,-2,-2,-2,0,0,2,8
1569408076597751,0,0,0,-1,0,0,0,3
1569408076597751,0,-2,0,0,1,1,0,-8
1569408076626664,-1,0,1,0,0,0,-1,-1
1569408076626664,0,-1,-1,0,0,0,-2,-2
1569408076627662,-1,-1,-3,-1,-2,-1,0,0
1569408076627662,-1,0,1,-1,1,-1,-1,-3
1569408076632650,0,-1,-1,-1,0,0,1,4
1569408076632650,-1,-1,0,-2,-1,-1,-1,-3
1569408076640649,-1,-2,0,-1,0,0,0,2
1569408076640649,-1,-2,-1,-2,-1,-2,-1,-2
1569408076656584,-2,-2,-1,-2,-2,-1,0,-2
1569408076656584,-3,0,-1,0,-3,-1,1,-3
1569408076656584,2,-1,-1,-1,-1,-1,0,0
1569408076656584,-1,-1,-1,0,-1,0,-1,-3
1569408076679558,-3,0,0,-1,-1,-1,-3,0
1569408076679558,1,-2,-1,0,-2,-1,-1,-7
1569408076680525,-1,0,0,1,-1,0,1,4
1569408076680525,-1,1,-1,-1,0,-1,-3,-10
1569408076692490,0,-1,-1,-1,-1,-2,-2,-1
1569408076692490,-3,0,0,-1,0,0,-1,-2
1569408076701467,-1,-2,0,0,-2,0,-1,-3
1569408076701467,1,0,0,0,-2,1,-2,-2
1569408076716425,1,0,0,2,0,-1,1,6
1569408076716425,-3,-1,0,-1,-1,-2,-1,0
1569408076716425,-1,1,0,-1,-1,-1,0,-1
1569408076716425,0,-1,0,1,1,0,-1,-3
1569408076738365,1,0,-1,-2,-1,0,1,0
1569408076738365,0,-2,-1,0,0,-1,0,1
1569408076745389,0,1,-1,0,-2,-2,-2,-4
1569408076745389,-2,-2,0,-1,-2,-2,-2,-1
1569408076761305,0,-2,-2,-1,0,0,-1,0
1569408076761305,-2,0,-1,-1,-1,1,0,0
1569408076763301,0,0,0,-1,0,-1,-1,-2
1569408076763301,0,-2,-2,0,0,0,-1,-3
1569408076784288,1,0,-1,0,-1,-2,3,3
1569408076784288,-6,-2,0,-1,0,0,-1,0
1569408076786238,5,0,-1,1,-1,-1,1,3
1569408076786238,-3,-1,-1,-1,0,0,-1,-2
1569408076798206,2,1,0,0,-1,1,-1,3
1569408076798206,-1,0,-2,-1,0,-1,-1,-1
1569408076805221,-3,0,-1,-1,-1,-2,-1,-2
1569408076805221,-3,-3,0,-1,-1,-1,0,-3
1569408076822142,-3,-1,-2,-1,0,-1,-1,2
1569408076822142,-1,0,-2,0,0,0,0,-1
1569408076823140,-4,-1,-1,-1,-1,-2,0,-4
1569408076823140,0,0,-1,-2,-1,-1,-1,-1
1569408076844117,-2,1,0,0,0,1,-1,-2
1569408076844117,0,-1,0,-1,-3,-3,-1,-1
1569408076846078,-1,-2,0,-1,-1,1,-2,-3
1569408076846078,-1,0,0,0,0,1,0,-2
1569408076859044,-2,-1,-2,-2,-1,0,0,0
1569408076859044,2,2,-3,1,1,-1,-1,-1
1569408076865027,-1,-1,-1,-2,2,1,0,0
1569408076865027,0,-1,-2,-1,-1,0,-1,6
1569408076881981,-4,0,0,0,-1,-2,-4,-6
1569408076881981,6,-2,-2,-2,-4,-2,-1,9
1569408076882980,-2,-1,-2,0,0,-2,-2,-7
1569408076882980,-4,-1,0,0,0,1,0,-15
1569408076904960,12,-1,-1,-1,-1,0,1,30
1569408076904960,0,1,0,-1,-2,0,-1,-2
1569408076905917,-3,0,-1,0,-1,1,-2,-3
1569408076905917,0,0,-1,2,0,-2,-1,4
1569408076918928,-2,0,-1,-1,-1,0,0,-7
1569408076918928,-3,0,-1,0,0,1,-1,-4
1569408076925866,2,-1,-1,-2,-1,0,1,1
1569408076925866,0,0,0,1,-1,-1,-2,1
1569408076941863,0,-1,-2,0,0,-1,0,-3
1569408076941863,0,-2,-1,0,0,-1,-1,4
1569408076943817,-3,0,-1,-1,0,-1,0,-6
1569408076943817,-1,-1,-1,0,-1,-1,0,-2
1569408076964761,-1,-2,1,1,0,0,0,-2
1569408076964761,0,0,0,-1,-1,-1,-1,-5
1569408076965759,-3,-2,-1,0,0,0,-1,-2
1569408076965759,-3,1,0,-2,0,-1,-1,-1
1569408076978724,9,0,-2,0,-1,0,1,6
1569408076978724,-4,0,0,1,0,-2,-3,-1
1569408076985762,1,0,0,0,-2,-2,-2,-1
1569408076985762,-1,-2,-1,-1,-1,-1,0,-5
1569408077001663,-4,-1,0,0,0,-1,0,-8
1569408077001663,-1,0,1,2,0,0,1,-3
1569408077003657,1,-1,-1,-1,-1,-3,1,-1
1569408077003657,0,0,0,-2,-1,-2,-1,-3
1569408077024601,-4,0,0,-1,-1,1,-1,-3
1569408077024601,0,-1,-1,-2,-1,-1,-1,2
1569408077025598,-2,-2,0,1,-1,-1,-1,-3
1569408077025598,0,-1,-2,0,0,0,1,2
1569408077038603,-1,-2,-1,0,-1,-1,0,-2
1569408077038603,0,0,0,-1,1,1,-1,0
1569408077045546,0,-1,-2,-1,1,-2,-3,-1
1569408077045546,0,-2,-1,-1,-2,-1,-1,2
1569408077061546,-2,-1,-1,0,-1,-2,-1,1
1569408077061546,-2,0,-2,0,0,0,2,0
1569408077063498,-2,0,-1,-1,0,0,-1,-3
1569408077063498,2,1,1,0,-1,0,-3,3
1569408077084479,-7,-1,0,0,0,-2,-2,-14
1569408077084479,8,-1,-2,0,-1,-1,2,8
1569408077085488,-4,-2,0,-1,-1,0,-1,-2
1569408077085488,0,0,-2,-2,-1,-3,-4,-10
1569408077098403,0,0,0,-2,0,1,-1,2
1569408077098403,-3,0,0,0,-1,-2,0,-3
1569408077107380,-1,-1,0,-2,-1,-1,1,0
1569408077107380,0,-1,-1,-1,-1,-1,-1,4
1569408077121343,-1,1,0,0,0,-2,1,2
1569408077121343,-1,-1,0,-1,1,0,-2,-2
1569408077123337,0,-1,-1,0,-1,1,-3,-2
1569408077123337,-2,-1,0,0,-1,0,2,3
1569408077144282,2,0,-3,-2,-2,-2,-1,-3
1569408077144282,-4,-1,-1,-1,-1,0,1,2
1569408077146275,0,-1,0,1,0,1,8,-1
1569408077146275,-1,-2,-2,0,-1,-1,-6,2
1569408077158271,-1,0,-2,-1,1,-1,1,0
1569408077158271,0,-1,-2,-2,-3,-2,-1,-2
1569408077167220,-1,0,0,-2,1,-2,-5,-5
1569408077167220,-2,0,-1,-1,0,1,-1,1
1569408077182180,3,-1,2,-1,-2,1,1,4
1569408077182180,-1,0,-1,-1,-1,1,1,2
1569408077184174,-2,-1,0,-1,-1,1,2,-3
1569408077184174,4,-3,0,0,0,0,4,13
1569408077204121,-5,-2,-2,-2,-1,-3,-5,-16
1569408077204121,9,-1,-2,-2,0,-1,3,15
1569408077206144,0,-2,-1,1,-1,3,10,8
1569408077206144,2,0,-1,0,-1,-3,-21,-7
1569408077227059,-2,-2,-2,-1,-4,-7,-2,-7
1569408077227059,-3,0,-1,1,-1,-2,-6,-5
1569408077228057,-4,-4,-2,-1,-2,1,6,-3
1569408077228057,-7,-4,1,0,3,4,10,-1
1569408077242019,5,6,0,1,1,0,3,7
1569408077242019,1,11,4,-2,-1,1,4,-2
1569408077243019,-9,-20,3,4,2,-3,-18,-11
1569408077243019,-6,-5,-5,-1,-1,1,-5,-7
1569408077263962,-1,-4,-2,0,0,-3,-4,1
1569408077263962,0,2,-3,0,-1,1,6,-1
1569408077265970,3,10,1,-2,1,0,-3,0
1569408077265970,0,2,0,0,-1,0,3,2
1569408077277924,-1,0,0,-1,-1,2,1,3
1569408077277924,-1,0,1,-1,-1,0,-1,3
1569408077286900,-3,0,0,-1,-2,-2,-1,0
1569408077286900,-1,-1,-1,-2,-1,-3,-2,-5
1569408077301860,0,1,0,0,0,0,3,4
1569408077301860,-4,-5,-1,-1,1,0,0,-2
1569408077302858,-2,0,-1,-1,-3,-1,-5,-9
1569408077302858,7,1,-1,-3,0,0,9,12
1569408077323840,-3,0,1,0,-1,1,-7,-9
1569408077323840,10,-5,-2,0,-1,-4,-2,21
1569408077325797,-5,0,-2,-1,-1,-3,-2,-9
1569408077325797,-1,2,1,1,-1,-1,-4,-1
1569408077337764,-3,-1,0,0,0,1,2,-3
1569408077337764,0,-2,-2,0,1,0,-3,4
1569408077346742,2,2,-2,-3,0,-1,2,-1
1569408077346742,-1,-1,-1,1,0,0,3,2
1569408077361725,-3,-2,-1,-1,-2,-1,-2,1
1569408077361725,-5,-1,0,0,-2,-1,-1,-10
1569408077363694,6,1,-1,0,-1,1,-1,1
1569408077363694,-2,-2,0,0,0,2,5,-2
1569408077384648,1,-1,-1,-1,0,-2,-5,5
1569408077384648,-1,-2,-1,-1,-1,-1,-2,-6
1569408077385636,2,0,0,-1,0,-1,-1,0
1569408077385636,-2,1,0,0,0,0,1,-1
1569408077397633,2,-1,-1,0,0,4,5,1
1569408077397633,-5,-2,-1,0,-1,-2,-2,-1
1569408077406579,-1,-2,-1,0,0,0,-3,-1
1569408077406579,-1,0,1,-2,-2,-1,-1,-1
1569408077421578,-3,-1,0,0,-1,-3,-2,-5
1569408077421578,-5,-2,0,-1,1,-1,-3,-5
1569408077423573,0,0,-1,0,-1,-1,0,-1
1569408077423573,-1,-1,-1,0,0,-2,0,1
1569408077444520,1,0,-1,-2,0,-1,2,6
1569408077444520,0,-1,-1,0,0,0,-3,-1
1569408077445476,-1,0,-1,0,-1,-1,2,-3
1569408077445476,2,-2,0,-1,-2,-1,-1,2
1569408077458443,1,-2,-1,0,1,1,0,2
1569408077458443,-2,-1,-1,-1,-1,0,0,-3
1569408077467420,0,0,-1,0,0,-1,-3,-1
1569408077467420,-1,-1,1,0,-2,-2,-1,0
1569408077481379,1,1,1,-1,1,0,-1,2
1569408077481379,-1,-1,1,0,-1,0,1,3
1569408077483374,-1,-1,1,-1,-1,-1,-2,-4
1569408077483374,3,-3,-3,-1,-1,-2,-3,-3
1569408077504320,-1,-2,-1,0,0,-1,1,1
1569408077504320,-3,0,1,-2,0,-2,2,-4
1569408077506314,2,0,-1,-1,-1,-2,-1,1
1569408077506314,-4,0,0,0,1,0,-1,-2
1569408077527257,0,0,0,-1,-3,0,-1,2
1569408077527257,2,-1,-1,0,0,-1,0,0
1569408077528255,-3,-1,-1,0,0,-1,0,-6
1569408077528255,0,2,0,-1,0,1,2,5
1569408077542249,-2,0,-3,-1,-1,0,0,-1
1569408077542249,-1,-1,0,-2,-1,0,1,1
1569408077543215,-2,-1,-3,-1,-1,-1,-2,-5
1569408077543215,0,-1,0,-1,0,-3,0,3
1569408077564158,-1,-2,-1,1,-1,-2,1,-1
1569408077564158,0,0,-2,-1,0,-1,0,-5
1569408077566155,1,-1,0,-2,-1,-1,-1,1
1569408077566155,-1,1,0,-1,1,0,-1,0
1569408077587098,-3,-2,0,-1,-1,0,-2,-1
1569408077587098,-1,0,-1,1,-1,0,0,1
1569408077588094,-1,0,0,0,-1,0,0,-2
1569408077588094,0,0,-3,0,-1,-1,1,1
1569408077602057,0,0,1,0,-1,-2,0,-1
1569408077602057,0,-1,-1,-1,-1,-1,1,-2
1569408077603071,-1,0,-1,0,-1,-1,0,0
1569408077603071,-2,0,0,0,-2,-1,-1,2
1569408077624000,8,-1,-1,-1,0,-1,2,2
1569408077624000,-2,1,0,0,1,-2,-4,-3
1569408077625994,5,1,-1,1,2,-1,1,-1
1569408077625994,-7,-2,-1,-1,-2,0,-1,-9
1569408077647008,2,-1,-1,-2,-1,0,-1,5
1569408077647008,0,0,0,-1,-1,2,2,-4
1569408077647934,-1,-2,0,0,-1,0,-3,2
1569408077647934,2,1,-1,1,-1,-2,0,-1
1569408077661899,-4,-2,-1,0,-3,-1,-3,-6
1569408077661899,-1,-1,-2,1,-2,-2,-1,-1
1569408077662926,-3,-3,-2,1,-1,0,-1,-4
1569408077662926,2,-1,0,-2,1,-1,1,0
1569408077683839,-3,0,0,-1,0,0,0,-1
1569408077683839,1,-2,-2,-1,0,-1,-2,1
1569408077685833,-3,-1,-1,-1,1,-1,0,-4
1569408077685833,1,0,0,0,-1,0,-2,1
1569408077706778,0,0,-1,0,0,-1,-1,1
1569408077706778,-3,-2,-1,0,0,0,-1,0
1569408077708813,-2,0,-1,-2,-1,-1,1,-5
1569408077708813,1,-1,-1,-1,0,-1,0,0
1569408077720741,-3,-1,-1,-1,-1,0,0,-2
1569408077720741,0,-2,0,0,-1,0,-1,3
1569408077727723,1,0,-4,-1,0,-1,-2,-7
1569408077727723,-5,-2,0,-3,-1,-1,-2,1
1569408077744677,0,1,0,0,-1,-1,-2,0
1569408077744677,0,-2,-2,-1,1,-1,-1,-2
1569408077745674,-1,-1,1,-1,-1,0,-2,-2
1569408077745674,-1,0,-1,-1,-1,0,0,2
1569408077766618,0,-1,-2,0,-1,0,-1,-3
1569408077766618,-2,-1,-2,-2,-1,-1,-2,0
1569408077768611,-4,0,0,1,-1,-2,-2,-2
1569408077768611,-1,1,-2,1,0,-1,0,-2
1569408077781578,-3,-1,0,-1,-1,-2,0,-2
1569408077781578,1,0,-1,0,-1,-1,1,2
1569408077787603,-4,-1,1,-3,0,-1,-3,-11
1569408077787603,7,-1,0,-2,-2,0,1,10
1569408077804557,-2,-1,-1,-1,1,-1,1,-7
1569408077804557,0,0,-1,-2,-1,1,1,1
1569408077805552,-1,-2,-1,1,0,0,0,1
1569408077805552,-4,-1,0,0,-1,-1,-4,-8
1569408077826458,5,-1,0,0,1,0,2,7
1569408077826458,-2,0,-1,-2,0,1,-1,-5
1569408077828452,2,-2,0,-1,0,-1,0,0
1569408077828452,-2,0,-1,-1,-2,0,-2,2
1569408077841425,1,-1,0,2,-1,0,1,2
1569408077841425,-4,0,-2,-2,-3,-2,-1,-5
1569408077848399,0,1,0,-1,-1,1,-1,2
1569408077848399,3,-1,-1,0,1,-1,1,0
1569408077864399,-1,0,0,-2,-1,1,-3,-1
1569408077864399,0,-1,0,0,1,-1,-1,3
1569408077866352,-2,-1,-1,-1,-2,-1,-2,-1
1569408077866352,0,-1,-2,-1,-1,0,-1,-1
1569408077886336,-2,0,0,-1,-2,-2,1,-1
1569408077886336,-1,-1,0,0,-1,-2,0,-4
1569408077888292,-2,0,0,0,-1,0,-1,-1
1569408077888292,-3,-1,0,-1,1,0,-2,-6
1569408077901258,-2,0,-3,1,1,0,-1,4
1569408077901258,0,-1,-2,-2,-1,0,-2,-2
1569408077908239,0,-1,-1,-2,0,0,-1,-2
1569408077908239,0,0,-1,0,-1,-1,0,0
1569408077924196,-1,-1,0,-1,-1,-1,-1,-1
1569408077924196,-1,-1,1,0,-1,-1,-1,-1
1569408077926230,-1,-1,0,0,0,-1,1,2
1569408077926230,-2,-1,-1,-1,-1,0,2,-3
1569408077954155,0,0,-1,1,-1,-4,-1,-4
1569408077954155,0,0,0,0,0,0,-2,-1
1569408077956111,0,-2,2,-1,0,1,-1,-3
1569408077956111,0,0,0,-1,0,-2,-1,1
1569408077961136,-2,-1,-1,-2,0,0,-1,-3
1569408077961136,0,0,-2,0,0,-1,-1,-4
1569408077968079,4,0,-1,-1,-1,-2,-1,5
1569408077968079,-8,0,0,-1,-1,2,1,-1
1569408077984078,-3,-1,0,-1,-2,1,-3,-6
1569408077984078,2,0,-1,0,-1,0,0,2
1569408077986030,0,-2,-2,-1,1,0,-1,-1
1569408077986030,5,0,-1,0,-1,-1,0,7
1569408078007016,-3,0,-1,-1,0,-1,-2,-7
1569408078007016,-1,-2,1,0,-1,0,0,-1
1569408078008014,-2,-1,0,0,-2,-1,-1,-8
1569408078008014,1,1,-1,0,-2,0,-1,-1
1569408078019958,0,-1,1,0,0,0,0,0
1569408078019958,1,-1,-2,-2,0,0,-2,-1
1569408078028955,-2,-1,1,0,-2,-2,-2,-1
1569408078028955,0,-2,-1,0,-1,-2,0,-1
1569408078043917,0,-1,-2,-1,-1,-1,-1,4
1569408078043917,-4,-1,-1,-1,-1,0,1,-8
1569408078045872,0,2,-1,0,0,-2,-1,3
1569408078045872,-1,0,-2,1,0,-1,0,-1
1569408078066843,0,-1,0,-1,-2,0,0,-1
1569408078066843,-1,0,-1,1,-1,0,2,1
1569408078068811,-5,0,0,1,-1,-1,-3,-10
1569408078068811,-1,-2,-1,0,-2,0,-1,1
1569408078080778,1,2,-1,-1,0,-2,-1,1
1569408078080778,0,-1,-2,-1,0,0,0,-3
1569408078089754,3,-2,-1,-2,0,1,1,3
1569408078089754,2,1,0,0,-1,-2,-1,2
1569408078104714,-2,0,0,-1,0,0,-1,0
1569408078104714,0,-1,0,0,-1,-1,-1,0
1569408078105711,-1,-1,-1,0,0,-1,0,-2
1569408078105711,-1,-1,0,-2,-2,-2,-3,-1
1569408078126656,0,-2,-1,-3,-1,1,-1,1
1569408078126656,1,-1,-3,-2,1,-3,1,4
1569408078128651,-1,0,0,-1,-1,-1,-1,-1
1569408078128651,0,0,0,-1,-2,0,-1,2
1569408078140618,1,-1,0,0,0,-1,1,5
1569408078140618,-2,0,2,1,-1,0,-3,-2
1569408078149593,-2,-1,-2,1,0,0,0,-1
1569408078149593,1,-1,-1,0,0,0,1,0
1569408078164553,-3,-1,-2,-1,-1,-1,1,-4
1569408078164553,0,-2,-1,-1,0,0,-3,2
1569408078165553,-1,-1,-1,-3,-2,0,-3,-7
1569408078165553,-3,-2,0,0,-1,-1,0,-7
1569408078186498,5,0,-1,-1,0,-1,0,9
1569408078186498,1,-2,0,-1,-2,-1,-1,-2
1569408078188491,0,0,0,1,-1,-1,0,4
1569408078188491,-1,-2,1,-1,1,-1,1,-2
1569408078200496,-3,0,-1,0,-1,-2,-2,-3
1569408078200496,-4,-1,-1,-1,-1,-1,-2,-4
1569408078209435,0,-1,0,-1,0,1,0,5
1569408078209435,2,0,-1,1,-1,-2,-1,2
1569408078224433,-6,0,0,0,-1,-1,-2,-1
1569408078224433,0,1,-1,0,-1,0,-1,-4
1569408078225401,-2,1,-1,-1,-1,0,-1,0
1569408078225401,1,-1,-2,0,-1,-1,1,3
1569408078246374,1,0,-1,0,0,1,1,1
1569408078246374,-4,-1,1,-1,-1,-1,0,-4
1569408078248330,0,-2,1,0,1,-4,0,0
1569408078248330,0,-1,-3,-2,0,-1,-2,-4
1569408078260337,0,-1,1,-1,-1,-1,0,2
1569408078260337,-1,-2,0,-2,0,-1,-2,-5
1569408078269274,1,-1,-1,0,-2,0,0,1
1569408078269274,0,0,-2,0,0,-1,0,-3
1569408078284234,-3,-2,-2,0,-3,1,-2,-5
1569408078284234,3,0,1,-1,0,-1,2,3
1569408078286228,-3,-1,-2,-2,0,-1,-2,-4
1569408078286228,-1,-2,0,0,-1,-2,-2,-1
1569408078307211,1,0,0,0,-1,0,1,-1
1569408078307211,-3,-1,-2,0,-1,0,-2,-7
1569408078308171,1,-1,0,0,0,1,2,4
1569408078308171,-5,1,1,-1,-1,-1,-4,-8
1569408078320182,6,0,-1,0,0,-1,0,15
1569408078320182,-2,-1,-1,1,0,1,-2,-5
1569408078329113,0,0,1,1,0,0,2,2
1569408078329113,0,1,-1,1,0,1,1,3
1569408078344074,-1,0,1,-2,1,-1,-1,-1
1569408078344074,-2,-1,-2,-1,-3,-1,-3,-3
1569408078346079,-6,0,0,-1,-2,-2,0,-7
1569408078346079,-1,0,1,1,-1,1,1,0
1569408078367055,-3,-1,-2,-1,-1,-3,-2,-6
1569408078367055,1,-2,-1,0,-2,0,-1,-1
1569408078368011,1,-1,-2,-1,-2,-3,0,-3
1569408078368011,2,-2,1,0,-1,-1,0,2
1569408078380082,-1,1,-2,0,0,0,0,1
1569408078380082,1,-1,-1,0,0,-1,1,2
1569408078388953,0,-1,-1,-3,-2,0,0,2
1569408078388953,0,-1,0,-4,0,0,0,0
1569408078403914,2,-1,1,1,0,0,0,0
1569408078403914,-4,-1,0,-1,0,-2,-1,-2
1569408078405910,-3,-1,-1,0,0,0,0,2
1569408078405910,4,-1,-1,-2,0,-2,1,7
1569408078426853,-1,-2,-1,-1,-1,0,-1,1
1569408078426853,-1,0,-1,0,-1,-2,-2,-7
1569408078428887,1,0,-2,0,-2,0,-1,4
1569408078428887,-1,0,-1,-1,0,0,0,0
1569408078440816,-1,-2,0,0,-1,-1,-1,-1
1569408078440816,-2,-1,0,-1,-1,-1,-1,-3
1569408078449792,-1,0,0,-2,0,-1,1,1
1569408078449792,-2,0,-1,-3,-1,-1,-1,0
1569408078464752,2,1,0,-2,-2,0,1,4
1569408078464752,-3,-2,0,0,-1,-1,-1,-6
1569408078465748,2,0,0,1,-1,0,1,1
1569408078465748,-2,-1,-2,-2,-2,-2,-2,-3
1569408078486693,-1,-3,-1,-3,0,-1,0,2
1569408078486693,1,-1,-1,0,-1,0,-1,-1
1569408078488727,-3,0,-1,0,-1,-2,-1,-1
1569408078488727,-1,0,-1,-1,-1,1,2,-1
1569408078509632,-1,0,-2,0,-1,-2,0,-2
1569408078509632,-2,0,0,-2,-2,-1,-1,-3
1569408078510629,0,-3,-1,-1,0,1,0,9
1569408078510629,6,-1,-2,-1,0,1,1,9
1569408078523597,-3,-1,-1,0,-1,-1,-2,-3
1569408078523597,0,-2,0,0,0,1,-1,1
1569408078530576,-2,0,0,1,0,-2,-2,-6
1569408078530576,1,-1,0,0,1,-1,0,0
1569408078546570,-1,-1,-2,-1,-2,1,0,3
1569408078546570,-1,-1,-2,0,-1,-3,0,-2
1569408078548529,-2,-1,-1,0,0,0,-3,-2
1569408078548529,-3,0,0,1,1,-1,0,-3
1569408078569505,1,-1,0,0,-1,-2,0,-2
1569408078569505,0,-1,-1,-2,-1,-1,-1,0
1569408078571466,2,0,-2,-1,0,-1,-1,-5
1569408078571466,-1,-1,-1,0,-2,0,-1,-1
1569408078584433,-1,-2,0,0,0,1,2,1
1569408078584433,-2,-2,-2,-1,-1,-1,-2,-4
1569408078585429,1,0,0,-2,-2,0,2,6
1569408078585429,-2,-1,-1,0,-1,1,-1,-2
1569408078606374,0,0,-1,-1,-1,-1,0,-1
1569408078606374,-2,1,0,-1,2,0,-1,-1
1569408078608368,0,0,-1,-1,-1,1,-1,0
1569408078608368,-1,0,-1,0,-1,-1,-2,-1
1569408078629358,-1,-1,-1,-1,0,-1,0,0
1569408078629358,-4,0,1,-1,1,1,-1,-12
1569408078631340,6,0,-1,-1,-1,-2,-2,15
1569408078631340,-3,0,-1,-2,-2,-1,0,-3
1569408078644350,-1,0,0,-1,2,0,0,6
1569408078644350,-2,-1,-1,-1,-3,-1,-3,-6
1569408078650292,-1,0,0,0,1,0,-1,-3
1569408078650292,-1,1,0,0,0,-2,-1,1
1569408078674486,-1,0,-1,-1,-1,0,-1,-1
1569408078674486,0,-2,-1,0,-2,-1,-1,1
1569408078676189,-3,-1,0,0,0,-1,0,-2
1569408078676189,0,-1,0,-1,0,-1,0,5
1569408078689792,-1,-1,1,-2,-1,0,0,-3
1569408078689792,1,1,-1,-3,-1,1,-2,1
1569408078690787,0,-2,-2,-2,-1,-2,1,-1
1569408078690787,-5,-2,-1,-2,-1,-1,-2,-5
1569408078703750,0,0,-2,-1,-1,-3,0,-1
1569408078703750,1,-3,-2,1,0,-2,0,0
1569408078711030,-3,0,1,0,-1,-2,0,-2
1569408078711030,0,-1,0,-1,0,-1,0,-5
1569408078727283,4,2,-2,0,0,0,2,7
1569408078727283,0,-3,-1,-1,-1,-1,-3,5
1569408078729066,-2,-1,-1,-1,-1,0,-2,-3
1569408078729066,-1,-1,-2,0,-2,0,0,1
1569408078749972,-1,-1,-1,0,0,-2,-2,-1
1569408078749972,-1,0,0,1,-1,-1,0,-5
1569408078750925,0,-1,-1,-1,-1,-1,0,-1
1569408078750925,2,0,0,-1,-1,-1,-2,0
1569408078764185,-7,-1,-2,1,-1,-2,-4,-6
1569408078764185,4,0,1,0,1,-2,2,5
1569408078771095,0,-2,0,0,-2,-1,0,-1
1569408078771095,1,1,0,-2,-1,0,0,-4
1569408078787125,0,-2,0,-1,-1,0,-1,-5
1569408078787125,0,0,-1,-1,0,-1,-2,0
1569408078789083,2,0,-2,0,0,0,0,3
1569408078789083,-2,0,-2,-1,-1,0,-2,-1
1569408078809408,-2,-1,-1,-1,-2,0,-3,-4
1569408078809408,-2,-1,0,0,-1,0,1,-4
1569408078811381,-2,0,0,0,-1,0,0,2
1569408078811381,0,-1,0,0,0,-2,0,0
1569408078824327,-1,0,1,0,-1,0,0,0
1569408078824327,-2,0,-2,0,-1,-1,-2,-3
1569408078831103,0,-2,-1,-1,-1,-3,0,-1
1569408078831103,0,0,-1,-1,-1,-1,0,1
1569408078847305,0,-2,-1,-2,-2,-1,-1,0
1569408078847305,-1,-1,-2,0,0,-1,0,1
1569408078848049,-3,-2,0,0,0,1,-1,-3
1569408078848049,3,-2,-1,-1,-1,-3,-3,3
1569408078869585,-4,-1,-1,0,0,-1,0,-4
1569408078869585,0,-1,-1,-3,0,0,0,4
1569408078871288,-1,2,-1,-1,-2,-2,1,0
1569408078871288,0,-2,-1,0,-2,2,2,0
1569408078884362,-1,0,-1,-1,0,-1,0,0
1569408078884362,-2,-1,-1,0,1,1,-2,-7
1569408078890531,-2,1,0,-1,0,-1,0,-1
1569408078890531,2,0,-2,-1,-2,-1,0,5
1569408078907488,-1,-2,-1,0,-3,-1,-1,-3
1569408078907488,-2,-1,0,0,0,0,0,-5
1569408078908188,-1,0,-1,0,1,0,-1,0
1569408078908188,-3,1,-1,0,0,0,0,-3
1569408078929427,0,-1,1,-1,1,0,0,-2
1569408078929427,-1,0,1,-1,0,0,0,3
1569408078931127,3,0,-1,0,-1,-2,0,2
1569408078931127,-3,-2,-1,0,1,-1,-1,2
1569408078944357,4,0,-1,-1,-1,1,0,3
1569408078944357,-1,-1,0,0,-2,-2,-1,-2
1569408078951158,-1,-1,-2,-1,0,-2,-1,0
1569408078951158,-1,1,-1,0,-2,-1,0,-1
1569408078967326,-1,0,-2,-1,1,-2,-1,-2
1569408078967326,-1,0,-1,-1,0,-1,-1,-2
1569408078968326,1,0,0,-1,-1,1,-1,1
1569408078968326,2,0,-1,0,0,-1,0,3
1569408078990007,-8,-2,-2,-1,-2,-3,-6,-14
1569408078990007,1,-1,-1,0,-1,0,1,-1
1569408078990968,0,-2,-1,-1,1,1,-1,-2
1569408078990968,1,-1,0,-2,1,-1,0,3
1569408079003232,-2,0,1,0,-1,0,-1,-5
1569408079003232,-1,-2,-2,0,-1,-1,-1,1
1569408079011912,0,0,-1,0,-1,0,-1,1
1569408079011912,-1,0,0,0,0,0,-1,-7
1569408079027168,0,0,-2,-1,0,-1,2,2
1569408079027168,3,-1,-1,-1,-2,-2,-2,3
1569408079029163,5,0,-1,0,0,-1,0,8
1569408079029163,-2,1,-1,-1,-3,-2,-2,-3
1569408079050006,2,-1,-1,1,-1,1,-2,1
1569408079050006,-2,0,0,-1,0,-2,1,0
1569408079050808,0,0,0,-1,0,1,-1,0
1569408079050808,-2,0,0,-1,1,-2,2,-1
1569408079063070,4,-1,-2,-2,-2,-1,2,6
1569408079063070,-3,-1,-2,-1,-2,1,-2,-6
1569408079071858,-1,-1,-1,-2,0,-1,-2,-3
1569408079071858,0,-2,0,0,1,0,-2,-1
1569408079087005,1,-1,-1,-1,1,0,0,-2
1569408079087005,-1,-1,0,1,-1,0,0,0
1569408079088968,-4,-1,-1,-2,-2,-3,-1,-2
1569408079088968,0,0,0,-1,0,0,-1,2
1569408079110006,-2,-1,1,0,0,0,-1,-2
1569408079110006,-1,0,-2,0,0,2,-3,0
1569408079110912,-1,-1,0,-1,-1,-1,-1,1
1569408079110912,2,-1,-1,-1,-2,-2,0,2
1569408079124152,0,-1,0,-1,0,-3,-1,-1
1569408079124152,-1,-1,-1,0,-2,-3,-1,-3
1569408079131856,-2,0,-1,-1,-1,-1,0,-2
1569408079131856,1,1,-1,-2,-2,0,-1,3
1569408079147113,-1,-1,2,-3,0,0,0,6
1569408079147113,2,-2,-1,-1,-1,1,-1,-3
1569408079148857,-2,0,-1,-2,-2,-1,0,-5
1569408079148857,-1,-1,-1,1,0,0,1,2
1569408079169389,-2,-2,0,0,1,0,-1,-4
1569408079169389,-2,0,0,1,1,-1,-2,0
1569408079171088,-3,-2,-3,-2,-1,-1,-2,-4
1569408079171088,0,2,-3,1,0,-1,-1,-2
1569408079183349,0,0,-2,0,-1,0,-1,-1
1569408079183349,1,0,0,-1,1,-1,-1,-2
1569408079192033,-1,-2,0,-1,-1,-1,-1,0
1569408079192033,-9,-1,-1,-1,-1,1,-1,-5
1569408079207287,0,0,-2,-1,-1,1,-1,-2
1569408079207287,-1,0,-1,0,-2,-1,0,3
1569408079209056,0,0,-1,1,0,-1,-3,-13
1569408079209056,2,-3,0,-1,-2,-2,-1,10
1569408079230028,0,-1,0,-1,0,0,-2,-3
1569408079230028,-2,-1,0,-2,0,1,0,0
1569408079230928,1,-1,-1,0,0,-1,1,2
1569408079230928,1,0,0,-1,0,-1,0,3
1569408079243190,0,-1,-3,0,-2,-1,0,-3
1569408079243190,-3,0,-1,-1,-2,-2,-3,0
1569408079251915,0,-1,-2,-2,-1,1,-1,-5
1569408079251915,0,-1,-1,-1,0,0,0,1
1569408079267128,-3,-1,1,-2,-1,0,-1,-2
1569408079267128,1,0,-1,0,-1,0,-2,1
1569408079268827,-1,0,-1,0,0,-1,0,5
1569408079268827,0,-1,-2,-1,0,-1,-1,-1
1569408079289978,-4,0,-1,0,0,0,-2,-10
1569408079289978,3,-1,0,0,1,-1,2,7
1569408079290768,4,0,-2,-2,-1,0,1,8
1569408079290768,-3,0,0,-1,-1,-1,-1,-5
1569408079303028,3,0,-2,-2,-1,0,1,5
1569408079303028,-3,-1,-1,0,2,1,2,-1
1569408079311904,-3,0,0,2,-1,-1,-1,2
1569408079311904,1,-1,-1,-1,-1,0,0,6
1569408079326965,0,-1,0,1,0,-1,-1,-4
1569408079326965,-1,-1,0,0,-1,1,-1,2
1569408079328668,-2,1,-2,-1,-1,-1,-2,5
1569408079328668,0,0,0,0,-1,0,-1,-2
1569408079349905,-2,-1,0,1,0,-1,-2,-4
1569408079349905,2,-1,-3,-1,-2,-1,-1,7
1569408079350745,-1,0,-1,-3,-1,0,0,-2
1569408079350745,1,0,0,0,-1,-1,0,0
1569408079363679,-2,-1,0,-2,-1,-1,1,-3
1569408079363679,-2,-1,0,-2,-1,0,1,-3
1569408079372657,-4,-1,0,0,-1,-1,-1,-8
1569408079372657,4,-1,-1,-1,-1,0,2,12
1569408079386806,-2,-1,-2,0,-1,1,-3,-2
1569408079386806,0,1,0,0,0,-2,-1,-3
1569408079388507,-1,-1,0,-2,0,0,-1,-2
1569408079388507,-5,0,-2,0,1,-1,1,-3
1569408079409746,1,-1,0,-1,0,1,-1,-4
1569408079409746,-7,-1,0,-2,0,-2,0,-9
1569408079411616,1,-2,-1,1,-1,0,0,5
1569408079411616,-1,-2,-2,-1,-3,-1,-2,-3
1569408079432505,0,-2,-2,-1,-1,-2,-1,2
1569408079432505,1,-1,-1,1,-2,0,-1,2
1569408079433387,-3,-1,0,0,0,-2,-1,-7
1569408079433387,3,-2,-1,0,-1,1,-2,-2
1569408079447533,-4,-2,-1,0,-1,0,-1,-5
1569408079447533,2,-2,0,0,-2,0,2,2
1569408079448349,-2,0,-1,0,-1,-1,-1,-2
1569408079448349,-1,0,-1,-1,-1,-2,0,-2
1569408079469584,1,0,1,-2,1,1,0,-1
1569408079469584,-1,0,-1,-1,-1,0,-3,-5
1569408079471476,0,-1,-1,0,-1,1,0,3
1569408079471476,-3,0,-2,1,0,0,-1,1
1569408079492521,-2,0,-1,0,-2,-1,-2,-4
1569408079492521,1,-1,-1,2,0,0,1,0
1569408079494224,0,0,-1,-1,1,0,1,3
1569408079494224,-1,-1,-1,-3,-2,-2,-1,-4
1569408079507488,-7,-1,-1,-1,-2,-2,-2,-11
1569408079507488,6,0,0,-2,-1,0,1,11
1569408079509190,5,-1,-1,-1,0,-1,-1,4
1569408079509190,-2,-1,0,-2,1,1,0,-1
1569408079529425,0,-1,0,-1,0,1,-1,1
1569408079529425,-6,0,1,0,0,-1,-2,-3
1569408079531126,2,-1,1,-1,-3,-1,1,1
1569408079531126,0,0,-1,0,-2,0,3,4
1569408079552353,2,-1,-2,1,0,-1,-2,4
1569408079552353,0,-1,-2,-1,0,0,1,1
1569408079553352,-4,-2,0,-1,-1,0,-2,-5
1569408079553352,0,0,-1,0,0,-2,0,2
1569408079567324,-2,-1,0,0,0,-2,-2,-2
1569408079567324,-1,-1,-2,0,0,0,-2,-1
1569408079568320,-1,-1,-2,0,0,0,-4,-1
1569408079568320,0,0,-1,0,-2,1,1,0
1569408079590011,-2,-2,-2,-1,-2,0,-1,-3
1569408079590011,1,-1,-2,0,-1,-1,0,0
1569408079590967,-2,1,0,-2,-2,0,0,0
1569408079590967,-2,-1,0,1,-1,-1,-1,-2
1569408079612202,0,-1,-1,-1,-1,0,-1,-1
1569408079612202,-2,-1,0,0,-3,-1,-1,-1
1569408079614172,0,-2,-2,-1,-1,0,1,0
1569408079614172,-3,-1,0,0,0,-1,-2,-5
1569408079626889,1,-1,-1,1,0,-1,-1,0
1569408079626889,0,2,-1,-1,-1,0,1,6
1569408079633146,0,0,-2,-1,1,-1,-1,-7
1569408079633146,1,-2,-1,-1,0,-1,0,3
1569408079650010,-1,-1,-1,-2,-1,-2,-3,-4
1569408079650010,0,0,-1,-1,-1,1,0,0
1569408079650807,-2,0,0,1,1,-1,0,4
1569408079650807,0,0,-1,-1,-1,-1,-1,0
1569408079670905,-4,0,-1,0,-1,1,0,-8
1569408079670905,-1,-1,0,-1,0,-1,-1,-1
1569408079679989,1,-1,1,0,-2,0,-1,0
1569408079679989,-4,-2,0,0,0,-2,-2,-4
1569408079686757,-2,-2,1,-1,0,0,-1,0
1569408079686757,-1,-1,-1,-1,1,0,-1,-4
1569408079693708,-3,1,-1,-2,-1,-1,0,-3
1569408079693708,2,1,-1,-2,-1,0,0,1
1569408079709923,1,-1,-1,1,0,0,0,2
1569408079709923,-2,-1,-1,1,-1,0,1,0
1569408079711664,-1,-1,-1,-1,-1,-1,1,4
1569408079711664,-1,-3,-2,-2,-1,0,0,-10
1569408079731589,-2,1,1,-2,-2,-1,-2,-2
1569408079731589,0,1,-2,0,-1,0,0,1
1569408079733584,2,0,-1,0,0,0,-1,3
1569408079733584,0,0,-1,0,0,0,1,8
1569408079746858,-3,-1,0,-2,0,-1,0,-9
1569408079746858,1,0,0,-1,0,-1,0,0
1569408079753583,-2,2,0,-1,-2,-1,0,-2
1569408079753583,0,-1,0,-2,-2,0,-4,-3
1569408079769784,0,-1,-2,-1,0,0,0,2
1569408079769784,1,0,0,-1,0,-1,0,2
1569408079771632,-3,-2,-2,-1,-1,0,-1,-3
1569408079771632,-3,-2,-1,0,-1,1,0,-2
1569408079792539,2,-1,1,1,0,1,0,0
1569408079792539,-8,0,-2,-2,0,-1,-1,-8
1569408079793425,4,0,-1,1,0,-2,0,7
1569408079793425,-1,0,0,0,0,-2,-2,-7
1569408079805685,-4,-1,0,0,-1,-1,-1,-3
1569408079805685,-1,-1,0,0,0,0,-1,2
1569408079814369,-2,-2,1,2,1,2,-1,-3
1569408079814369,0,1,-1,-2,0,-2,0,1
1569408079829621,1,1,-1,-2,-3,-2,-1,1
1569408079829621,3,-2,-2,0,-1,0,1,2
1569408079831323,-3,-2,0,-1,-1,-1,-1,-3
1569408079831323,1,-1,-2,0,0,-1,0,0
1569408079852558,-2,-1,0,0,-1,0,-3,-4
1569408079852558,4,0,-1,-2,0,-3,1,4
1569408079853264,1,0,1,-2,-1,-2,-1,1
1569408079853264,0,0,-1,1,1,1,1,-1
1569408079866522,1,-2,-1,0,-1,-1,-1,-2
1569408079866522,-2,0,-1,-2,-1,1,2,-2
1569408079873505,-1,-3,-1,0,0,-1,-1,-2
1569408079873505,3,0,-1,-1,-3,-1,1,7
1569408079888464,-1,0,-1,1,-1,-1,-1,1
1569408079888464,-2,0,0,0,-1,-2,-2,-3
1569408079897148,0,0,0,-2,0,1,-1,0
1569408079897148,-4,0,0,-2,0,-1,-2,-8
1569408079912399,4,-2,-1,0,1,-3,0,4
1569408079912399,0,-1,0,-1,-2,0,-1,-1
1569408079914140,2,0,-1,-1,-1,0,0,1
1569408079914140,-9,-3,-1,-1,-1,-2,-3,-12
1569408079926183,-1,1,-1,-1,1,1,1,12
1569408079926183,2,-1,-1,0,-2,0,-3,-3
1569408079934343,-1,-1,-1,-2,-1,0,0,-1
1569408079934343,1,-1,-1,0,-1,-1,-2,0
1569408079957129,-1,-1,0,0,0,0,0,-3
1569408079957129,-3,1,-1,0,-1,-2,0,-1
1569408079959152,1,0,-1,-1,-1,1,0,2
1569408079959152,2,0,-1,0,0,0,1,0
1569408079972243,-2,-3,0,-3,-1,-1,-2,-6
1569408079972243,2,-1,-2,0,-1,-1,0,2
1569408079974168,-1,-3,-2,0,-1,-1,-1,-1
1569408079974168,-2,-1,-1,-1,0,-1,-1,4
1569408079986130,-2,0,0,0,0,-1,-1,-4
1569408079986130,0,0,1,0,0,-1,0,1
1569408079995165,-2,-1,-2,0,-1,-1,0,0
1569408079995165,1,-2,0,1,-1,1,0,0
1569408080010008,0,-1,-3,-2,-1,1,0,1
1569408080010008,0,0,0,0,-2,-1,-2,-1
1569408080010844,-1,0,-1,-1,1,-1,-2,-2
1569408080010844,1,1,0,-1,-2,-1,1,1
1569408080031788,-2,0,-1,0,-1,-1,0,-6
1569408080031788,2,-2,-1,-1,0,-1,0,3
1569408080033786,-4,-1,1,0,0,0,-1,1
1569408080033786,4,-1,0,-1,0,-1,1,0
1569408080046045,-1,0,0,0,-1,1,-1,2
1569408080046045,-3,-1,0,-2,0,-1,-1,0
1569408080054805,0,0,0,0,-2,-1,-1,-1
1569408080054805,-4,-1,-3,-1,-3,1,-1,-4
1569408080070018,1,-1,-2,0,-1,-1,1,0
1569408080070018,0,-1,-1,-1,-1,-1,-1,-3
1569408080070761,2,-3,1,0,-1,-1,1,2
1569408080070761,-3,-1,-2,-1,0,-3,-1,-8
1569408080091996,2,0,-1,0,-1,-2,0,9
1569408080091996,-3,-1,-1,-1,0,1,-2,4
1569408080093699,-2,0,-3,-1,-1,-1,-2,-6
1569408080093699,-1,0,-2,-1,0,-1,-3,-5
1569408080106019,2,0,-1,-1,-1,1,1,8
1569408080106019,0,-1,1,-1,-1,-1,-1,-3
1569408080114996,2,0,0,-1,-1,-1,1,3
1569408080114996,-1,-2,-1,0,-2,-2,-2,-3
1569408080130027,-3,-1,0,-2,-1,1,-1,-6
1569408080130027,-2,-2,-1,-1,-1,0,-1,-2
1569408080130954,0,-1,-1,-2,0,-2,-1,-1
1569408080130954,-2,-2,1,0,-1,0,-1,-3
1569408080152189,-3,0,-1,0,0,0,-2,-2
1569408080152189,0,1,-2,0,-1,1,1,2
1569408080154045,0,0,0,0,-2,0,0,0
1569408080154045,0,-1,0,-1,0,1,2,3
1569408080166156,-3,-2,-1,-2,0,-2,-3,-12
1569408080166156,0,0,0,-2,0,-1,0,0
1569408080175132,0,1,-1,0,-2,0,-1,2
1569408080175132,-1,-1,-1,0,0,1,0,1
1569408080189447,2,0,0,1,0,-1,2,-2
1569408080189447,-3,-1,0,-2,0,-1,-1,-6
1569408080191144,0,0,1,1,0,-1,1,0
1569408080191144,-2,-1,0,-1,0,-1,0,-3
1569408080212386,-3,0,1,1,-2,1,0,-1
1569408080212386,2,0,-2,0,0,-1,0,0
1569408080213300,-1,-1,-1,0,0,-1,0,0
1569408080213300,0,-1,-2,0,-1,-2,-1,0
1569408080234321,1,0,-1,-1,-1,-1,0,1
1569408080234321,3,0,0,0,-1,-1,0,2
1569408080236024,-1,1,0,-1,0,-1,-1,0
1569408080236024,-1,0,-1,-1,-1,1,-1,-3
1569408080250056,3,0,0,-1,-1,-1,-1,4
1569408080250056,-3,-1,-1,0,-2,0,0,0
1569408080250984,1,0,0,-1,-2,-3,2,3
1569408080250984,-1,-1,0,-3,1,1,-2,-4
1569408080272221,-10,-2,-2,2,-2,-2,-1,-7
1569408080272221,-2,1,-1,-1,-3,-1,-1,2
1569408080274156,1,0,-1,-1,-1,0,1,3
1569408080274156,0,-2,1,-1,-2,-2,-5,-5
1569408080286207,0,-1,-1,-2,0,0,-1,1
1569408080286207,-4,0,-1,1,-1,0,0,-2
1569408080294353,0,-2,-1,0,-1,0,-2,6
1569408080294353,1,0,-2,-2,-3,0,0,-1
1569408080309431,0,-2,-1,-2,-1,-1,-2,0
1569408080309431,0,-2,0,-1,0,-2,-2,-2
1569408080311137,0,0,0,-1,0,-2,0,-2
1569408080311137,-2,-1,-1,1,1,1,0,0
1569408080332369,2,0,1,1,1,-1,0,2
1569408080332369,-5,-1,0,0,-1,-2,-1,-8
1569408080333307,3,-2,1,-1,-1,0,1,1
1569408080333307,-1,-1,-1,-1,-1,-3,-1,-2
1569408080346197,0,-1,1,-2,1,0,1,2
1569408080346197,3,-1,0,-2,-1,-1,0,2
1569408080354317,-2,0,-3,-1,-1,-2,-1,-1
1569408080354317,-2,-1,-3,-1,-1,-2,0,-2
1569408080370024,0,0,-1,-1,1,-2,1,7
1569408080370024,-2,-1,-1,0,-1,0,0,-1
1569408080370978,-5,-1,-1,-1,-1,0,1,-2
1569408080370978,0,-2,1,0,-2,0,-2,-4
1569408080392209,0,0,-2,0,-2,-3,0,0
1569408080392209,1,0,0,0,-1,0,-2,-3
1569408080394190,1,1,-2,-1,-2,0,0,0
1569408080394190,-4,-2,1,0,1,-2,-2,-9
1569408080414028,-1,-1,-1,0,-2,0,0,-1
1569408080414028,3,0,-2,-1,-1,0,0,2
1569408080415882,-3,-1,0,-1,-1,0,-2,-1
1569408080415882,-1,-1,-1,-1,1,-2,0,-1
1569408080429452,-2,-1,-1,0,-2,-1,0,-3
1569408080429452,-1,-1,0,1,1,-1,1,-2
1569408080431156,-1,-1,-1,-1,0,1,-2,1
1569408080431156,-2,0,0,0,1,1,0,-3
1569408080452389,3,-3,-1,-4,-2,0,-1,5
1569408080452389,0,0,-2,-1,-2,1,0,0
1569408080453293,4,-2,-1,0,-2,-1,1,-5
1569408080453293,1,-1,-1,0,-3,-1,-1,1
1569408080474084,0,1,-1,1,1,1,-1,1
1569408080474084,-1,-1,0,-2,2,-1,-1,-3
1569408080476081,1,-2,-2,0,-2,0,0,3
1569408080476081,1,0,-2,0,-1,-1,0,0
1569408080489035,-9,0,0,0,1,1,-2,-13
1569408080489035,1,-2,-1,-1,-1,-1,-1,3
1569408080490995,-2,-1,1,-1,0,-2,-1,-1
1569408080490995,0,0,-1,0,-1,0,0,3
1569408080511939,1,0,-2,-1,-1,1,-1,-1
1569408080511939,-1,-1,-1,-1,0,0,1,-2
1569408080512936,0,1,-1,0,0,-1,0,0
1569408080512936,-2,-1,-1,0,2,0,-1,-4
1569408080535007,3,1,2,0,-2,-2,0,3
1569408080535007,-3,0,-1,-1,-2,-2,-2,-4
1569408080535875,4,-1,0,-2,-3,-1,0,10
1569408080535875,-2,-1,-1,-2,0,0,0,1
1569408080548839,-1,1,1,2,1,-1,-2,3
1569408080548839,1,1,-1,-2,-1,-1,0,0
1569408080556114,-4,-1,0,0,0,-2,-1,-13
1569408080556114,0,0,0,1,-1,0,0,-1
1569408080572071,0,-3,0,-1,-3,-2,0,2
1569408080572071,-4,0,1,-1,-1,0,0,-2
1569408080573773,5,0,-2,0,0,0,2,10
1569408080573773,-1,0,0,0,-2,-1,-1,-3
1569408080595022,1,-1,-3,-3,-1,0,-2,-3
1569408080595022,2,0,1,0,0,-1,1,4
1569408080595714,-5,0,-2,-1,0,1,0,-4
1569408080595714,-3,1,0,-2,-1,-1,0,-2
1569408080608970,0,-1,0,-2,-1,0,1,0
1569408080608970,-3,-1,-1,0,1,0,-3,-3
1569408080615953,0,-1,-1,0,-1,-1,-1,-2
1569408080615953,-3,-1,-1,0,0,-1,-2,-5
1569408080631618,2,1,0,0,0,-1,1,6
1569408080631618,1,1,-2,0,-2,-2,-1,-3
1569408080633614,-1,-1,-1,0,-1,0,1,2
1569408080633614,-2,-1,-1,0,-1,1,-1,-4
1569408080654847,5,0,-1,-1,-1,-2,1,8
1569408080654847,2,1,-1,0,1,0,0,4
1569408080656552,-3,-1,0,0,0,-1,-3,-8
1569408080656552,1,-3,-2,1,-1,-1,-3,-3
1569408080668812,-4,-1,-2,0,-3,0,0,-3
1569408080668812,1,-1,0,1,-1,0,1,2
1569408080675795,-3,-1,-1,0,-1,-3,0,-1
1569408080675795,2,-1,1,-2,0,-2,1,-2
1569408080691751,-4,-2,0,-2,-1,-1,0,-6
1569408080691751,0,-1,-1,-2,0,-2,-1,-2
1569408080693453,0,0,0,-1,1,-1,-2,-3
1569408080693453,-2,-1,-2,-1,0,-1,-1,-3
1569408080714400,-2,1,0,1,-1,0,-1,-1
1569408080714400,-3,-2,1,-2,-2,-1,0,0
1569408080716391,-2,-3,-1,-2,-1,-2,-1,-4
1569408080716391,2,1,-1,-1,-2,0,1,11
1569408080729394,-1,-1,-1,-1,0,-1,-3,-2
1569408080729394,-4,0,-1,-1,-1,0,2,-3
1569408080735636,6,1,-2,0,-1,-1,0,5
1569408080735636,-2,0,-1,0,0,1,-2,-2
1569408080752532,-3,0,-2,-1,0,0,1,-1
1569408080752532,-1,-1,-1,0,-2,0,-1,0
1569408080753293,-1,0,0,-1,1,-1,0,0
1569408080753293,0,-1,0,0,-1,0,-3,-4
1569408080774530,1,0,0,0,2,1,1,-1
1569408080774530,-2,-1,0,-1,0,-1,-2,1
1569408080776232,-3,-1,-3,-1,-2,-1,0,0
1569408080776232,1,-2,0,-1,1,-1,1,-4
1569408080788537,0,-1,-1,-1,0,-2,0,0
1569408080788537,1,-1,0,0,0,2,0,2
1569408080795476,-4,1,0,1,0,-1,-2,-3
1569408080795476,-1,0,-1,-1,-1,-1,-2,-1
1569408080812530,2,1,-2,-1,-2,-1,-5,4
1569408080812530,-5,-1,-1,1,-1,-1,-1,-3
1569408080813428,-1,0,-1,-2,-1,0,-1,-8
1569408080813428,-1,0,0,-1,-1,1,1,-1
1569408080834662,0,-1,1,-3,0,0,-1,1
1569408080834662,2,0,0,0,-1,0,0,2
1569408080836367,1,-1,-1,-1,-1,0,-1,1
1569408080836367,-1,0,0,-2,-1,-2,1,1
1569408080849372,-1,-2,-1,-2,0,-1,-1,2
1569408080849372,0,0,0,0,-1,0,-2,0
1569408080855608,-1,-2,-1,-1,1,0,0,-1
1569408080855608,1,0,-1,0,0,-1,0,0
1569408080872557,-2,-1,0,-1,-1,-1,0,0
1569408080872557,-1,-1,0,-1,0,0,-2,-2
1569408080873289,1,-1,0,0,1,-1,0,1
1569408080873289,-4,0,-1,0,0,-1,-2,-4
1569408080894511,0,0,-1,-1,-1,-2,2,-1
1569408080894511,1,0,-1,-1,-2,-1,1,1
1569408080896207,0,-1,0,-2,-2,0,-1,-3
1569408080896207,0,-2,1,0,-1,0,-3,1
1569408080908467,-1,-2,-1,0,0,-2,0,2
1569408080908467,0,0,-1,-2,0,-2,-1,-1
1569408080917150,-3,-1,-1,-2,0,-2,2,0
1569408080917150,1,-1,0,0,-2,0,-1,-6
1569408080932403,3,0,0,-1,-2,-1,-2,2
1569408080932403,-4,-2,-1,0,-1,-1,-2,-5
1569408080933265,6,-1,-1,1,-1,-1,-1,1
1569408080933265,-6,-1,-1,-1,0,1,-1,-7
1569408080955069,0,0,0,-1,0,1,0,2
1569408080955069,1,-1,-1,-2,0,-1,0,0
1569408080956047,-2,2,-1,-1,-3,-2,-2,-1
1569408080956047,-2,1,0,-2,-1,2,0,-3
1569408080968017,2,-1,0,-1,-2,-1,1,0
1569408080968017,1,0,0,-1,0,1,1,2
1569408080976992,-1,-2,-1,0,-1,1,-3,-4
1569408080976992,-1,-2,-1,-2,1,0,-4,-2
1569408080991951,-3,-1,-1,2,0,1,1,-2
1569408080991951,-2,0,0,-1,0,-1,0,8
1569408080992988,-3,-1,-1,-1,0,0,-2,-7
1569408080992988,3,-1,-1,0,-1,-2,-1,6
1569408081013891,-3,-1,0,-1,0,-1,-1,-2
1569408081013891,3,0,-2,0,-1,-1,1,2
1569408081015886,-4,-1,-2,-1,0,-2,-1,-4
1569408081015886,0,1,-2,-2,-1,0,1,0
1569408081028135,-2,0,-1,0,-2,0,-1,-1
1569408081028135,-1,-1,-1,0,-1,-2,-3,-4
1569408081036831,0,-2,0,-2,0,-1,0,-2
1569408081036831,2,-2,-2,0,0,0,0,0
1569408081052073,-2,0,-3,-2,-1,0,-1,0
1569408081052073,-3,-1,-2,-1,0,-1,0,-2
1569408081053785,0,-1,0,-1,-1,0,-1,1
1569408081053785,-2,1,1,0,-2,-2,1,3
1569408081075010,0,-1,0,-1,-1,1,0,-3
1569408081075010,0,-1,-1,0,0,1,-1,-3
1569408081075730,-1,0,-1,0,0,0,0,0
1569408081075730,1,-2,-2,-1,0,1,1,1
1569408081088721,-2,-1,-1,-1,0,0,0,-2
1569408081088721,-8,-3,0,-2,-1,-2,-4,-20
1569408081096670,-2,-2,1,-2,0,-1,0,0
1569408081096670,2,0,0,1,1,-1,0,8
1569408081111923,-1,0,-2,-2,0,-3,1,-1
1569408081111923,4,0,-2,0,2,0,1,6
1569408081113626,-1,-1,-2,1,-2,-2,-1,-3
1569408081113626,-4,0,0,1,-1,-1,-1,-7
1569408081134571,0,-1,0,0,0,-1,0,1
1569408081134571,4,1,-1,1,0,-1,1,4
1569408081135568,0,-1,0,-2,0,0,0,3
1569408081135568,-1,0,0,0,0,-1,-1,2
1569408081147536,-2,-1,0,0,-3,-3,1,-2
1569408081147536,-2,0,-1,-1,-2,-1,3,4
1569408081156511,-2,-1,-1,-2,1,0,-2,-6
1569408081156511,0,0,-1,-1,0,-1,1,-2
1569408081171472,0,-2,-1,0,2,-1,0,-3
1569408081171472,0,-1,1,-2,-1,0,-2,-2
1569408081173467,-1,0,-1,0,0,-1,-2,-3
1569408081173467,-3,-2,0,-2,-1,0,-1,-2
1569408081194410,3,0,0,0,-1,0,-2,0
1569408081194410,5,1,-1,0,-1,-2,1,6
1569408081196405,-6,-2,-1,2,1,0,-1,-8
1569408081196405,-5,0,1,0,0,-3,-3,-5
1569408081208382,-4,-2,1,0,1,0,-1,-8
1569408081208382,0,-1,-1,1,-1,2,-2,2
1569408081217349,4,1,0,-1,-2,0,0,6
1569408081217349,-4,-2,-1,-2,-1,-1,-1,-4
1569408081232317,2,1,-1,-2,-1,1,-1,8
1569408081232317,-1,-1,-1,-1,0,-1,0,1
1569408081233306,-2,-2,-1,0,0,-1,-1,-6
1569408081233306,2,0,-2,-2,-1,-1,0,5
1569408081255250,0,-3,-1,-1,-2,0,-2,0
1569408081255250,0,-2,0,0,-1,0,1,-2
1569408081260243,-1,0,-1,-1,-1,1,-3,-1
1569408081260243,-2,-1,0,0,-1,-1,-1,-4
1569408081268224,1,0,-1,-1,0,0,0,2
1569408081268224,-3,0,-1,1,0,-1,-1,0
1569408081277190,0,0,-1,-1,1,0,1,-3
1569408081277190,-2,-2,0,2,0,-2,1,7
1569408081292150,-2,-2,0,1,0,-2,-1,-4
1569408081292150,-1,0,0,-2,-1,-2,0,1
1569408081293156,-1,-1,0,0,-1,0,-2,-2
1569408081293156,5,1,0,0,0,1,2,5
1569408081315128,-1,0,-1,-2,-2,1,1,1
1569408081315128,0,-1,-2,-1,-1,-1,0,3
1569408081316087,-1,-1,-1,1,-2,-1,0,-2
1569408081316087,0,0,-1,-2,-2,-1,-1,0
1569408081338037,-3,0,-2,0,0,-2,-1,-3
1569408081338037,8,2,-1,1,0,0,3,9
1569408081339025,-4,-2,0,-1,-1,-1,-2,-3
1569408081339025,0,0,1,0,-1,0,0,-2
1569408081351990,1,0,-1,0,-2,0,-1,-1
1569408081351990,0,0,1,-2,1,0,0,3
1569408081352986,1,1,-1,0,-2,0,-1,-1
1569408081352986,0,-1,-1,-2,-1,0,-2,1
1569408081373934,-1,-1,-1,-1,-1,0,0,-1
1569408081373934,0,-2,-1,-2,-1,-2,0,6
1569408081375925,1,0,-1,-2,-1,-1,-1,-9
1569408081375925,-1,-2,-1,1,1,1,0,-2
1569408081396868,0,-1,-1,-2,-1,1,-1,0
1569408081396868,-3,0,-3,-1,-1,0,0,-6
1569408081398863,-1,0,0,-2,1,-1,-2,-4
1569408081398863,2,0,0,-2,0,-1,-1,2
1569408081411839,-4,-2,0,-1,0,-2,-3,-6
1569408081411839,-4,-1,-1,-1,-1,1,-1,-5
1569408081413825,-2,-1,-2,-1,-2,-1,0,-2
1569408081413825,0,-1,0,-1,0,1,0,-3
1569408081434777,-2,-1,-2,-2,0,-1,0,0
1569408081434777,1,-1,0,-1,-2,-3,-2,0
1569408081435765,0,0,-1,1,0,-1,-2,0
1569408081435765,0,-1,-2,-1,-1,-3,-2,3
1569408081456747,-1,1,-1,0,-1,0,-1,2
1569408081456747,-4,0,-1,0,0,-2,0,-4
1569408081458770,-2,-1,0,0,-1,-1,0,0
1569408081458770,1,0,-2,0,-2,-1,0,1
1569408081470710,5,-1,1,0,0,-1,2,6
1569408081470710,-2,-1,-2,-2,-1,0,-3,-8
1569408081477692,0,-1,0,-1,0,0,-1,2
1569408081477692,0,-1,-3,-1,-2,1,1,-2
1569408081494656,0,0,-2,-1,-1,-1,-1,-2
1569408081494656,-1,-1,0,-1,-1,0,-1,1
1569408081495645,-2,-1,-1,0,-2,0,-1,-4
1569408081495645,-2,-1,0,-2,1,-1,-1,-3
1569408081516607,1,1,-1,-1,0,0,1,3
1569408081516607,5,-1,0,0,-1,0,0,8
1569408081518582,-2,-2,0,-1,-1,-2,-3,-8
1569408081518582,0,0,0,-1,-3,-1,0,2
1569408081531548,-1,-2,0,0,-1,-1,-1,-1
1569408081531548,-2,0,-1,-1,0,0,-1,-1
1569408081538540,0,-1,0,-1,0,-2,0,-2
1569408081538540,0,-1,-1,-1,0,0,-2,0
1569408081554486,-6,-3,-1,1,0,-3,-3,-12
1569408081554486,0,0,1,1,-1,-3,-1,-4
1569408081555484,3,-1,0,1,-1,-1,1,8
1569408081555484,-2,0,0,-1,-1,0,0,0
1569408081576438,-3,0,-2,-1,0,0,0,-3
1569408081576438,-1,-2,-1,-1,-1,0,-1,-1
1569408081578423,-2,-1,0,0,0,0,-2,-1
1569408081578423,0,0,-1,0,0,0,1,-1
1569408081591397,2,-1,-1,0,0,-1,-2,5
1569408081591397,1,0,-1,0,0,-2,0,-1
1569408081598389,2,0,0,-1,0,-2,-3,0
1569408081598389,-2,0,0,-1,-1,-2,0,1
1569408081614327,0,-1,-1,-1,-1,-2,-1,-2
1569408081614327,-2,-2,-1,-1,-2,0,0,-1
1569408081620327,0,-2,-1,0,0,1,-2,-4
1569408081620327,0,0,0,-1,0,1,-1,3
1569408081637266,-1,-1,0,0,-1,1,1,1
1569408081637266,-6,-2,-1,-1,0,-1,-1,-9
1569408081638262,4,-2,-3,-3,0,-1,-1,-2
1569408081638262,1,-1,0,0,0,1,0,1
1569408081651287,0,2,-1,-2,-1,-2,-1,2
1569408081651287,-1,0,-1,0,-1,0,-3,0
1569408081658247,-7,-1,-1,-1,0,1,0,-4
1569408081658247,2,0,-2,0,0,-1,-1,4
1569408081674195,1,-1,-1,0,-2,-1,0,0
1569408081674195,-1,1,-2,-1,-1,-2,0,1
1569408081676161,0,0,0,-1,0,-1,1,-1
1569408081676161,0,-2,1,-1,-2,-3,-2,2
1569408081697105,0,-1,0,0,-1,0,-1,4
1569408081697105,-1,0,0,0,-1,0,-1,-3
1569408081698104,-1,0,0,0,1,0,1,-2
1569408081698104,2,0,0,-2,0,0,0,-1
1569408081711079,-5,0,-1,-2,0,2,0,-2
1569408081711079,0,-1,-2,-2,0,-2,0,1
1569408081719047,-2,-1,0,-3,-1,0,-1,1
1569408081719047,0,1,0,0,-2,0,1,-2
1569408081734015,0,-1,-1,-1,-1,-1,-3,-2
1569408081734015,-2,-1,0,-1,-2,-1,0,3
1569408081734015,-1,0,-2,3,0,1,-1,0
1569408081734015,-3,-1,-1,0,-2,-1,0,-4
1569408081755959,1,0,0,0,0,-1,0,-1
1569408081755959,0,0,1,1,0,1,0,0
1569408081756945,-3,-1,2,-2,-2,-2,-2,-1
1569408081756945,-2,0,-1,-1,2,0,-1,-3
1569408081770966,0,-1,0,0,-1,1,-2,0
1569408081770966,-3,-2,-1,-1,-1,-1,-2,-6
1569408081778887,5,2,-1,-1,0,0,1,8
1569408081778887,-2,0,-1,1,0,0,-1,-5
1569408081793876,-1,-2,-1,-1,-1,-1,0,0
1569408081793876,-1,-2,-1,-1,0,-2,-3,-3
1569408081794879,-4,-2,0,1,-1,0,-3,-4
1569408081794879,-4,0,-1,-1,0,-1,-2,-3
1569408081815790,1,0,-2,1,0,-1,1,4
1569408081815790,1,-1,-2,0,-2,-1,-2,-4
1569408081816784,-1,-1,-1,0,0,-2,-2,-6
1569408081816784,0,0,-1,-1,0,-1,1,10
1569408081830748,-1,0,2,0,-1,-1,-2,0
1569408081830748,0,0,-1,0,-2,0,1,3
1569408081838727,-1,0,1,-1,-1,0,0,-3
1569408081838727,-2,-1,0,-3,-1,1,0,-2
1569408081853687,3,1,1,-1,0,1,1,1
1569408081853687,-8,-1,0,0,0,-1,-1,-7
1569408081854683,-3,0,-1,1,-2,-1,-2,-4
1569408081854683,1,-1,-2,0,-2,0,0,1
1569408081876636,-1,0,-2,-2,1,-1,0,1
1569408081876636,1,1,0,-1,-1,3,0,-2
1569408081876636,-1,0,-2,-2,-1,-1,-1,0
1569408081876636,-1,1,0,-1,-1,-1,0,-2
1569408081890588,-1,-1,-1,1,0,0,0,-1
1569408081890588,-3,-1,-2,-2,1,0,-1,-3
1569408081898567,-5,-1,0,-1,-1,-1,0,-4
1569408081898567,7,1,0,0,-1,0,1,8
1569408081913530,-1,-1,0,0,-1,1,-3,2
1569408081913530,2,0,0,0,-1,-1,1,1
1569408081914526,-3,0,1,-1,-1,0,-1,-2
1569408081914526,3,-1,-1,-1,-1,-1,0,4
1569408081936500,-2,-1,1,0,0,-1,-1,-6
1569408081936500,3,1,0,0,-2,-1,2,6
1569408081936500,0,0,0,-1,0,0,-2,0
1569408081936500,-2,0,1,0,-1,-1,-1,-4
1569408081950467,-2,-1,-1,-4,0,0,0,-1
1569408081950467,1,-1,-1,-2,0,-2,0,-3
1569408081958434,-1,-1,-1,-1,-1,1,1,-1
1569408081958434,-3,1,-1,-1,-1,1,-1,-6
1569408081973367,-1,-1,0,0,0,-1,2,4
1569408081973367,-2,-1,-1,-1,0,0,-1,-4
1569408081974365,0,-1,-1,0,-1,0,-1,2
1569408081974365,-1,-2,-1,-2,0,-1,-2,-3
1569408081996305,0,0,-2,-2,-1,-1,-1,-2
1569408081996305,-1,0,0,0,-1,0,-2,-2
1569408081997305,0,-1,1,-2,-1,-1,-1,0
1569408081997305,-1,-2,0,-1,-1,0,-1,0
1569408082010268,0,0,-2,-1,0,-1,-3,-7
1569408082010268,-2,-2,-1,-2,-2,0,-2,-2
1569408082018248,1,-1,-2,-1,1,-2,0,1
1569408082018248,-3,-2,-1,-1,-1,-2,1,-4
1569408082033208,-3,1,-1,-1,-1,0,0,1
1569408082033208,-1,-1,1,0,1,1,-3,-3
1569408082034205,1,0,-1,-1,0,0,-1,-2
1569408082034205,-3,-1,-2,0,-2,-1,-2,-1
1569408082056146,1,1,-2,0,-1,-2,-1,0
1569408082056146,1,-1,-1,-1,-1,-1,1,-1
1569408082057143,-1,-1,-3,0,0,0,0,-1
1569408082057143,0,-2,0,-1,-1,-2,2,0
1569408082070113,1,-1,1,0,-1,0,0,-1
1569408082070113,1,0,0,0,0,-1,-1,0
1569408082079086,1,1,1,-1,-1,0,-1,-1
1569408082079086,0,-1,-1,1,0,0,-1,0
1569408082094051,0,-2,-2,0,-1,0,0,3
1569408082094051,-2,-1,-2,1,-1,-1,-3,-1
1569408082094051,-1,1,0,1,-1,-1,0,-3
1569408082094051,-4,-1,-2,1,0,0,0,-6
1569408082116992,2,-1,0,-1,0,-1,2,2
1569408082116992,-2,0,0,-1,0,-2,-1,-3
1569408082116992,2,-1,-1,-1,-1,-2,0,3
1569408082116992,-3,0,0,0,-1,-2,-1,-8
1569408082130947,-2,-1,-1,1,0,-1,-1,1
1569408082130947,-1,-2,-4,0,-1,-1,0,1
1569408082138929,-3,-1,-1,-2,-1,-2,-3,0
1569408082138929,1,-2,0,-3,0,-3,0,2
1569408082153883,0,-1,0,-2,-1,0,0,2
1569408082153883,0,1,0,0,-1,0,-1,-1
1569408082154903,-1,-1,0,0,-1,1,0,1
1569408082154903,0,1,0,1,-1,-1,-2,0
1569408082175825,0,1,-2,1,0,-3,0,-2
1569408082175825,0,-1,-1,-1,0,-1,-1,-5
1569408082176823,-2,0,-1,-1,-1,0,-1,-2
1569408082176823,1,0,-1,0,0,0,0,3
1569408082190786,-2,-2,2,-1,-3,0,0,-1
1569408082190786,-2,-1,-1,0,-1,0,-2,-1
1569408082198766,-1,-1,-1,0,-1,-1,-2,0
1569408082198766,0,1,-2,0,1,-2,-2,1
1569408082213724,-1,0,1,-1,-1,-1,0,0
1569408082213724,0,0,-1,-2,0,-2,0,-1
1569408082214734,-4,1,2,0,0,-1,0,0
1569408082214734,7,0,-1,-2,-1,0,2,14
1569408082235668,-1,1,-1,1,-1,0,-1,-5
1569408082235668,-1,-1,-2,0,0,1,0,-2
1569408082236664,1,-1,-1,-1,1,-1,1,0
1569408082236664,-2,-1,-2,0,-2,-1,-2,-3
1569408082250625,-1,-1,-2,-1,-1,0,-1,1
1569408082250625,-2,-1,-1,-1,0,1,1,-1
1569408082258604,3,-1,-1,1,-2,-1,0,0
1569408082258604,0,0,0,0,0,0,-1,-2
1569408082273564,0,1,0,-1,-1,-1,-3,2
1569408082273564,-2,0,1,0,-2,-1,-2,-3
1569408082274561,1,-1,0,-1,-1,-1,-1,0
1569408082274561,0,0,-1,0,-1,-1,0,-2
1569408082296512,1,0,0,1,1,0,0,1
1569408082296512,-6,-2,-1,-1,-1,-2,-1,-6
1569408082296512,0,1,-2,-1,0,-2,0,4
1569408082296512,0,1,0,0,-1,1,0,-1
1569408082319442,0,1,-2,0,-1,-2,0,0
1569408082319442,1,-1,1,-1,0,1,1,-4
1569408082320439,0,0,0,-1,-3,0,1,0
1569408082320439,-3,-2,1,0,0,1,-2,-4
1569408082333438,-1,0,0,0,-3,0,0,1
1569408082333438,0,-2,0,-1,-2,-2,1,6
1569408082334402,0,0,-1,-1,0,-1,-2,-3
1569408082334402,0,1,0,0,0,-2,0,1
1569408082356343,-2,1,1,-3,-2,2,0,-1
1569408082356343,3,0,-3,2,1,-1,-1,4
1569408082357341,-3,2,0,0,-1,-1,1,1
1569408082357341,-1,0,-1,-3,-1,-2,-2,0
1569408082380278,-6,0,0,0,0,-1,0,-6
1569408082380278,-1,0,0,-1,-2,-1,-2,-5
1569408082380278,0,-2,0,0,-1,0,0,-2
1569408082380278,0,0,-1,0,0,0,0,-2
1569408082393273,1,-1,-1,-1,0,-2,0,2
1569408082393273,-1,0,0,0,0,0,0,-2
1569408082394242,-1,-2,0,-1,0,-1,-2,-4
1569408082394242,-3,-1,1,0,0,-1,0,-5
1569408082416195,1,-1,-2,-1,-2,0,0,3
1569408082416195,-1,-2,-1,-1,0,0,0,-4
1569408082417181,-6,0,-1,-2,-1,-1,-2,0
1569408082417181,-2,1,-1,-2,-1,0,-1,-3
1569408082439131,3,0,-2,-1,0,-3,1,11
1569408082439131,-2,-2,1,-1,-1,-3,-4,-13
1569408082440119,1,-1,0,0,0,0,0,2
1569408082440119,2,-1,-1,-1,-1,0,0,4
1569408082454092,-2,0,-1,1,-1,-1,0,-2
1569408082454092,-2,-1,-1,-2,0,0,-1,-2
1569408082454092,2,-1,-2,-1,-2,-1,0,3
1569408082454092,0,-1,-1,-2,-2,0,-1,-4
1569408082476033,0,-1,0,0,0,-1,-1,-1
1569408082476033,-2,-1,-2,-1,0,1,1,-3
1569408082477020,1,0,-1,-1,-2,-1,-1,1
1569408082477020,0,-1,-1,0,-2,-1,1,3
1569408082499025,0,0,1,-1,-2,1,0,-1
1569408082499025,-5,-1,-1,0,-1,-3,-4,-7
1569408082499997,1,-2,-1,0,0,0,0,3
1569408082499997,-3,-1,0,0,1,-1,-2,0
1569408082513921,3,-1,-2,0,0,-2,-1,1
1569408082513921,-2,0,0,-1,-3,0,-2,-4
1569408082514924,-1,-1,-3,-3,0,-2,-1,6
1569408082514924,1,-1,0,0,1,-1,2,3
1569408082535921,-3,-1,-1,-1,1,0,-1,-6
1569408082535921,-1,0,0,-2,1,1,-2,-1
1569408082536860,1,1,1,1,-1,-2,0,4
1569408082536860,1,-1,0,-1,0,0,1,0
1569408082558801,0,-2,-2,-1,-3,-2,0,1
1569408082558801,0,-1,0,-1,0,-2,0,3
1569408082559799,0,0,-1,-1,-1,-1,0,-2
1569408082559799,-3,0,-3,-1,-2,-1,0,-2
1569408082573762,-1,0,-1,-2,0,-2,0,-3
1569408082573762,1,-1,-1,0,-2,1,0,1
1569408082574759,0,-1,0,-1,-1,0,1,0
1569408082574759,-12,-2,-1,0,-1,-1,-2,-9
1569408082596700,-2,-1,-1,-2,-2,0,0,-2
1569408082596700,2,-1,-1,-2,0,-2,0,1
1569408082596700,0,-1,-1,0,-1,0,-2,0
1569408082596700,3,0,1,-2,-1,-3,0,1
1569408082618641,-5,-1,-2,-1,-2,-2,-2,-3
1569408082618641,-4,-2,0,0,0,-1,-2,-1
1569408082619640,3,-1,0,-2,0,-1,0,1
1569408082619640,-2,0,1,1,-3,-2,-2,-1
1569408082633610,-2,0,-1,-1,0,0,-1,-11
1569408082633610,3,0,1,0,-1,0,0,0
1569408082634599,-6,0,-2,0,0,0,0,-4
1569408082634599,2,-1,0,0,-1,0,-1,3
1569408082656570,3,0,-2,-1,-1,-1,1,2
1569408082656570,0,0,1,0,-1,0,1,-3
1569408082656570,-1,0,-1,0,0,-2,0,-2
1569408082656570,-2,-1,-2,0,-1,-1,-1,-3
1569408082679517,6,0,-1,-1,-2,-2,-2,11
1569408082679517,-1,-1,0,-2,0,0,-2,0
1569408082680477,1,2,1,-1,-1,0,1,1
1569408082680477,2,0,-1,-1,0,0,2,6
1569408082693477,-2,0,-1,1,-1,-2,-2,-4
1569408082693477,-1,-1,-1,0,-1,-1,-1,-1
1569408082694440,0,-2,-1,-1,-1,-1,-1,-2
1569408082694440,1,1,0,0,0,0,-1,-1
1569408082716381,2,-1,-1,0,-1,-1,0,1
1569408082716381,-5,0,0,0,0,-1,-2,-6
1569408082717390,2,-1,-2,2,-2,-1,1,9
1569408082717390,0,0,0,0,0,-1,-2,-5
1569408082739320,2,-1,1,-2,-1,-1,0,3
1569408082739320,-1,0,-2,1,-1,-2,0,-3
1569408082740348,1,0,-1,0,-2,-1,-1,2
1569408082740348,-2,0,0,0,-2,-1,-2,-2
1569408082753340,-5,-1,-2,-1,2,-1,-1,-3
1569408082753340,1,-1,-1,-2,-1,-3,1,2
1569408082754279,-3,-1,-1,0,0,0,-2,-7
1569408082754279,1,-1,-2,0,-1,-1,0,1
1569408082776256,0,-1,0,0,-1,-2,-1,-6
1569408082776256,1,1,-2,1,2,0,0,2
1569408082777218,-2,0,-1,0,1,-1,-2,-4
1569408082777218,2,0,0,-1,0,1,1,2
1569408082799189,-4,0,1,-2,-1,-1,0,-3
1569408082799189,4,-2,-2,-1,-1,0,0,6
1569408082800160,-4,-1,0,-1,-1,0,-3,-10
1569408082800160,-1,-2,-2,0,0,0,-1,0
1569408082814148,-1,0,1,-1,-1,0,0,-3
1569408082814148,0,-2,1,0,-1,-2,-1,0
1569408082814148,-1,-1,2,-1,-3,0,1,0
1569408082814148,0,-2,0,-2,-2,0,-1,-2
1569408082836061,-1,-1,-2,0,0,1,-1,-4
1569408082836061,-3,-2,0,-1,0,0,-1,-5
1569408082837060,0,-1,-1,-2,0,-2,1,2
1569408082837060,-9,-2,-1,-1,-1,-2,-2,-10
1569408082858999,1,-1,0,-1,-1,0,0,3
1569408082858999,-3,0,0,-2,-2,1,0,-1
1569408082859996,-3,0,0,-2,0,-1,0,0
1569408082859996,7,2,-2,-2,-1,0,2,5
1569408082872966,-1,0,-1,-1,-1,-1,-3,-2
1569408082872966,-2,-1,0,-1,-2,-2,0,-2
1569408082880940,1,-3,-1,0,0,0,-1,0
1569408082880940,-2,0,-2,1,0,-1,-1,0
1569408082895900,-1,0,-2,-1,-2,0,-1,0
1569408082895900,1,0,-1,1,1,0,-2,1
1569408082896901,1,-1,0,-1,-1,0,1,-2
1569408082896901,-3,-1,1,-2,0,0,-2,-5
1569408082918861,0,-2,-1,-1,0,-2,0,3
1569408082918861,0,0,-1,1,0,1,-1,-1
1569408082919840,1,1,-1,-3,-1,-2,1,3
1569408082919840,-3,-2,0,-1,-2,0,1,-4
1569408082932802,-2,-1,0,1,0,1,-1,0
1569408082932802,0,0,-2,-2,-1,-1,1,1
1569408082940782,2,0,-2,0,-1,-2,-2,1
1569408082940782,0,0,-1,-1,1,-1,-1,4
1569408082955741,0,-1,-3,0,0,-1,0,-2
1569408082955741,1,-1,0,-1,-1,-1,-2,3
1569408082956872,-1,1,-1,0,-1,0,-1,1
1569408082956872,-3,-1,-1,-1,-1,0,-2,-1
1569408082979677,-2,-2,-2,-1,-2,-1,-1,-1
1569408082979677,-2,-1,-1,1,0,0,0,-5
1569408082979677,-1,-2,-1,-2,-3,-1,0,-4
1569408082979677,4,1,-1,-1,-2,-2,-1,5
1569408082992642,-4,0,0,0,-2,-1,-1,-3
1569408082992642,-2,0,0,-1,-1,-1,-1,-1
1569408083008609,-2,-1,-2,0,-1,0,0,1
1569408083008609,0,0,0,0,-1,1,1,1
1569408083016587,-4,-2,0,-1,0,1,-2,-11
1569408083016587,0,-1,0,0,0,-3,0,6
1569408083016587,2,0,-1,0,0,-1,2,3
1569408083016587,2,1,0,0,0,-1,0,0
1569408083039516,1,-2,-2,0,1,-1,-2,0
1569408083039516,-3,-1,0,-1,-1,0,-2,-8
1569408083040515,-1,1,-1,0,-1,1,-1,-3
1569408083040515,2,0,-3,1,-1,-1,0,6
1569408083053488,-10,-2,0,0,0,0,-3,-7
1569408083053488,-4,0,-1,-2,1,0,0,-3
1569408083061468,3,0,1,1,0,-2,-3,5
1569408083061468,1,-1,0,0,0,1,1,2
1569408083076419,1,1,0,0,-1,0,1,0
1569408083076419,1,1,0,-1,0,-1,0,0
1569408083076419,-3,-2,-1,-1,-1,0,-1,-3
1569408083076419,1,0,-2,-1,-1,0,-2,1
1569408083099356,1,-1,-2,0,0,-1,-1,3
1569408083099356,0,-1,-1,0,0,0,-1,0
1569408083100360,-1,0,-1,1,-2,2,-1,-2
1569408083100360,-6,1,1,-1,-2,-4,-1,-6
1569408083113319,10,0,-1,-2,-2,0,-2,10
1569408083113319,-3,-1,-2,-1,-3,-2,-10,1
1569408083121306,-1,0,-1,0,0,-1,-2,1
1569408083121306,-3,-1,-1,0,0,1,1,-3
1569408083136258,-1,1,2,1,1,-2,-5,1
1569408083136258,2,-1,-1,1,-2,-2,2,7
1569408083137280,-1,0,-1,-1,-1,1,-2,-2
1569408083137280,0,-1,0,-1,0,0,0,0
1569408083159197,-2,-2,-1,-4,0,1,4,-8
1569408083159197,-3,0,-1,-1,0,-1,1,-10
1569408083160194,0,0,0,-2,1,-2,0,3
1569408083160194,1,0,-1,0,-1,0,0,2
1569408083173159,0,-2,0,1,-2,0,-1,-2
1569408083173159,-1,0,-1,0,0,2,1,-7
1569408083181149,0,-1,0,-1,-2,-1,-3,-2
1569408083181149,-2,-2,-1,-2,-1,-1,-1,-2
1569408083196141,-2,-2,-1,0,-1,0,1,0
1569408083196141,0,1,-1,1,-2,0,0,2
1569408083197096,-4,-1,-1,-1,0,-2,2,-2
1569408083197096,5,0,1,-2,0,0,1,8
1569408083219038,2,0,1,0,-2,-2,-2,-2
1569408083219038,0,0,-1,0,-2,0,0,0
1569408083220060,-4,-3,-1,0,0,-2,-1,-6
1569408083220060,0,0,-1,-1,0,-2,-2,-1
1569408083241985,-1,1,-2,-3,0,0,0,0
1569408083241985,1,-1,0,-3,-2,-1,1,3
1569408083242973,2,0,0,0,-1,1,1,2
1569408083242973,-2,-1,0,0,-1,-3,-2,-3
1569408083255939,-6,-1,-3,-2,-2,-1,0,-8
1569408083255939,-1,0,-1,1,0,1,2,-2
1569408083256936,1,0,0,1,0,-2,-1,-2
1569408083256936,1,0,0,-1,0,1,1,1
1569408083278879,-2,-1,0,-1,-1,-1,-1,-4
1569408083278879,2,-1,0,-1,0,0,-3,0
1569408083279875,2,0,-2,0,-1,-3,0,2
1569408083279875,-4,-1,1,-1,-2,-1,0,1
1569408083301816,3,-2,-2,-1,-1,0,0,3
1569408083301816,-2,-1,-2,-1,-2,-2,-1,0
1569408083302813,-5,-1,-2,-1,-1,0,0,-6
1569408083302813,2,0,-3,-1,0,0,1,-1
1569408083315779,-3,-2,-2,1,1,0,1,-5
1569408083315779,3,-1,1,-1,-1,0,0,3
1569408083316776,-2,-1,1,0,-1,-1,-1,-2
1569408083316776,-1,0,-2,-1,-1,-3,-1,0
1569408083339715,2,-1,-1,1,-2,1,-2,0
1569408083339715,-7,-2,-3,-1,-1,-1,0,-3
1569408083339715,1,0,-1,-2,-3,0,1,1
1569408083339715,2,0,-1,1,1,1,-1,0
1569408083361688,1,0,2,0,1,-2,-2,3
1569408083361688,0,-1,-1,1,1,-1,-3,-7
1569408083362655,-2,-1,-2,-2,1,0,-1,-3
1569408083362655,-1,0,-3,-1,-3,-2,-1,0
1569408083376615,-3,-3,-2,0,-1,-2,-1,-7
1569408083376615,0,0,0,0,1,-2,0,7
1569408083376615,3,0,-1,0,1,-1,-1,5
1569408083376615,-1,0,1,-1,0,-1,-1,-10
1569408083399556,-3,1,-1,-1,-1,-1,-2,-3
1569408083399556,0,2,-1,0,-1,-1,1,1
1569408083400553,-1,-1,-1,-1,-1,-1,-1,-5
1569408083400553,-1,-1,1,-1,-2,0,-1,6
1569408083421496,0,0,0,0,-2,-1,0,-2
1569408083421496,1,-1,-2,-1,-1,-2,1,1
1569408083422493,-3,-1,-2,-1,-2,-1,0,6
1569408083422493,0,-1,-1,-2,0,-2,0,2
1569408083436456,-2,-2,0,-1,-1,0,-1,-5
1569408083436456,3,-2,0,1,-1,0,-1,3
1569408083436456,1,1,0,-2,0,-1,0,-1
1569408083436456,-2,-2,-2,-1,1,0,0,-2
1569408083459404,-1,-1,2,0,0,0,-3,-1
1569408083459404,-1,-1,0,0,-1,0,1,-1
1569408083460392,0,0,-2,0,0,0,-2,0
1569408083460392,-3,-2,-1,0,-2,-1,-2,-2
1569408083481367,2,0,-1,-3,-1,-2,2,0
1569408083481367,-2,-2,0,-3,0,0,0,-1
1569408083482636,2,-2,2,-1,-1,0,1,2
1569408083482636,0,-1,-1,0,-2,-1,-1,0
1569408083496326,-1,-1,-2,-1,-1,-1,-3,-4
1569408083496326,0,1,0,-1,0,-2,-2,1
1569408083497298,3,0,-1,0,0,-1,-1,3
1569408083497298,0,-1,0,1,-3,-1,-1,-3
1569408083519244,-3,0,-2,0,0,0,-1,-2
1569408083519244,-1,-1,0,-2,-2,-2,-1,-2
1569408083520232,-2,-1,-2,1,0,-2,-1,-5
1569408083520232,1,-2,1,-1,0,0,0,0
1569408083542209,1,0,1,-1,-1,-1,-2,-3
1569408083542209,-1,-1,-1,-1,-1,-1,-1,0
1569408083542209,-1,0,1,-1,-1,0,1,-2
1569408083542209,1,-1,-1,-1,-1,-1,0,2
1569408083564120,1,-1,0,0,0,-2,0,0
1569408083564120,-1,0,-2,1,1,-1,-1,-2
1569408083565113,5,-1,-3,-1,-1,-1,-1,10
1569408083565113,-2,0,-1,-2,0,-1,3,-1
1569408083579084,-2,0,-1,-1,-2,-1,-2,-4
1569408083579084,2,0,-1,0,-2,-2,0,2
1569408083580072,-2,-1,0,1,1,-2,-1,-6
1569408083580072,1,0,-1,-1,-1,-1,0,1
1569408083602013,-3,1,-2,-1,1,0,-1,-6
1569408083602013,2,0,-1,-2,-1,-1,1,4
1569408083603011,-2,-1,-2,-1,-2,-1,-2,0
1569408083603011,-1,-1,-2,1,0,-1,-2,-1
1569408083615976,-2,-1,0,0,0,0,1,-3
1569408083615976,-3,-1,-1,1,0,0,-4,-8
1569408083616973,4,0,-2,-1,0,1,2,10
1569408083616973,1,0,-2,-1,-1,-2,0,0
1569408083638944,2,0,0,-1,-1,1,0,3
1569408083638944,-3,-2,1,0,-1,1,-1,-2
1569408083639913,-1,-1,0,0,-3,-1,0,-4
1569408083639913,-1,-1,1,0,-1,-1,-1,-3
1569408083661862,-1,0,0,-2,0,-2,-1,-1
1569408083661862,3,0,-1,-2,-2,-1,0,5
1569408083662851,-3,0,0,0,0,1,-2,-5
1569408083662851,-5,-1,-1,1,-1,0,-1,-1
1569408083675826,5,-1,-2,0,1,-1,0,-1
1569408083675826,3,0,0,0,1,0,1,4
1569408083676814,-2,-2,-2,-1,0,-1,-3,0
1569408083676814,0,1,-1,-1,0,0,-1,-6
1569408083699826,-3,-2,1,1,-2,0,-1,-3
1569408083699826,-7,-2,-1,-1,-2,-2,-1,-4
1569408083699826,-1,0,0,-2,-1,1,-2,0
1569408083699826,0,0,0,-3,-1,0,-1,-1
1569408083721693,-2,-1,-2,-1,0,-1,-3,-2
1569408083721693,2,0,-2,-1,0,-1,-1,3
1569408083722691,-5,-1,0,-2,-1,-2,-1,-7
1569408083722691,-1,0,-2,-1,0,1,0,-1
1569408083736652,-3,0,-2,1,-1,1,0,2
1569408083736652,1,0,-1,0,0,-2,-1,-2
1569408083736652,2,0,0,-2,-1,-2,1,0
1569408083736652,0,-2,0,0,0,-1,0,3
1569408083759592,0,0,0,-2,-2,-1,1,8
1569408083759592,0,-1,0,0,-3,-1,1,-4
1569408083760599,-2,-1,1,0,-1,-1,-1,-4
1569408083760599,4,0,0,-2,-2,0,0,3
1569408083782541,-7,-2,-1,-1,0,0,-2,-11
1569408083782541,3,1,0,-3,0,1,-1,4
1569408083782541,-7,-1,-2,1,0,0,-3,-4
1569408083782541,-1,-1,-2,0,-2,-1,0,2
1569408083796494,-2,1,-1,0,-1,-2,-2,-4
1569408083796494,-2,-2,-1,-1,0,-1,-1,1
1569408083796494,0,-2,0,0,-2,1,0,-8
1569408083796494,0,1,0,-1,0,-1,-1,2
1569408083819440,1,0,0,-2,0,0,-2,-1
1569408083819440,0,-2,-1,-2,0,-1,1,1
1569408083820430,-1,0,-2,-2,0,-1,-1,-1
1569408083820430,-2,-2,-2,0,-1,0,-1,-5
1569408083842371,2,1,0,0,-1,-2,-2,0
1569408083842371,-2,0,0,0,1,-1,-1,3
1569408083842371,2,-1,1,0,-1,-1,0,-7
1569408083842371,0,-1,-2,-3,-1,0,-1,-3
1569408083855336,-2,-2,0,-1,0,-1,-1,0
1569408083855336,-2,0,-1,1,-1,0,-1,0
1569408083863314,0,1,-2,-2,-2,-1,-1,3
1569408083863314,2,1,1,0,-1,0,0,1
1569408083879272,0,1,-1,0,-1,-2,-1,-1
1569408083879272,0,-1,-1,-1,-2,-2,-2,-3
1569408083880270,2,1,0,1,0,-1,-1,3
1569408083880270,-1,0,1,0,1,-2,-3,-2
1569408083902249,-1,-1,-1,0,-1,0,-1,-1
1569408083902249,1,0,-2,0,-2,0,-1,1
1569408083902249,0,0,0,-1,0,-1,1,1
1569408083902249,-2,-1,-2,0,-1,-1,0,-1
1569408083915224,-1,0,-1,0,-1,1,0,2
1569408083915224,-1,0,0,1,0,-1,0,-1
1569408083923193,1,-1,-1,-1,-1,-1,-1,4
1569408083923193,-2,0,-1,1,0,-1,-1,-2
1569408083939113,-1,-2,2,-1,0,-2,-2,-1
1569408083939113,0,1,-1,-1,-1,-1,1,2
1569408083940109,0,1,0,-1,0,-1,2,4
1569408083940109,-2,-2,0,-1,0,-1,-1,-5
1569408083962051,1,0,-1,0,1,0,-1,-2
1569408083962051,3,-1,-1,0,-1,-1,0,0
1569408083963048,-2,-1,-1,1,0,-1,0,-2
1569408083963048,1,-1,-2,-1,0,-1,-1,-2
1569408083975016,-10,-3,-3,0,-1,1,4,-24
1569408083975016,9,2,0,-2,-3,-1,-4,11
1569408083983992,-2,0,0,-2,-1,0,0,2
1569408083983992,-3,-1,-1,-2,0,0,-2,-5
1569408083999961,-3,-3,-2,-1,-1,0,4,0
1569408083999961,-5,-1,0,-1,0,0,1,-1
1569408083999961,2,-1,-2,-1,0,-1,-2,1
1569408083999961,0,0,-1,0,-3,-2,-2,-3
1569408084021902,8,0,-2,-4,-1,-3,1,22
1569408084021902,-3,-1,0,0,-2,0,-2,-14
1569408084022888,1,-1,-1,-2,0,0,-1,3
1569408084022888,-2,-1,-1,-1,0,0,1,2
1569408084035863,0,0,0,0,1,1,-3,-1
1569408084035863,-3,-3,0,0,-2,-2,-1,1
1569408084043833,0,1,-2,2,1,0,0,1
1569408084043833,-4,1,-1,0,-2,0,0,-6
1569408084058792,-2,-3,-2,0,0,-1,-4,-2
1569408084058792,1,-1,-2,-1,0,1,-1,2
1569408084059789,-5,-2,-1,-1,-1,-2,-1,2
1569408084059789,-4,-2,-2,-1,-2,-2,-1,-2
1569408084081740,0,0,0,-1,0,0,-2,1
1569408084081740,0,-1,-1,0,0,0,1,-1
1569408084082753,0,0,-1,0,-1,0,0,0
1569408084082753,-1,-1,0,-1,1,0,0,-1
1569408084095726,0,0,0,-1,-2,-1,-1,-1
1569408084095726,-5,-3,-2,1,-1,-1,-1,-5
1569408084103672,1,0,1,0,-1,-1,0,-1
1569408084103672,0,-1,-1,-1,0,0,-1,-1
1569408084119630,-1,-1,0,-1,0,2,-2,2
1569408084119630,-4,-1,-1,-1,0,-1,-2,-4
1569408084119630,1,0,-1,0,-2,-1,1,1
1569408084119630,1,-1,-1,-1,0,-1,0,0
1569408084141571,-1,0,0,0,-2,-2,1,-1
1569408084141571,0,1,0,-2,0,-1,0,0
1569408084142574,1,-1,0,0,-2,-1,1,6
1569408084142574,-3,-1,0,-1,-2,-1,-4,-6
1569408084155542,0,1,-1,2,-3,-1,-2,-2
1569408084155542,-1,0,-1,-1,-1,0,1,2
1569408084163512,-1,-1,-1,0,0,0,0,-5
1569408084163512,-1,-2,-1,0,0,1,-1,0
1569408084179470,-2,1,0,1,1,1,-1,-3
1569408084179470,4,-1,-1,-1,0,-2,0,5
1569408084180475,-4,1,0,0,-1,0,1,-1
1569408084180475,-3,-1,0,-1,-1,0,-2,-5
1569408084201421,1,-3,-2,-1,-1,2,-2,0
1569408084201421,-2,-2,0,1,-2,0,-2,-3
1569408084202408,2,1,-1,0,0,-2,0,0
1569408084202408,5,-2,0,-1,-1,-1,0,3
1569408084224350,-3,-2,0,0,0,-2,0,-3
1569408084224350,-1,0,-1,0,0,0,0,0
1569408084225348,0,-2,-2,-1,-1,1,0,-4
1569408084225348,0,0,-1,2,-2,0,1,1
1569408084239311,2,0,0,-3,-1,-2,-2,1
1569408084239311,1,1,0,-1,-1,-2,1,-1
1569408084240307,-2,-2,0,-1,0,0,-1,-3
1569408084240307,-3,1,-1,1,0,-1,0,-3
1569408084262261,1,1,0,-1,-1,-1,0,4
1569408084262261,-1,1,-1,0,0,0,-1,-1
1569408084263251,1,0,0,-2,-1,-1,1,1
1569408084263251,0,-1,-1,-1,-1,0,0,-3
1569408084284190,0,0,-1,0,-1,-1,0,4
1569408084284190,1,-1,0,-1,-1,-1,-1,1
1569408084286185,-2,-1,0,0,-2,0,-2,-2
1569408084286185,1,0,-1,0,-2,-1,-1,2
1569408084298162,1,-2,1,-1,0,-1,-1,-2
1569408084298162,-2,0,-1,-2,-1,-2,-1,-1
1569408084307128,-3,0,0,0,1,-1,0,7
1569408084307128,-1,-2,-2,-1,-1,-2,-1,-4
1569408084322098,-2,-1,-1,0,0,0,-1,-1
1569408084322098,2,-1,0,0,-2,-1,-1,5
1569408084323086,-1,-1,0,0,0,-2,-1,1
1569408084323086,-4,0,-2,0,1,-1,-2,-4
1569408084344029,-1,1,1,-2,-1,0,0,0
1569408084344029,-1,0,-1,0,0,-1,0,-3
1569408084346025,1,-1,-2,-2,-2,0,0,0
1569408084346025,-1,-1,0,1,1,2,-5,-1
1569408084358004,-2,-1,0,-1,0,-1,1,1
1569408084358004,-3,-1,-1,2,1,0,0,-3
1569408084366969,3,0,-1,-2,-1,-2,1,4
1569408084366969,-1,1,0,-1,-1,-1,0,-2
1569408084381929,0,0,-1,1,1,-2,-2,-7
1569408084381929,-1,-1,-1,-1,-3,-1,-3,2
1569408084382926,0,-1,-2,-2,0,1,3,0
1569408084382926,0,1,0,-1,-2,-1,0,2
1569408084404868,1,0,-1,0,-1,0,1,-1
1569408084404868,-1,-2,-1,-1,0,-1,0,1
1569408084405865,2,-1,-1,-2,0,-2,0,-1
1569408084405865,-2,0,-1,-1,0,0,-1,-4
1569408084418830,0,1,-1,0,-3,-2,-1,-1
1569408084418830,-1,0,-1,-1,-2,-1,-2,-2
1569408084425810,-2,1,1,1,-1,0,-1,0
1569408084425810,0,-1,-2,-2,0,0,0,-4
1569408084441778,2,-1,-1,-1,-1,0,0,2
1569408084441778,-3,0,-2,-2,1,-2,0,-3
1569408084443781,-1,-2,-2,0,-3,-2,-2,2
1569408084443781,0,0,-1,-2,0,-2,-2,-12
1569408084464709,2,0,0,0,0,-1,-2,4
1569408084464709,1,-1,-2,-1,-1,1,2,-1
1569408084465706,1,1,0,-1,-2,-1,0,-1
1569408084465706,-2,-1,0,0,-1,1,-1,0
1569408084478669,-2,0,-2,-2,1,0,1,-1
1569408084478669,1,-1,0,-1,-2,-1,-1,1
1569408084485653,1,0,-1,-1,1,1,-4,-4
1569408084485653,-2,0,-1,-1,-1,-1,-2,-9
1569408084501637,0,-1,0,-2,1,0,1,7
1569408084501637,0,0,0,-1,-1,-1,-1,1
1569408084503636,3,-1,-1,0,0,0,1,5
1569408084503636,-1,-1,1,0,-2,1,0,-3
1569408084524840,-2,-2,0,-1,-2,1,-2,0
1569408084524840,-2,-1,-1,-1,-1,-1,0,-5
1569408084526575,-2,0,-2,0,-1,0,-2,-1
1569408084526575,-1,0,-1,-1,0,-1,0,0
1569408084538806,-1,1,-2,0,-1,-1,1,-1
1569408084538806,-1,-1,0,0,-1,-1,-2,0
1569408084545536,-1,0,-1,0,-1,-2,-1,-2
1569408084545536,0,-3,-1,-2,0,-1,-2,4
1569408084562562,1,-1,1,0,-2,-3,0,1
1569408084562562,-1,-1,0,-2,1,1,-1,-2
1569408084563444,-2,0,-2,-1,-1,-1,-3,-4
1569408084563444,-2,-1,-1,-1,1,0,-1,1
1569408084584685,0,-2,-1,-1,0,0,-1,4
1569408084584685,-1,1,-1,0,0,0,0,-5
1569408084586381,-1,-1,-1,-1,0,-3,1,3
1569408084586381,0,-3,1,1,1,-1,-3,-2
1569408084599388,4,0,0,1,-1,-2,-1,0
1569408084599388,-4,-2,-1,1,0,0,-1,-2
1569408084605626,3,-1,-1,-1,1,1,2,3
1569408084605626,-1,0,0,0,-1,0,0,-3
1569408084622539,-1,2,-3,-1,-1,0,-1,2
1569408084622539,1,0,0,-1,-1,0,-1,-2
1569408084623284,-1,0,-1,-1,-1,-1,1,-3
1569408084623284,-3,-1,-1,1,-1,-2,0,0
1569408084644522,1,-1,-1,0,0,1,0,0
1569408084644522,0,1,-1,0,-1,-3,0,0
1569408084646235,-3,-1,-3,-3,-1,2,-2,-5
1569408084646235,0,-2,0,-1,-1,0,0,2
1569408084659389,-1,-2,-1,-1,0,-2,-2,-2
1569408084659389,0,-1,-1,-1,-1,1,-2,0
1569408084666249,2,-1,-1,0,-2,-1,0,-1
1569408084666249,1,0,-1,-2,0,0,-1,0
1569408084682422,-2,1,-3,-2,-2,-1,-1,-2
1569408084682422,-4,0,-1,1,1,-2,1,-7
1569408084683248,3,0,0,-1,0,-2,1,2
1569408084683248,-3,-1,-2,0,-2,-3,-2,-6
1569408084705119,4,-2,1,-1,-1,-1,-1,14
1569408084705119,3,0,-1,-2,-2,1,0,2
1569408084706063,-2,-3,0,-1,-1,-1,-2,-2
1569408084706063,2,0,-1,1,0,1,0,0
1569408084718321,-8,-1,0,0,-2,-2,0,-7
1569408084718321,0,-1,0,-1,0,-2,0,0
1569408084727645,-2,-2,0,-1,1,-1,-1,0
1569408084727645,-1,-2,-2,-1,0,0,-1,-1
1569408084742560,0,0,-2,-2,-2,-1,1,0
1569408084742560,-2,1,-1,-1,-1,0,-1,-2
1569408084743317,-4,1,0,0,-2,1,0,-9
1569408084743317,-1,-1,0,-2,0,0,0,1
1569408084764297,-2,-1,-1,-1,0,1,1,-4
1569408084764297,1,-1,-1,-1,0,-1,0,2
1569408084766241,-1,0,0,0,-1,-1,-1,1
1569408084766241,0,-1,-1,-2,-1,0,1,-2
1569408084778503,1,0,0,0,0,1,-1,-1
1569408084778503,-1,-2,-2,-1,-2,1,0,3
1569408084787185,-2,1,1,0,0,0,0,1
1569408084787185,-1,-1,-1,1,-1,0,-2,-3
1569408084802154,-1,0,0,0,0,0,-2,-5
1569408084802154,0,-2,-1,-1,0,-1,-1,1
1569408084803154,-3,-2,-2,-2,0,0,-4,-8
1569408084803154,10,0,-2,-1,-3,-3,2,22
1569408084824386,1,-2,0,-2,2,2,-4,0
1569408084824386,-1,0,-2,-1,-2,-1,1,0
1569408084826082,-1,-1,0,-1,0,0,1,-2
1569408084826082,1,0,0,1,0,-1,0,-7
1569408084838341,10,12,0,-5,-5,-2,2,3
1569408084838341,-16,-7,16,11,6,1,2,9
1569408084847025,-5,-1,-9,-4,-1,2,0,-8
1569408084847025,5,18,2,-2,-3,-1,4,2
1569408084862281,18,-13,-3,-4,-4,-3,7,0
1569408084862281,-20,-38,-26,-3,0,-3,-20,-14
1569408084862983,-16,-1,7,2,-3,-3,1,-5
1569408084862983,32,14,-9,-4,1,1,-4,6
1569408084885063,-22,12,26,13,1,-1,7,-2
1569408084885063,30,56,9,-1,-2,1,19,13
1569408084885923,32,-5,17,10,2,0,9,11
1569408084885923,-62,-22,-4,0,-1,-3,-12,-25
1569408084897890,-23,-16,-12,-14,-7,-9,-20,-12
1569408084897890,20,-3,-12,5,0,0,2,3
1569408084906903,-28,-15,-13,-18,-18,-7,-15,-2
1569408084906903,10,7,-7,-11,1,-1,18,5
1569408084921891,14,18,-8,6,10,5,4,8
1569408084921891,-3,11,4,-11,-3,2,0,1
1569408084935970,66,13,8,19,15,9,19,22
1569408084935970,-11,4,22,7,-8,-2,-16,-6
1569408084945038,-28,-46,-2,5,6,1,-4,-12
1569408084945038,24,25,1,-9,-5,-5,-6,-3
1569408084945802,10,-1,-16,-5,2,-3,-14,-8
1569408084945802,-18,-16,-9,-5,-2,0,-2,-12
1569408084958727,13,-5,-3,3,3,1,2,3
1569408084958727,1,-2,6,4,-3,-3,-5,3
1569408084966938,15,12,10,-1,0,1,9,12
1569408084966938,-21,-7,-8,-3,1,1,11,16
1569408084981667,6,5,-12,-3,0,1,-4,34
1569408084981667,-23,-38,-14,-9,-9,-1,20,48
1569408084987650,3,12,-1,-9,-3,-7,-11,69
1569408084987650,24,0,-16,11,-2,-4,15,67
1569408085004607,68,30,-1,-18,-13,-8,33,51
1569408085004607,-51,-19,10,9,9,6,55,45
1569408085005603,-30,3,10,8,4,3,28,6
1569408085005603,-6,-4,15,3,4,3,1,-64
1569408085017569,6,-6,-5,-6,-13,0,-33,-107
1569408085017569,24,19,-5,16,10,1,-39,-128
1569408085026565,-12,3,4,-10,-11,0,-28,-124
1569408085026565,-5,-16,2,1,1,1,-39,-74
1569408085041506,-19,-2,6,11,7,-2,-33,-61
1569408085041506,4,1,-7,-13,1,0,-29,-9
1569408085047503,-5,-11,-2,-2,-2,-1,-18,-5
1569408085047503,26,11,-4,-7,-3,-1,-8,14
1569408085064446,33,14,-4,2,2,2,4,40
1569408085064446,-5,-23,-7,-5,-6,-5,-2,35
1569408085065443,-44,-12,-4,5,8,2,1,15
1569408085065443,8,1,4,-3,-8,-3,5,25
1569408085078408,8,-11,7,-2,-1,2,24,50
1569408085078408,14,15,-1,-7,1,0,9,24
1569408085087383,13,9,6,8,-14,-4,7,0
1569408085087383,4,-14,7,12,17,3,7,-1
1569408085101355,-16,16,1,1,4,0,1,-1
1569408085101355,23,7,5,3,6,-1,-9,0
1569408085108328,-28,-13,-6,-5,-1,-3,0,-5
1569408085108328,-78,-13,-5,-14,-9,-2,-1,-14
1569408085125291,25,7,-2,6,-2,-2,-1,15
1569408085125291,6,-8,-7,-5,-5,-1,-3,11
1569408085127277,3,-5,5,-1,-2,0,1,-5
1569408085127277,16,4,-8,-2,-3,-2,3,8
1569408085147223,-9,10,6,-1,1,-3,-1,-11
1569408085147223,-19,-5,1,-1,-4,3,1,9
1569408085148222,22,-1,-2,-3,1,0,-3,-3
1569408085148222,-9,-1,-8,-3,1,1,-3,-3
1569408085161196,-44,-27,-3,4,2,-1,-1,-2
1569408085161196,53,29,6,-3,-6,-6,-3,8
1569408085168177,7,-7,-15,-4,5,1,-1,-4
1569408085168177,85,19,7,3,8,3,3,16
1569408085184143,-77,-32,-8,-10,-8,0,-3,-20
1569408085184143,-44,-18,-5,1,-3,1,0,7
1569408085186121,8,10,-8,-1,-1,2,3,3
1569408085186121,41,32,15,-1,-26,-1,4,5
1569408085207064,-34,-23,-9,-3,20,-5,0,1
1569408085207064,-1,3,-18,-5,5,1,2,2
1569408085208071,25,29,30,10,5,-2,1,3
1569408085208071,-40,-3,-3,2,-2,-6,-10,-27
1569408085229006,-43,1,19,6,-11,0,3,4
1569408085229006,-6,5,-6,0,13,1,1,3
1569408085231000,-53,-61,-22,-8,-10,-6,-5,-10
1569408085231000,24,23,-4,-2,-6,0,4,8
1569408085243966,17,1,-9,-6,-13,0,2,11
1569408085243966,16,-15,5,3,9,0,1,9
1569408085245961,-53,-3,-6,-2,0,1,-4,-18
1569408085245961,-3,-11,1,-1,5,1,3,8
1569408085266915,29,-3,-8,-2,-7,-1,3,11
1569408085266915,40,43,13,3,-1,0,5,18
1569408085268899,-13,-21,-2,5,1,0,0,-5
1569408085268899,-20,-9,6,0,2,0,-2,-18
1569408085280866,-1,3,-10,-6,2,1,-3,0
1569408085280866,-45,-28,12,10,-5,-2,1,13
1569408085289843,70,38,-11,-9,-6,0,0,3
1569408085289843,-67,-45,-4,2,-2,-4,-9,-9
1569408085304803,-17,8,0,-4,14,0,1,2
1569408085304803,26,8,3,0,-15,-1,-1,12
1569408085305799,18,-2,-13,-8,7,1,6,5
1569408085305799,10,-9,3,10,2,-5,-4,-14
1569408085326753,11,8,13,-1,-7,-3,-4,-12
1569408085326753,-16,-2,7,-1,-7,1,3,12
1569408085328739,5,5,-4,-1,0,0,3,-3
1569408085328739,36,19,-3,-5,-7,2,6,3
1569408085340708,-12,-20,-9,-2,7,-3,-7,-12
1569408085340708,-22,-2,8,3,9,2,1,3
1569408085349012,11,8,1,-1,-8,-2,2,-5
1569408085349012,-27,-6,-2,-1,4,5,3,12
1569408085363973,36,27,0,-2,0,1,2,20
1569408085363973,-5,-14,-4,5,17,0,5,20
1569408085365967,-3,-1,-4,-5,-12,-6,-1,-13
1569408085365967,2,6,3,-4,-3,-1,0,15
1569408085386911,13,5,4,1,-3,3,7,29
1569408085386911,-39,-17,-4,-4,-8,-7,-1,28
1569408085388915,-2,-10,-5,-1,5,2,1,17
1569408085388915,-27,-10,-6,1,1,-2,1,-13
1569408085400874,40,19,-9,1,1,-1,1,28
1569408085400874,20,8,15,1,-3,2,4,80
1569408085409850,-35,-5,6,4,4,2,-5,-66
1569408085409850,0,-10,-12,-14,-5,1,-2,-12
1569408085424820,30,21,1,1,4,-2,-3,-42
1569408085424820,9,17,7,6,1,1,4,-50
1569408085425806,-36,-23,10,11,6,1,-6,-76
1569408085425806,74,24,0,-5,1,0,-1,19
1569408085446758,3,-10,-4,-13,-50,-6,-5,66
1569408085446758,6,-12,-10,15,45,-1,6,15
1569408085448747,-8,8,0,2,16,8,-1,-57
1569408085448747,15,3,6,4,1,4,9,14
1569408085460746,-42,-15,-7,-3,-8,-4,-2,14
1569408085460746,32,6,-13,-16,-30,-6,-2,-24
1569408085469690,13,10,24,7,-2,-5,-10,-51
1569408085469690,-25,-3,3,4,11,2,12,19
1569408085484659,9,4,-7,0,4,1,13,27
1569408085484659,-6,-36,-4,-11,-16,-3,2,51
1569408085485648,-11,-9,-12,-8,-6,-3,-10,-42
1569408085485648,0,5,4,0,-2,-5,-25,39
1569408085506600,6,9,13,20,28,6,1,12
1569408085506600,4,2,0,-3,-6,3,32,39
1569408085508586,36,11,-10,-7,-16,-7,2,-24
1569408085508586,-23,-8,4,0,4,-1,-5,33
1569408085520587,13,-10,2,1,1,2,-8,2
1569408085520587,5,11,-7,-4,-4,1,0,48
1569408085529529,50,11,-1,-10,-11,-5,-27,-9
1569408085529529,-12,-7,-5,-11,-34,-8,-20,32
1569408085544490,-4,-16,9,24,44,4,-18,-1
1569408085544490,-1,-7,-15,-16,-19,0,18,14
1569408085545488,-18,14,9,13,19,2,-11,-3
1569408085545488,17,8,-8,-7,-1,-1,-18,21
1569408085566441,-34,-27,-15,-14,-24,-5,-15,-4
1569408085566441,-12,6,1,4,6,4,19,17
1569408085568426,25,15,23,4,-5,-1,-5,-3
1569408085568426,-7,-18,-2,9,18,-1,0,13
1569408085580396,-19,2,4,-6,-8,1,16,14
1569408085580396,-18,-17,-13,2,7,1,5,-3
1569408085589370,32,11,-8,-11,-19,-4,-20,-6
1569408085589370,-5,-7,0,3,1,-3,-13,9
1569408085604330,9,3,1,1,4,1,16,18
1569408085604330,3,8,3,0,-5,-4,5,-12
1569408085606334,-35,-12,-9,-1,5,3,-14,8
1569408085606334,4,8,12,9,-1,-1,1,25
1569408085627271,-11,-20,-8,-2,1,-2,-11,9
1569408085627271,9,6,1,-7,-19,-5,8,-8
1569408085628269,-39,-13,0,4,6,2,-16,5
1569408085628269,19,10,-8,-3,5,0,2,38
1569408085640263,-4,5,3,0,-5,-8,-13,11
1569408085640263,27,13,4,-1,2,6,18,11
1569408085649212,15,3,-9,-3,0,3,-5,17
1569408085649212,-80,-32,-4,2,4,-5,-22,1
1569408085664171,-4,3,5,0,4,28,-2,21
1569408085664171,61,48,18,6,2,-2,4,-9
1569408085666169,-27,-21,-11,-1,4,-2,-25,10
1569408085666169,6,1,0,2,4,0,15,23
1569408085687137,-4,0,2,-1,-5,-9,5,4
1569408085687137,-27,-14,-6,-3,-1,1,10,-35
1569408085688158,16,-4,4,5,2,3,-1,-3
1569408085688158,-47,-4,-5,-3,-3,-2,1,-29
1569408085700074,23,2,-3,-5,-3,-5,7,17
1569408085700074,0,3,1,1,0,1,16,-22
1569408085709060,-12,3,5,4,2,-5,4,3
1569408085709060,-17,-25,-13,-8,-6,-3,-8,-12
1569408085725018,31,23,-3,-10,-10,-7,15,3
1569408085725018,-15,-12,-8,-1,1,-2,-6,-14
1569408085726004,-7,-2,0,2,2,1,-7,7
1569408085726004,37,9,11,0,-4,0,2,14
1569408085746962,-16,9,0,7,15,3,16,-8
1569408085746962,-25,-18,-5,-6,-8,-4,-16,-31
1569408085747948,12,6,-4,1,7,3,-5,-7
1569408085747948,62,34,0,-1,2,1,9,-6
1569408085760912,-40,-39,-6,-4,-5,-7,-5,0
1569408085760912,-5,0,2,3,-7,-2,-5,-20
1569408085769887,-18,-5,1,1,1,-1,-21,-5
1569408085769887,15,16,1,-5,-9,2,5,2
1569408085784857,-10,3,2,1,11,2,6,11
1569408085784857,-5,-6,-6,2,14,0,-9,-22
1569408085786841,49,15,-8,-7,-13,-7,-11,11
1569408085786841,-21,-18,2,4,1,3,-11,-5
1569408085806799,4,5,8,-1,-5,-1,-19,21
1569408085806799,-16,-17,-5,-7,-3,-4,-13,-28
1569408085808784,-20,13,9,5,6,-1,1,-12
1569408085808784,16,5,-7,0,9,1,17,-7
1569408085820751,24,-16,-7,-2,-6,-4,-2,48
1569408085820751,-25,-14,-2,-3,-7,-3,-5,-23
1569408085829727,-66,-21,-1,2,5,1,15,-7
1569408085829727,81,27,5,8,15,2,23,17
1569408085844704,-12,3,-1,0,-9,1,1,15
1569408085844704,28,10,12,8,-1,1,-7,-12
1569408085845686,8,-8,-8,-3,6,0,17,22
1569408085845686,5,4,0,0,-8,-2,7,13
1569408085866629,-5,0,-4,-7,-18,-5,16,15
1569408085866629,7,4,-1,6,28,10,-9,-17
1569408085868623,15,-4,-1,-1,-3,-2,7,24
1569408085868623,-13,-7,4,3,8,1,1,7
1569408085880595,-2,-6,-11,-8,-11,0,2,14
1569408085880595,30,20,-2,2,9,-7,-14,-3
1569408085889568,-41,-17,12,5,-8,1,8,21
1569408085889568,-43,-7,-5,-4,-8,-2,-7,-1
1569408085903531,25,8,-3,-2,5,-4,-4,19
1569408085903531,-21,-12,-2,-3,-7,-1,-9,-30
1569408085910546,53,8,-6,-6,-1,0,12,32
1569408085910546,-71,-24,-14,-17,-15,-6,-9,-30
1569408085926478,1,12,8,10,10,1,-8,0
1569408085926478,40,4,-8,-8,-11,-5,-10,-3
1569408085928463,-23,-6,-1,-4,-10,-2,5,36
1569408085928463,2,4,6,3,10,6,7,13
1569408085940431,2,-10,4,4,6,-2,-2,11
1569408085940431,14,2,-6,-2,-3,2,-6,14
1569408085949408,17,10,-2,-9,-16,-6,-3,0
1569408085949408,24,2,-5,7,13,1,2,26
1569408085963375,18,25,-15,-2,2,0,4,23
1569408085963375,-65,-26,54,12,-1,-2,-11,-31
1569408085970522,-17,-24,-14,-3,0,1,4,19
1569408085970522,18,3,1,-2,-6,-1,-1,12
1569408085987316,22,9,1,-3,-8,2,-1,22
1569408085987316,-36,-6,-18,-10,-8,-5,-2,0
1569408085988304,7,5,4,5,4,-1,8,4
1569408085988304,15,-12,4,7,10,-1,1,0
1569408086001298,2,14,2,-1,5,3,3,20
1569408086001298,24,-2,-14,-10,-15,-1,-9,-7
1569408086009248,12,-1,2,4,-4,-1,3,3
1569408086009248,28,22,9,-6,-21,2,4,12
1569408086024219,10,4,5,-1,4,-7,-1,17
1569408086024219,-31,-18,-2,11,23,5,-5,-20
1569408086030196,11,-3,-8,-2,-1,4,7,19
1569408086030196,-35,0,-5,-7,-11,-5,0,-17
1569408086047152,2,-8,6,1,-8,-2,0,9
1569408086047152,-8,2,-10,0,-2,2,0,-3
1569408086048144,33,37,25,15,13,-2,2,17
1569408086048144,23,0,-4,-5,-5,-1,-3,5
1569408086069088,-21,-12,0,-1,-1,3,5,10
1569408086069088,14,5,-18,-9,-3,-4,-5,2
1569408086071082,-16,1,5,-2,8,0,6,8
1569408086071082,-4,-4,-3,-13,-28,-2,1,3
1569408086084086,-58,-5,-4,2,22,-6,1,2
1569408086084086,6,1,4,0,-2,12,0,-3
1569408086090069,9,4,-13,-13,-7,-3,0,18
1569408086090069,-4,-9,-3,-3,-2,-4,-1,-1
1569408086107024,8,-18,-12,-4,-1,5,5,0
1569408086107024,25,3,14,9,1,-2,4,-21
1569408086107987,-1,11,-11,-12,-6,-7,-12,11
1569408086107987,2,9,8,5,4,3,1,-7
1569408086129934,27,6,3,6,7,3,10,18
1569408086129934,-24,-13,-1,-3,-16,-3,2,-25
1569408086130926,5,-2,-8,-11,-1,2,0,0
1569408086130926,-3,-12,-1,16,34,0,1,-14
1569408086143888,14,5,1,2,-1,3,2,7
1569408086143888,-5,9,3,-2,0,-6,-7,-26
1569408086150869,-11,9,2,-1,-11,1,0,7
1569408086150869,-37,-36,-8,-3,-8,-6,-1,-2
1569408086166861,12,3,3,-7,-19,5,9,17
1569408086166861,-15,-7,-3,1,20,3,6,-27
1569408086168821,7,15,9,6,6,-4,-7,7
1569408086168821,10,9,5,2,-3,3,8,12
1569408086189765,11,12,4,-1,-8,-2,15,26
1569408086189765,14,6,4,6,3,0,-11,-10
1569408086190763,-1,-14,-4,-1,-13,-1,-13,12
1569408086190763,1,3,1,6,11,0,-1,3
1569408086202767,-5,-17,-11,-12,-12,-4,5,14
1569408086202767,3,17,10,8,8,0,-19,-20
1569408086211707,-45,-27,-4,1,5,0,-10,2
1569408086211707,27,16,-9,-9,-7,-6,-18,-15
1569408086226666,2,-3,-2,3,4,3,2,19
1569408086226666,-9,-1,-7,-9,-12,-8,-7,-22
1569408086228661,7,3,6,8,4,5,10,8
1569408086228661,2,-5,-4,-3,2,1,1,0
1569408086249606,-8,5,6,6,-2,-2,2,3
1569408086249606,3,0,-6,-7,0,-3,-6,-14
1569408086250603,-18,-25,-2,0,-4,-3,-7,2
1569408086250603,55,41,13,9,4,0,1,11
1569408086263576,-45,-59,-21,-8,-6,-1,1,9
1569408086263576,14,10,11,17,12,3,-11,-8
1569408086271547,4,5,14,7,7,1,-14,25
1569408086271547,7,8,1,-2,2,2,2,20
1569408086286518,-40,-27,-4,-2,-5,-4,4,7
1569408086286518,2,10,-6,-6,-10,-4,-5,-11
1569408086288501,6,-1,-8,-5,1,-1,5,33
1569408086288501,-41,-4,-4,1,0,-2,0,-9
1569408086309445,10,11,13,3,3,1,13,3
1569408086309445,9,-10,-10,-8,-6,-2,-17,-6
1569408086311440,-44,-8,4,5,0,2,2,24
1569408086311440,-22,-10,-6,-5,-11,-3,0,0
1569408086323408,25,37,17,11,10,-2,7,-1
1569408086323408,-26,-19,-1,-3,-1,2,-8,-13
1569408086332384,12,13,2,-3,-3,-3,1,36
1569408086332384,-31,-25,3,0,1,2,4,-6
1569408086346346,32,17,0,-1,-2,1,20,7
1569408086346346,6,2,-3,-3,-2,-4,-11,-11
1569408086348345,2,-20,-9,-3,-3,1,2,27
1569408086348345,22,6,-5,-10,-6,1,5,15
1569408086369285,-7,7,0,10,15,-1,5,5
1569408086369285,-14,-6,2,-2,-6,-2,-3,-1
1569408086371281,33,4,-6,-4,-11,-1,4,12
1569408086371281,-28,-11,3,5,23,0,-4,-3
1569408086383257,61,41,3,-4,-2,1,0,-1
1569408086383257,-25,-33,-14,-6,-8,-1,-10,-15
1569408086392224,-63,-19,-1,0,-2,-4,-1,-6
1569408086392224,9,3,5,2,-3,2,8,16
1569408086407184,8,1,-1,-3,-7,-4,2,-10
1569408086407184,-1,-2,7,6,3,-3,-10,-14
1569408086408181,28,8,-4,-5,-1,3,10,12
1569408086408181,-14,-10,-12,-3,-1,-4,-14,-12
1569408086429124,-18,-1,3,1,4,-3,0,-3
1569408086429124,25,22,-7,-3,-4,0,-5,6
1569408086431121,25,4,34,13,11,1,1,2
1569408086431121,-29,-13,-8,5,-1,-2,-4,-9
1569408086443158,19,12,2,-1,-3,-1,-1,-10
1569408086443158,-69,-18,-2,2,4,-1,-17,-16
1569408086452066,20,7,-11,-6,-1,-3,1,19
1569408086452066,7,3,2,-1,-1,-1,6,-2
1569408086467069,-7,-15,-6,-5,-7,1,3,0
1569408086467069,-2,0,-4,-6,-8,-4,6,-8
1569408086468021,-2,15,0,3,0,1,12,6
1569408086468021,14,-16,-2,-3,7,-4,0,-1
1569408086489012,-9,-9,-9,-2,-6,-3,-4,-2
1569408086489012,17,5,9,1,-9,0,3,-6
1569408086490960,7,0,2,8,14,0,1,2
1569408086490960,14,24,-3,-5,-4,1,-3,8
1569408086502928,-88,-36,1,0,-3,0,-10,-34
1569408086502928,2,-7,1,1,5,0,-2,-3
1569408086511904,22,-3,-8,-6,-7,-2,6,14
1569408086511904,12,8,-5,-5,-5,-3,2,-1
1569408086526891,-29,-19,-7,-8,3,0,-8,-22
1569408086526891,0,13,12,9,2,1,-2,-10
1569408086528859,-18,-10,-8,-3,2,-1,4,4
1569408086528859,42,12,1,2,11,3,10,15
1569408086548808,29,7,4,10,6,-5,-14,-9
1569408086548808,11,5,0,-3,1,-1,-4,-5
1569408086550800,-21,-19,-12,-12,-10,-1,4,8
1569408086550800,20,14,12,8,-7,-2,2,6
1569408086562768,19,21,-1,-2,-1,-3,-1,-9
1569408086562768,-7,-6,0,-1,-8,-3,-6,5
1569408086571746,34,14,-1,-1,10,0,1,6
1569408086571746,-24,-19,-6,-7,-10,-1,-4,-4
1569408086586703,2,10,-4,-3,0,1,3,-9
1569408086586703,17,-3,-3,-3,-12,-3,-10,4
1569408086588699,-1,-10,-1,4,2,-2,2,9
1569408086588699,-55,-8,2,-1,8,-1,-6,-11
1569408086616635,-11,-8,2,0,-3,1,1,-13
1569408086616635,15,8,0,4,11,4,4,11
1569408086618618,4,-4,-6,-7,-9,-3,-5,-12
1569408086618618,19,15,3,2,-7,-1,-3,4
1569408086622608,13,3,0,-8,-13,-2,0,-17
1569408086622608,-13,-10,-1,4,13,4,2,7
1569408086631594,44,6,3,3,3,1,7,12
1569408086631594,-63,-30,-5,5,-3,-1,-9,-42
1569408086646544,26,20,-4,-11,-13,-4,-4,-1
1569408086646544,21,10,4,1,7,-2,-9,0
1569408086648539,-15,-6,0,5,11,2,0,22
1569408086648539,21,3,-4,-7,-18,-1,6,27
1569408086669492,-15,2,4,6,2,-1,-1,-27
1569408086669492,-34,0,7,-3,-7,-4,-9,-8
1569408086670482,9,19,-1,-4,-7,0,3,5
1569408086670482,-6,-26,-8,-7,-6,0,0,16
1569408086683456,29,0,5,13,9,4,7,5
1569408086683456,-15,-9,-6,-8,-21,-5,-15,12
1569408086692422,-25,-11,-5,-1,8,3,3,11
1569408086692422,37,5,-3,-4,0,-6,4,16
1569408086707390,21,2,0,6,16,1,-1,-11
1569408086707390,8,19,3,-3,-11,3,5,6
1569408086708379,-34,-31,-7,-3,-5,0,1,3
1569408086708379,-1,4,-2,2,11,3,-1,17
1569408086729323,-27,-7,3,6,5,-4,-2,-23
1569408086729323,29,25,7,5,4,-1,-6,4
1569408086731318,-28,-3,-1,-3,-12,-2,-3,-8
1569408086731318,56,6,0,1,0,0,4,40
1569408086743314,-31,-12,-6,-7,-6,1,-7,-22
1569408086743314,-13,-14,-6,-3,6,3,2,18
1569408086752261,28,8,-2,-4,-6,-5,-2,6
1569408086752261,2,7,5,8,10,4,14,31
1569408086767222,3,5,0,-2,-2,0,-2,-22
1569408086767222,-11,-10,-7,0,2,-3,-6,4
1569408086768219,9,9,7,7,4,2,9,-2
1569408086768219,-41,0,-4,-5,-6,-2,-3,-3
1569408086789163,20,-2,-2,-2,-4,-1,4,-14
1569408086789163,43,8,-3,-7,-1,-1,-2,11
1569408086791159,-6,-5,-2,4,4,-2,-16,0
1569408086791159,-9,-4,3,-5,-8,2,3,24
1569408086803419,15,36,14,5,4,2,-2,-11
1569408086803419,5,-45,-17,-5,0,-3,-29,14
1569408086812102,-14,-11,-2,-4,-8,-3,-5,15
1569408086812102,-5,13,-2,-4,-10,-2,10,19
1569408086826074,-54,1,-2,2,8,-1,-4,-45
1569408086826074,-21,-10,1,3,1,-4,-9,10
1569408086833046,-15,0,-2,0,1,1,6,-19
1569408086833046,3,-7,-3,-2,-6,-2,3,35
1569408086849014,6,-7,-5,-6,-2,-3,5,-13
1569408086849014,-11,-3,3,4,2,2,-22,-6
1569408086850997,-5,9,-1,-1,-1,-3,-4,10
1569408086850997,-33,-1,3,-1,3,2,2,12
1569408086862966,-4,-6,-9,-13,-16,-4,-7,-39
1569408086862966,8,13,0,-2,5,0,2,26
1569408086871941,-35,-1,6,6,0,1,3,-16
1569408086871941,47,25,-1,1,1,-7,6,5
1569408086885904,-18,-31,-7,-3,-2,0,-9,-19
1569408086885904,-11,-16,0,2,2,3,8,17
1569408086892886,-17,-3,-6,-6,-3,-7,-18,-42
1569408086892886,7,-4,-1,1,1,0,3,12
1569408086908853,-9,-12,-7,2,1,0,9,-7
1569408086908853,60,24,9,6,2,1,-22,12
1569408086910838,17,8,7,-1,-9,2,4,14
1569408086910838,-8,-6,4,9,12,1,-3,2
1569408086922827,19,-5,-5,-2,0,0,-4,0
1569408086922827,-15,-4,-2,-1,-1,-2,7,25
1569408086931783,28,31,5,3,0,0,8,13
1569408086931783,-8,-35,-11,-8,-6,-1,-8,14
1569408086946749,5,-6,-1,-1,10,1,1,-7
1569408086946749,-27,7,-4,-2,3,0,-2,-8
1569408086952727,-13,0,7,2,0,2,21,20
1569408086952727,55,20,0,-3,-4,-6,1,36
1569408086969708,-40,-13,-3,-3,2,9,-12,-41
1569408086969708,-10,10,1,0,-4,-5,-1,1
1569408086970697,5,-13,-11,-9,5,2,4,15
1569408086970697,-9,-3,-1,6,5,0,11,26
1569408086982676,25,27,14,5,-6,-5,-5,-8
1569408086982676,-15,-5,-3,0,-1,0,-13,4
1569408086991623,2,-4,-4,0,-2,0,0,11
1569408086991623,-12,-6,-5,-5,-6,0,8,22
1569408087006581,55,11,-4,-3,-8,-3,-1,7
1569408087006581,-13,-2,4,-2,1,-2,-2,21
1569408087013566,26,-3,-5,-1,-14,-5,-1,3
1569408087013566,-1,2,-1,0,4,1,2,13
1569408087029520,2,-1,2,3,12,0,-6,-12
1569408087029520,14,7,-2,-7,-16,-6,-14,11
1569408087030518,-10,2,1,1,6,2,1,-9
1569408087030518,5,-3,-8,-1,1,2,0,17
1569408087051471,-9,-7,2,-2,-10,-3,-22,-7
1569408087051471,-1,10,1,4,5,2,13,33
1569408087053457,-2,-5,13,6,6,-1,9,1
1569408087053457,49,27,15,8,-1,1,18,14
1569408087066431,-10,-4,-4,-2,3,-2,1,-11
1569408087066431,21,-5,-9,-6,-1,0,14,33
1569408087073404,19,6,-14,-8,-6,1,-3,6
1569408087073404,0,0,-1,0,5,-1,6,24
1569408087089361,-10,-6,4,6,-1,-1,-10,-8
1569408087089361,-8,0,-1,0,1,2,5,25
1569408087091388,15,14,-3,-2,2,0,1,5
1569408087091388,-23,-13,0,1,-4,1,9,19
1569408087112301,-2,1,-5,-4,-9,-4,-15,-15
1569408087112301,24,-3,-2,-2,-3,-8,18,18
1569408087113304,-72,-4,13,10,9,10,6,0
1569408087113304,-18,-24,-5,-4,-22,-5,-12,15
1569408087125322,10,-10,-8,1,19,1,-2,-7
1569408087125322,3,12,4,4,-4,2,10,19
1569408087134467,-5,-14,4,2,5,-9,-7,1
1569408087134467,-25,6,-1,2,10,4,-1,14
1569408087149201,-18,-7,-7,-7,-11,3,-5,-13
1569408087149201,-9,2,11,7,-1,-4,2,18
1569408087151196,45,12,0,-4,-7,0,4,13
1569408087151196,3,-4,-2,1,2,-5,-11,13
1569408087172139,17,6,-5,-6,-3,-4,-7,-6
1569408087172139,-31,-11,-5,-6,4,3,10,5
1569408087173136,31,4,-3,1,-2,-1,4,10
1569408087173136,-7,-6,1,-2,3,4,-2,16
1569408087185104,-8,-3,-3,-1,-2,0,-6,-11
1569408087185104,3,-7,-11,-10,0,1,5,15
1569408087194080,10,9,10,5,1,-2,-2,-14
1569408087194080,0,2,-8,-10,-2,2,8,20
1569408087209041,-27,-15,3,6,-2,-4,-12,-22
1569408087209041,27,7,-9,0,3,4,7,23
1569408087211038,-40,-11,4,-1,2,-1,-4,-3
1569408087211038,-9,8,2,-1,0,1,7,12
1569408087231980,9,9,-4,-7,-3,1,1,-10
1569408087231980,-5,-6,3,6,1,0,2,12
1569408087233010,-5,-7,-9,3,15,1,-2,-3
1569408087233010,15,16,8,8,2,-4,-2,7
1569408087245943,16,-3,1,4,-3,-1,-5,-9
1569408087245943,-29,1,-5,-7,-2,0,1,15
1569408087254919,-14,-21,-15,-8,-17,-6,0,-5
1569408087254919,-22,-8,5,-1,-3,-1,0,1
1569408087269888,17,17,10,9,2,-2,-4,-9
1569408087269888,-9,5,1,-5,-13,-3,2,10
1569408087270875,12,-4,-10,-10,3,-2,-1,0
1569408087270875,20,5,4,11,7,2,7,10
1569408087291820,-4,2,2,2,2,-2,-9,-24
1569408087291820,-16,-6,-5,-7,2,1,7,20
1569408087293814,-24,-4,9,6,-1,-2,-1,-29
1569408087293814,6,-2,0,0,4,0,4,1
1569408087305790,-28,2,-7,-9,-9,-3,-6,-18
1569408087305790,3,3,2,5,7,-2,-2,18
1569408087314758,13,-6,10,3,-7,1,2,7
1569408087314758,-5,14,-5,-13,-24,-6,3,-6
1569408087329718,-35,-39,-11,-1,28,1,-8,-21
1569408087329718,32,9,0,2,1,-2,11,22
1569408087330716,8,13,-4,-6,-1,-2,-2,-4
1569408087330716,1,-14,-10,-3,-1,-8,-3,-4
1569408087351698,-31,-10,1,-6,-12,8,-4,-9
1569408087351698,-20,-13,1,-4,-5,-2,2,-2
1569408087353656,40,19,-4,1,10,-2,-6,7
1569408087353656,-9,-4,-6,-10,-5,-3,2,0
1569408087365651,18,8,8,12,4,-1,-7,-7
1569408087365651,-27,-22,-3,6,11,1,8,18
1569408087374598,18,31,14,2,-11,-1,-4,-14
1569408087374598,-13,-21,-1,1,0,1,0,-5
1569408087389818,0,-2,2,-8,-10,2,-4,-15
1569408087389818,-41,-9,2,4,11,5,4,3
1569408087390598,8,9,-8,-6,-7,-3,5,9
1569408087390598,3,-1,1,1,9,4,11,-15
1569408087411528,-20,3,-4,-4,-3,-5,-9,-9
1569408087411528,26,3,-3,-15,-38,-6,3,9
1569408087413506,-17,-16,-2,12,25,4,5,7
1569408087413506,0,-5,8,8,15,3,15,6
1569408087425492,84,36,-8,-12,-25,-10,-18,-8
1569408087425492,0,1,-1,4,20,0,-8,16
1569408087434439,15,6,-3,-2,-7,-1,3,9
1569408087434439,14,2,-5,-6,-10,-2,1,-9
1569408087449435,-23,-8,-1,-1,1,-2,-14,-1
1569408087449435,27,7,-6,-15,-10,0,6,22
1569408087451394,-38,-15,-2,-5,-1,2,-5,-6
1569408087451394,-5,14,-6,-3,3,-3,5,-12
1569408087472355,-9,-15,-3,-9,-23,-3,-11,-7
1569408087472355,5,6,8,11,23,1,-6,14
1569408087473335,-53,-17,-2,3,4,5,-1,3
1569408087473335,54,27,5,3,-6,-6,-5,-7
1569408087485302,7,23,19,15,3,3,-14,-8
1569408087485302,-17,-5,-7,-1,-11,-1,9,12
1569408087494287,-14,-7,0,1,12,0,5,12
1569408087494287,2,-7,-6,1,16,3,7,-16
1569408087509250,1,-9,-7,-6,-11,-1,-8,3
1569408087509250,1,8,11,3,-10,-2,1,12
1569408087511234,9,3,-7,-6,-6,-1,6,4
1569408087511234,-11,-8,-9,-13,-14,0,15,-14
1569408087532186,-11,-6,6,12,18,-3,-16,3
1569408087532186,-1,2,0,-4,-10,-4,-6,7
1569408087533173,39,12,3,5,6,0,1,7
1569408087533173,-41,-27,-1,-1,-5,2,0,-15
1569408087545143,8,5,-8,-8,2,-2,-13,11
1569408087545143,-1,-2,-3,-5,-12,-3,6,1
1569408087554119,-3,-13,-8,3,4,2,4,9
1569408087554119,-9,8,6,1,-9,0,10,-19
1569408087569142,-11,1,5,0,14,2,-9,8
1569408087569142,5,-8,7,26,20,4,-7,5
1569408087571111,-7,-7,-10,-16,-19,-7,-4,-2
1569408087571111,1,-1,-8,-4,3,1,10,-25
1569408087592045,-3,15,11,9,6,1,-4,10
1569408087592045,1,-11,-9,-11,-5,-1,-8,-4
1569408087593015,12,-11,2,5,1,-2,-2,12
1569408087593015,0,7,4,5,8,-1,4,-21
1569408087605998,3,-7,-5,-4,-13,-2,-11,13
1569408087605998,42,33,2,-2,2,0,14,12
1569408087614958,-8,-12,-5,-9,-25,-4,-6,4
1569408087614958,20,11,3,10,23,2,-5,-13
1569408087629925,-13,-4,8,7,7,4,-5,25
1569408087629925,-39,-29,-3,-1,2,-2,-8,-16
1569408087630915,-4,-5,-10,-8,-7,-1,2,5
1569408087630915,10,9,7,-3,-6,1,5,-25
1569408087651864,-5,-9,-2,-3,0,2,-9,14
1569408087651864,-9,-3,-1,2,5,1,5,-4
1569408087653886,18,12,1,0,3,-1,5,5
1569408087653886,-27,-14,-2,-3,-6,-2,-8,-31
1569408087665850,1,15,1,4,6,2,1,-1
1569408087665850,3,-3,-3,-3,-6,-2,-4,5
1569408087674795,-9,2,7,10,15,2,-1,3
1569408087674795,28,11,5,5,2,2,3,-8
1569408087689990,-50,-30,-5,-1,-2,0,-18,-7
1569408087689990,20,-7,-7,-6,-8,-3,5,4
1569408087690753,6,13,1,0,-3,0,3,9
1569408087690753,-15,-21,-4,-3,-4,-1,1,-19
1569408087711697,9,-6,-1,1,1,-5,-14,7
1569408087711697,-5,4,2,-3,3,4,4,-5
1569408087713698,-11,-9,-2,0,-2,-1,5,11
1569408087713698,0,-2,-2,0,0,-1,-18,-29
1569408087725671,16,12,-2,-4,-3,-5,-12,8
1569408087725671,11,16,3,2,2,-2,-12,-15
1569408087734636,-10,-11,-1,0,0,2,-2,9
1569408087734636,-4,4,-3,-6,-5,0,-1,-24
1569408087749605,26,0,-2,-1,-8,-1,0,12
1569408087749605,-7,17,8,8,5,0,6,-4
1569408087750593,4,-22,-3,-2,-3,1,-4,22
1569408087750593,-8,4,-1,0,-1,-2,-9,-29
1569408087771537,0,6,-1,-3,2,-1,-5,22
1569408087771537,0,-29,-7,-2,-4,-1,11,4
1569408087773532,-1,15,2,-3,-3,-2,2,16
1569408087773532,-10,-13,-3,-2,-3,-1,-7,-16
1569408087785499,-4,7,5,6,4,2,-16,1
1569408087785499,4,4,-3,-5,-7,-2,7,18
1569408087794475,-3,5,3,0,1,-1,7,18
1569408087794475,-2,-4,-1,-1,-1,-1,-19,-17
1569408087808450,-8,2,-3,-6,0,2,-2,23
1569408087808450,-8,-6,-4,-2,1,2,-13,8
1569408087815429,2,5,1,-1,0,-1,-32,13
1569408087815429,-2,8,-1,-5,-5,-5,-21,18
1569408087831387,-9,-12,-2,-1,-3,-8,-3,15
1569408087831387,11,-1,4,6,6,-4,0,7
1569408087833371,2,-3,-7,-5,-6,-6,25,9
1569408087833371,-2,3,4,4,1,2,17,-13
1569408087845349,4,5,-11,-6,0,4,42,37
1569408087845349,-13,-11,17,4,2,6,18,-20
1569408087854319,32,6,-7,-3,-4,-2,11,22
1569408087854319,-10,2,3,0,-2,-2,-15,-17
1569408087868279,-4,-14,-1,-1,-2,-1,12,25
1569408087868279,0,14,-4,-2,1,-1,2,1
1569408087875268,12,6,4,2,1,-3,-13,17
1569408087875268,4,-4,-1,-4,-2,2,-18,-17
1569408087892249,3,-4,-3,1,1,-1,1,22
1569408087892249,1,-4,-4,-2,-2,-2,-3,7
1569408087893213,-18,2,2,5,4,3,-32,-7
1569408087893213,12,3,-5,-2,-1,1,-6,16
1569408087905210,-17,-9,3,6,3,-3,17,-2
1569408087905210,-8,-1,-3,1,1,0,5,6
1569408087914186,2,0,1,-1,-1,3,20,4
1569408087914186,-3,5,1,4,-1,-7,-7,-4
1569408087929139,26,3,0,0,-1,1,21,21
1569408087929139,-21,-2,-5,-3,-4,-2,9,-20
1569408087935134,-18,-6,-2,-2,-1,2,25,30
1569408087935134,-11,-2,0,-2,2,-1,-16,-10
1569408087952055,10,6,-2,-1,-4,-3,16,21
1569408087952055,2,-6,-4,-5,-4,-2,-2,-3
1569408087953062,-1,3,0,-1,0,0,-1,0
1569408087953062,6,4,0,-2,-2,-1,-13,-10
1569408087975004,-8,-2,1,-2,3,2,8,10
1569408087975004,-11,2,0,1,3,0,-3,-4
1569408087975991,12,-9,-3,-5,-5,2,2,11
1569408087975991,-17,-10,-2,1,0,-9,-13,-8
1569408087988956,3,2,-3,-9,-6,-4,-4,-6
1569408087988956,-4,2,0,2,0,-3,10,-10
1569408087995937,5,2,0,-1,-2,-2,3,-6
1569408087995937,-13,-1,0,0,2,1,-2,-10
1569408088012218,6,8,7,3,1,0,3,13
1569408088012218,10,-1,1,-1,-4,-2,-4,-6
1569408088013890,-15,-5,-4,2,-1,-5,-9,-6
1569408088013890,-30,-12,-4,-4,-3,1,-3,-13
1569408088034867,-14,-5,-1,4,2,3,12,5
1569408088034867,26,6,-1,-4,-4,-3,-3,-6
1569408088035830,19,17,4,1,0,3,-1,21
1569408088035830,-1,-9,-8,-10,-2,7,-12,-19
1569408088048825,4,1,1,4,-1,-2,9,33
1569408088048825,7,11,3,7,4,2,-4,13
1569408088055808,-2,-11,-2,-2,-4,-6,-4,-5
1569408088055808,7,10,4,0,-3,-5,-9,-18
1569408088071736,-4,-3,-1,1,4,7,16,17
1569408088071736,24,9,-1,-3,-4,16,0,15
1569408088073730,-20,-11,-3,-3,1,-10,-10,-51
1569408088073730,3,-9,-6,0,-3,0,-6,14
1569408088094673,7,19,10,9,2,-4,3,8
1569408088094673,-15,-21,-5,-11,-7,-3,-1,-5
1569408088095671,4,8,0,5,5,8,1,-1
1569408088095671,-6,-2,-1,1,-3,-5,-13,-9
1569408088107647,7,1,-4,-7,-2,0,7,27
1569408088107647,1,-3,-1,1,1,-4,0,13
1569408088116624,7,7,4,-2,-3,-4,-3,0
1569408088116624,16,-6,-7,-2,-1,-3,-2,16
1569408088131575,-14,-8,-8,-8,-5,-2,4,41
1569408088131575,2,8,-3,-5,-5,-9,-12,-20
1569408088133569,-7,-5,3,3,-1,-1,3,34
1569408088133569,-14,9,3,3,7,3,-3,28
1569408088154514,21,-15,-8,-10,-6,2,3,-3
1569408088154514,-9,2,3,18,7,3,-3,6
1569408088155520,27,19,1,-3,-3,3,-1,-100
1569408088155520,-32,2,7,3,2,0,-7,-75
1569408088168478,19,1,-1,1,1,-2,-6,-21
1569408088168478,-24,-13,-7,-12,-3,-3,6,-1
1569408088177463,-9,-4,2,6,1,-3,-6,15
1569408088177463,10,7,8,11,-11,28,2,-36
1569408088191494,-23,-9,-13,-14,5,-40,-9,-16
1569408088191494,5,-3,-4,-7,-6,-8,5,20
1569408088193410,-26,-14,-8,-7,5,3,7,28
1569408088193410,35,7,4,1,4,3,-5,18
1569408088214374,-9,4,5,9,0,8,-3,27
1569408088214374,-13,-13,0,-1,0,11,10,26
1569408088216348,10,5,-2,-2,-4,-9,2,9
1569408088216348,-3,-5,1,-1,-1,-9,-8,-16
1569408088228346,0,-3,0,1,-3,15,2,26
1569408088228346,10,7,3,1,6,-7,-2,2
1569408088237292,6,2,-3,-4,-6,1,0,5
1569408088237292,-6,-2,0,1,3,-6,-12,-28
1569408088251283,-18,-5,1,1,-2,-1,-12,-7
1569408088251283,15,8,1,1,-3,3,2,0
1569408088258264,-8,-4,-3,1,3,0,-6,12
1569408088258264,-4,1,-2,-1,0,-3,3,17
1569408088274237,2,1,-4,-5,-8,-8,9,66
1569408088274237,-11,-7,-1,1,1,2,-6,48
1569408088280212,-4,-9,1,1,-1,-1,4,-126
1569408088280212,23,5,-1,-1,1,-13,69,-74
1569408088289157,25,-1,1,1,-2,-7,117,-128
1569408088289157,8,2,-3,-4,-3,-11,127,-57
1569408088297132,9,5,3,2,3,-13,21,92
1569408088297132,-26,-5,-3,-7,-3,-7,-101,127
1569408088312092,-32,1,3,2,0,0,-128,127
1569408088312092,-33,0,0,-1,1,0,-128,53
1569408088314099,-3,10,3,0,-2,0,-108,41
1569408088314099,-1,22,1,0,1,-1,72,-64
1569408088334033,19,21,0,0,0,11,111,-6
1569408088334033,19,15,-1,-1,2,7,127,-60
1569408088336028,1,-16,-6,-1,-4,5,89,-11
1569408088336028,6,-36,-6,-2,0,3,22,76
1569408088348006,-5,-35,-3,0,0,5,6,17
1569408088348006,-21,-38,-5,1,0,-4,-18,-59
1569408088356972,29,-11,-2,-3,-2,3,4,14
1569408088356972,13,3,-1,-2,-2,0,-9,-4
1569408088371932,-6,-3,0,0,-1,-1,5,-27
1569408088371932,2,8,2,-1,-1,-2,-30,-20
1569408088373927,-19,-2,-1,-2,-2,1,-9,-29
1569408088373927,2,6,2,2,2,2,-18,8
1569408088394878,-1,7,1,-1,-1,0,-35,-75
1569408088394878,2,7,0,-1,0,-1,-36,-53
1569408088395869,-8,6,0,-1,-3,2,2,-59
1569408088395869,16,7,2,1,1,1,-7,11
1569408088407837,-21,-1,-1,1,0,1,-15,7
1569408088407837,13,2,-3,-1,-3,-4,-9,-4
1569408088416813,-9,1,-1,-1,0,-1,13,-24
1569408088416813,-10,0,0,1,-2,-2,-10,-17
1569408088431806,27,4,-1,0,-2,1,-11,94
1569408088431806,2,5,3,0,1,1,-11,-19
1569408088433767,1,3,-2,-2,-2,-3,-4,-55
1569408088433767,-2,-4,-2,0,-1,-3,-5,-88
1569408088454711,1,-2,0,0,1,1,-3,-30
1569408088454711,2,1,-1,-3,-4,-3,8,15
1569408088455709,-4,-3,-2,-2,-1,2,3,34
1569408088455709,2,-5,-3,-1,0,1,2,6
1569408088467714,-9,-3,-1,0,0,-2,8,1
1569408088467714,-6,-3,-1,-1,-1,1,4,28
1569408088476652,7,0,1,2,3,2,2,31
1569408088476652,-5,-4,-2,-2,-2,0,7,1
1569408088491612,-3,0,-1,-1,-1,0,-1,5
1569408088491612,5,0,0,-1,-2,1,2,14
1569408088493607,-3,-3,-2,0,0,-2,-1,-4
1569408088493607,5,1,2,0,1,3,9,4
1569408088514587,3,-1,0,0,0,1,-3,0
1569408088514587,7,4,0,-3,1,-1,1,3
1569408088515548,-18,-2,-1,-1,-1,-3,0,-21
1569408088515548,7,1,-2,-1,-1,-2,-2,-14
1569408088528725,-1,-2,0,-2,0,0,-4,-1
1569408088528725,3,-2,-1,0,-1,0,0,12
1569408088536919,-4,0,-2,-1,-1,2,2,-3
1569408088536919,1,-2,-2,-2,-1,-1,-11,1
1569408088552078,6,1,-1,1,-2,-2,0,-3
1569408088552078,2,-1,-1,-1,-2,-2,0,8
1569408088553787,1,-1,-2,-1,-1,-1,-2,-2
1569408088553787,-6,-3,-4,-4,-1,-2,-1,-6
1569408088575024,1,1,1,-1,0,0,1,-7
1569408088575024,-4,-4,-1,-1,0,1,-7,-6
1569408088576751,0,-2,-2,1,-1,0,2,-5
1569408088576751,-8,-1,1,1,-2,-1,0,-4
1569408088588738,2,1,0,-1,-2,1,2,-1
1569408088588738,-6,-2,-3,0,0,0,4,2
1569408088596792,-15,-2,-2,-3,-2,-1,3,-23
1569408088596792,1,-1,1,0,-2,-1,-2,-3
1569408088611926,-4,1,1,0,0,-2,-4,-1
1569408088611926,2,1,0,1,-1,-3,-4,1
1569408088613626,10,-3,-2,-1,-1,0,-2,11
1569408088613626,-8,-2,0,-1,-1,-2,-8,-7
1569408088634864,-7,-2,-2,-1,1,1,1,-6
1569408088634864,-4,-1,-1,1,1,0,12,-12
1569408088636739,19,3,0,-2,1,-1,-3,18
1569408088636739,-7,0,1,-1,0,-1,2,-5
1569408088648692,2,0,0,-1,-1,1,5,1
1569408088648692,6,-2,0,-1,-1,-1,-1,3
1569408088657614,-15,-1,1,-1,0,0,-6,-11
1569408088657614,-1,-3,-1,0,-1,-1,0,7
1569408088672566,1,-2,0,0,0,-1,3,-3
1569408088672566,-2,0,0,0,-1,0,-4,5
1569408088673467,12,-1,0,0,1,1,7,8
1569408088673467,1,0,-1,0,1,2,4,12
1569408088694705,-1,-2,-2,0,0,-3,3,2
1569408088694705,2,1,1,2,-1,-2,-3,1
1569408088696406,-9,0,1,-1,-2,-2,-3,-15
1569408088696406,4,0,1,0,-1,1,4,16
1569408088708670,4,-1,-2,-3,0,-1,1,5
1569408088708670,-3,-1,0,0,0,0,-5,2
1569408088717349,-1,1,-1,0,0,1,4,-9
1569408088717349,-8,-2,-2,-1,-1,1,5,-1
1569408088731607,0,0,0,-1,-1,-1,-4,-5
1569408088731607,2,-1,-3,-2,-2,-1,-1,10
1569408088738586,-3,0,1,0,-1,-3,-5,-13
1569408088738586,-2,0,0,-1,-1,-1,-2,1
1569408088754544,-7,-3,-2,-1,-2,1,4,7
1569408088754544,-11,-1,0,-3,0,1,1,-19
1569408088756245,10,-2,-3,0,-1,0,-2,3
1569408088756245,0,-2,-2,-1,0,-1,-5,-1
1569408088768743,2,1,1,0,-1,-2,-1,-7
1569408088768743,0,1,0,1,0,0,0,7
1569408088777712,-8,-1,0,2,0,-2,-1,-12
1569408088777712,0,0,0,-2,0,0,0,-3
1569408088791494,-7,-3,-1,-4,-2,-4,-7,-9
1569408088791494,-3,0,-3,-1,0,0,0,1
1569408088793488,-2,1,0,-2,1,-2,-13,-9
1569408088793488,-7,-2,0,0,0,-1,1,12
1569408088814716,7,0,0,-1,1,2,2,10
1569408088814716,6,2,0,0,-1,-1,-3,8
1569408088816428,-8,-2,-1,1,-2,-1,1,-15
1569408088816428,1,0,-1,0,1,-1,-2,-3
1569408088837460,1,0,0,-2,-2,0,-2,-1
1569408088837460,-7,-5,-2,-1,1,0,1,-3
1569408088838428,-5,-4,-4,-2,-2,-1,-1,-15
1569408088838428,-2,1,0,1,-1,1,-1,-1
1569408088852480,4,1,-1,1,-1,-1,1,0
1569408088852480,-2,-1,1,0,1,-1,-2,-1
1569408088853391,-4,-2,-1,-2,0,1,1,-11
1569408088853391,-2,-1,-1,0,0,-2,-3,6
1569408088874632,6,0,-2,0,0,-2,-3,-5
1569408088874632,4,1,-2,-1,-1,-1,5,7
1569408088876331,-1,0,0,-1,0,0,-1,-1
1569408088876331,3,-1,0,-3,-2,0,2,8
1569408088897538,-1,-1,-1,0,1,1,1,-6
1569408088897538,3,-1,0,-2,-2,-1,3,6
1569408088898277,13,2,0,1,1,0,-4,23
1569408088898277,-4,1,1,1,0,-1,-4,0
1569408088912233,-6,-5,-2,-1,-2,-2,0,-5
1569408088912233,0,-1,-2,-1,-1,0,0,-1
1569408088913233,-5,-2,-1,0,-1,0,1,-12
1569408088913233,1,-2,-1,-2,-1,1,2,-2
1569408088934471,-1,-1,0,-1,-1,0,-2,3
1569408088934471,2,-1,0,0,0,-2,-3,1
1569408088936170,-8,0,-1,-1,-1,0,1,-10
1569408088936170,-6,-3,-2,0,-2,0,-1,5
1569408088957408,4,2,-1,-1,-1,-1,1,-5
1569408088957408,6,2,2,0,-1,-1,-4,5
1569408088959173,-4,-1,-1,-1,-1,-1,1,-8
1569408088959173,0,-2,-1,0,0,-1,0,-1
1569408088971371,-5,-2,-2,-1,-1,1,1,-4
1569408088971371,-6,-3,-3,-1,-2,-2,10,-2
1569408088978064,-8,-2,0,1,0,-2,-6,-26
1569408088978064,15,2,-2,-2,-2,0,2,21
1569408088994014,3,-2,-2,-1,0,-2,-3,-7
1569408088994014,0,1,1,-1,-1,-1,0,4
1569408088996012,-4,-2,0,0,-1,-1,2,-10
1569408088996012,0,-1,-2,-1,1,-2,0,2
1569408089016955,-4,0,1,1,1,0,-1,-6
1569408089016955,1,-1,0,0,1,1,-1,4
1569408089018949,1,-2,0,-1,-1,-1,0,-3
1569408089018949,2,1,0,-1,1,0,-3,2
1569408089030917,3,0,0,0,1,-1,0,6
1569408089030917,0,-2,-2,-2,-1,-1,-4,8
1569408089037908,2,0,1,-1,-2,-1,0,-5
1569408089037908,-4,-1,-1,-1,-2,-1,5,-3
1569408089054853,-3,-2,0,0,-1,-2,-3,2
1569408089054853,-9,-1,0,1,0,0,8,-13
1569408089055851,8,-1,-2,-2,-1,0,2,-2
1569408089055851,-15,-4,-2,-3,-3,-2,-4,-7
1569408089076802,4,0,0,-1,-1,0,1,5
1569408089076802,-3,-1,0,-1,-2,-1,-2,2
1569408089078789,4,-1,-1,0,-1,-1,-1,4
1569408089078789,-2,-1,-1,0,-1,-2,-3,-2
1569408089091758,-2,0,1,-1,-1,-1,0,-8
1569408089091758,-1,1,-2,-1,0,1,-4,6
1569408089097749,-8,-3,-1,0,-2,-1,-6,-25
1569408089097749,16,3,2,1,1,0,-1,33
1569408089114705,-2,0,1,1,-1,-1,-4,-6
1569408089114705,5,1,-1,1,-2,-1,0,6
1569408089115701,-4,-1,-2,-2,-2,-2,0,-3
1569408089115701,-12,0,0,0,1,1,0,-13
1569408089136634,10,0,-3,-2,-1,4,13,15
1569408089136634,5,2,1,0,-2,-3,-8,6
1569408089138628,1,-1,0,0,-1,1,1,-2
1569408089138628,0,0,-1,0,-1,-2,-2,1
1569408089151594,-5,0,-2,-2,-1,0,-2,-6
1569408089151594,-1,-1,0,-2,0,0,-3,2
1569408089158587,-2,-2,-1,-3,1,0,0,-4
1569408089158587,8,1,0,-2,0,1,4,4
1569408089174532,-7,-1,0,1,0,0,-4,-6
1569408089174532,-1,-2,-1,-2,0,-2,-1,5
1569408089175529,0,1,0,1,1,-2,-2,-11
1569408089175529,-1,-1,0,0,0,-1,0,0
1569408089197472,-5,-3,-3,-1,-1,-4,-5,-10
1569408089197472,-1,-1,-3,1,-1,0,-1,4
1569408089198473,0,-1,-1,-1,-1,0,0,-1
1569408089198473,-2,0,-1,0,-1,-1,-3,1
1569408089211435,-3,-1,3,-2,1,-1,1,-4
1569408089211435,6,2,-1,0,1,0,-5,11
1569408089218416,-3,0,-1,-1,0,0,0,-5
1569408089218416,0,1,0,1,0,0,0,10
1569408089234382,10,0,0,-1,0,-2,-5,6
1569408089234382,6,1,-1,0,0,0,2,5
1569408089236366,-1,-3,-1,-1,-1,1,-1,2
1569408089236366,-5,-1,1,0,-2,-4,-3,-12
1569408089257312,-1,0,0,0,2,-1,1,-9
1569408089257312,-1,0,-1,0,0,-4,-2,-10
1569408089258319,3,-1,-2,-1,-1,0,0,-3
1569408089258319,-3,-2,0,-1,-1,1,0,-1
1569408089270276,-4,-1,-2,0,-1,-1,-1,-5
1569408089270276,-8,-4,-1,-2,-2,-2,6,-7
1569408089279253,-2,-1,0,0,-1,0,-5,-10
1569408089279253,3,-3,-1,-1,-2,-1,0,8
1569408089294213,-4,1,0,1,-1,-1,-2,-2
1569408089294213,3,2,0,-1,1,0,-13,5
1569408089296210,5,0,-1,0,-1,-1,1,1
1569408089296210,0,0,-2,-1,-1,1,-1,5
1569408089317151,-4,-1,-1,0,-1,0,0,-6
1569408089317151,-7,-2,-2,-2,-2,-1,4,-5
1569408089318158,-1,0,-1,-1,-1,-3,-2,-8
1569408089318158,5,0,-1,0,0,-1,-2,2
1569408089331114,-1,0,0,-1,0,1,1,5
1569408089331114,-4,1,0,0,0,0,2,-7
1569408089338096,-2,0,-1,0,1,0,-1,-8
1569408089338096,-1,0,-2,-2,1,0,5,0
1569408089354053,0,0,-1,-2,-1,-2,-6,-6
1569408089354053,6,1,0,-2,-2,0,-1,5
1569408089356047,-5,-2,-2,-3,-1,-2,0,8
1569408089356047,-1,-1,1,0,0,-1,2,7
1569408089377003,-5,-3,-1,-2,-1,0,6,3
1569408089377003,2,1,1,1,0,2,1,-8
1569408089378988,-4,1,0,-1,0,-4,-9,-7
1569408089378988,-4,-1,0,0,-2,-3,-2,-12
1569408089390963,-2,1,0,-1,-1,0,4,0
1569408089390963,-13,-5,-4,-3,-4,0,-3,-2
1569408089397936,2,-1,-3,-1,-2,1,8,3
1569408089397936,1,0,0,-2,0,1,4,0
1569408089414902,0,0,0,1,-1,-2,3,4
1569408089414902,2,-1,0,-1,-1,-5,-27,-9
1569408089415886,0,0,1,0,0,0,4,-8
1569408089415886,-1,-1,-1,-1,-1,-1,0,15
1569408089436832,4,-2,-1,-1,0,2,3,-1
1569408089436832,10,2,0,0,2,2,13,13
1569408089438826,-4,-2,-1,0,-2,-2,-6,-2
1569408089438826,2,-1,0,-1,0,0,-2,9
1569408089450794,0,-2,-1,0,-2,0,-1,-2
1569408089450794,-4,-3,-2,-1,-1,-1,3,-5
1569408089459770,2,-1,0,0,0,0,-8,-5
1569408089459770,-2,0,-1,0,-2,0,3,0
1569408089474739,-12,-4,-1,-3,-3,-2,-3,-19
1569408089474739,-10,0,2,1,2,-2,-2,-8
1569408089475730,0,-1,-1,-1,0,1,3,-10
1569408089475730,1,-1,-3,-1,-1,-2,-4,-1
1569408089495683,1,-1,-2,-1,-2,-1,-3,-1
1569408089495683,1,0,0,0,-3,0,7,-5
1569408089496671,-2,-1,0,-1,1,0,1,1
1569408089496671,-1,-1,2,0,0,-4,-7,0
1569408089519622,4,-2,-2,0,-1,-2,-4,4
1569408089519622,-4,-3,-2,-2,0,1,5,-10
1569408089520608,7,4,1,0,2,-1,0,10
1569408089520608,-3,-1,-1,-4,-1,2,7,-1
1569408089533583,7,4,1,2,0,-2,-6,2
1569408089533583,0,0,0,2,-1,-1,-4,-6
1569408089534570,-4,-2,-1,-2,0,0,-1,-9
1569408089534570,-4,-1,-2,-2,-1,0,1,-3
1569408089556511,2,1,0,-2,-1,-1,3,7
1569408089556511,0,-2,-1,-2,-2,-1,4,-6
1569408089557508,5,0,0,0,-1,-2,-1,-1
1569408089557508,0,-1,1,0,-1,-1,-2,5
1569408089579455,5,-1,0,-2,1,0,-2,-2
1569408089579455,3,1,0,-1,0,-1,-8,-9
1569408089580449,-2,-1,-1,1,1,0,0,1
1569408089580449,-1,0,0,-1,0,-1,-1,-1
1569408089593412,-4,-1,-1,0,1,-2,0,-2
1569408089593412,1,-1,-3,-1,-1,-1,4,-2
1569408089594409,-2,-2,0,-1,-2,-1,1,-7
1569408089594409,-9,-3,-2,1,-1,1,8,-7
1569408089616352,3,0,-2,2,-2,1,-3,7
1569408089616352,-2,0,-1,-1,-2,-2,-2,-5
1569408089617359,-1,-1,0,-2,0,-1,-3,-6
1569408089617359,1,-3,-2,0,-2,1,0,1
1569408089639300,-2,-2,0,-2,-1,-1,0,-7
1569408089639300,-3,0,0,1,-1,-1,2,-6
1569408089640288,-3,-1,-1,-1,-1,0,3,5
1569408089640288,7,1,1,0,-1,0,-3,9
1569408089654253,-13,-1,0,0,0,-2,0,-6
1569408089654253,4,-3,-2,-1,1,-1,-4,-6
1569408089654253,1,-1,1,-1,-1,-1,-2,-1
1569408089654253,4,1,-1,-3,0,-3,-1,4
1569408089676191,-2,1,-1,1,-1,0,1,0
1569408089676191,-2,0,-1,-1,0,2,7,-3
1569408089677189,-4,0,1,0,-1,-2,-15,-3
1569408089677189,-2,-1,-1,-1,1,-1,-7,-4
1569408089699140,2,-2,-1,-1,0,-2,1,-4
1569408089699140,-6,-2,-2,-1,-2,-1,0,-7
1569408089700127,-7,-3,-1,-1,1,2,11,-14
1569408089700127,15,3,1,2,0,0,-8,16
1569408089714100,1,-1,0,0,1,-1,-8,3
1569408089714100,-2,0,-2,1,0,-1,9,-2
1569408089714100,-2,-2,-2,0,0,2,-4,-3
1569408089714100,-10,-3,-3,-2,-3,-3,-11,-4
1569408089736032,-11,-2,0,-3,-2,-2,1,-12
1569408089736032,5,2,0,0,-1,-1,-6,-2
1569408089737030,11,1,0,-1,0,2,8,19
1569408089737030,-2,-1,0,0,0,0,5,-2
1569408089759333,3,2,0,0,0,-1,-8,3
1569408089759333,-3,-3,-1,-2,-1,-1,0,-4
1569408089760297,1,1,0,1,-1,-1,-5,-1
1569408089760297,6,2,0,0,-1,0,4,-1
1569408089773271,-7,-1,1,0,-2,1,12,11
1569408089773271,4,0,0,-1,1,1,-1,-3
1569408089774260,-2,-1,0,1,-1,-1,-4,-6
1569408089774260,6,1,-1,0,-1,-1,0,14
1569408089796220,0,-2,-2,0,0,2,2,1
1569408089796220,0,-1,-1,1,-1,0,-1,-6
1569408089797201,-1,-2,0,-1,-3,-2,-2,9
1569408089797201,-10,0,0,0,1,-2,-1,-4
1569408089819140,14,-1,0,-2,-1,-1,-1,14
1569408089819140,-5,-3,1,-1,-1,-3,-3,0
1569408089820137,-1,-2,-2,-2,0,-3,-4,1
1569408089820137,-4,-2,-1,-2,1,0,0,-6
1569408089834114,4,0,0,0,0,0,0,5
1569408089834114,3,0,0,0,-1,0,-3,-6
1569408089834114,-2,-1,0,-1,0,0,1,3
1569408089834114,-12,-2,-2,0,-2,-1,2,-16
1569408089856052,15,2,0,0,0,-3,-16,8
1569408089856052,-4,-2,-1,-1,-1,0,-1,-8
1569408089857040,2,0,0,1,-2,-2,2,14
1569408089857040,4,0,1,-1,1,2,2,-2
1569408089878992,-7,-2,0,-1,0,-1,2,-3
1569408089878992,2,1,1,-2,-2,1,1,-1
1569408089885961,2,0,-1,1,1,-1,-5,0
1569408089885961,0,-1,0,0,-3,1,0,-3
1569408089893949,-3,-1,-2,-1,-1,-1,2,-9
1569408089893949,7,2,2,-1,1,-1,-9,-3
1569408089894940,2,0,0,0,-1,2,4,16
1569408089894940,6,2,0,1,1,2,5,4
1569408089915881,-1,-1,-1,0,0,-2,-10,2
1569408089915881,-3,-2,-3,-3,0,-1,0,-11
1569408089916878,-2,-1,-2,-1,0,0,-2,-3
1569408089916878,-4,-1,-1,-1,-1,-1,-2,-6
1569408089946799,-1,-2,-1,1,-1,2,3,4
1569408089946799,1,-1,-2,-1,0,0,3,4
1569408089947795,1,-2,-1,-2,-1,-1,-5,-1
1569408089947795,-4,-1,-1,-3,-3,1,2,-1
1569408089953780,-2,1,-1,0,-1,0,5,-3
1569408089953780,0,-1,-1,1,-2,-1,1,-3
1569408089954786,-3,0,0,-1,-2,1,0,0
1569408089954786,-1,-3,0,1,0,-3,-1,-2
1569408089976732,-3,-1,-2,-3,-2,-1,0,4
1569408089976732,-4,-2,0,-1,0,0,-1,-11
1569408089976732,1,1,0,1,1,2,6,-6
1569408089976732,1,-1,-1,0,1,-3,-2,11
1569408089998659,2,0,-1,1,-2,1,4,9
1569408089998659,-3,-1,0,-2,1,0,-1,-4
1569408089999657,-3,-1,0,-1,0,0,1,0
1569408089999657,-3,0,-3,-2,-1,0,-2,-4
1569408090013620,-3,-1,1,-1,0,-2,0,-3
1569408090013620,2,-1,-1,-1,-2,0,0,-8
1569408090014621,-4,0,0,0,-1,-1,-2,-5
1569408090014621,-1,-3,-2,-1,-2,-1,-3,-9
1569408090036559,4,0,-1,-2,-1,1,2,12
1569408090036559,0,-1,-1,-2,1,-2,-4,-8
1569408090036559,-6,0,0,-1,-2,-3,-4,0
1569408090036559,-1,0,-1,1,-1,-1,-2,-2
1569408090058528,-1,-1,-2,-1,-1,0,2,5
1569408090058528,8,3,3,2,-1,-3,-13,-1
1569408090059499,-7,-2,0,-1,-1,0,0,1
1569408090059499,0,-2,-1,-1,-1,-2,-3,-4
1569408090073460,-3,0,-2,0,-1,1,3,-3
1569408090073460,-11,-3,-2,-1,0,1,8,-14
1569408090074463,6,0,-2,0,1,0,-4,4
1569408090074463,-6,-1,-1,-1,-3,-1,-1,8
1569408090096399,-1,-3,-2,0,0,1,2,4
1569408090096399,-1,1,2,0,-1,-1,0,-8
1569408090097396,4,0,-1,0,0,-1,-1,10
1569408090097396,-2,-1,1,-2,0,2,1,0
1569408090118360,1,-2,0,-1,-1,-2,1,2
1569408090118360,-2,-1,-1,-1,0,1,2,7
1569408090119338,2,2,-1,-2,-2,-3,-9,-3
1569408090119338,13,4,0,0,0,0,3,6
1569408090133299,-4,-2,-1,-3,0,-1,5,0
1569408090133299,-1,-3,-2,0,-2,0,-3,-7
1569408090134297,-1,-1,-1,0,-2,0,3,2
1569408090134297,-5,-2,0,0,-1,-2,-4,-12
1569408090156238,0,1,-1,-2,-2,-1,1,8
1569408090156238,1,-1,0,0,-1,-2,3,-2
1569408090157236,-1,-1,-2,0,0,-1,-2,2
1569408090157236,-6,-2,-1,-1,0,-1,-3,-8
1569408090178180,3,1,1,-1,1,0,-4,2
1569408090178180,0,0,-1,-2,0,0,0,-3
1569408090179182,-2,-4,-1,-1,-1,-1,7,10
1569408090179182,2,0,0,-1,-1,-2,-1,-2
1569408090194153,-4,0,-1,0,-1,-3,-11,0
1569408090194153,3,0,-1,-1,0,-1,1,3
1569408090194153,-5,-1,0,0,0,-1,-2,-7
1569408090194153,4,0,-1,-1,0,0,7,11
1569408090216079,3,1,-1,-1,-1,2,2,3
1569408090216079,-5,-3,2,1,-2,-3,-3,-15
1569408090224057,-2,0,0,-2,-2,1,0,4
1569408090224057,2,-1,0,-1,0,-1,2,5
1569408090239017,-3,0,-1,0,-1,-2,-4,4
1569408090239017,-4,-1,-1,-2,0,1,-2,-15
1569408090239017,5,1,0,0,-1,-1,2,3
1569408090239017,-3,-2,0,1,-2,-1,-5,-11
1569408090253978,3,2,0,-1,1,2,5,1
1569408090253978,0,0,-2,0,-1,-1,-1,-5
1569408090253978,0,-2,-2,-2,-1,1,-2,4
1569408090253978,1,-2,-1,-2,-2,-1,-1,-6
1569408090275959,-2,-2,-2,-1,-3,-1,-1,-2
1569408090275959,-11,-3,-3,-1,-1,-1,1,-18
1569408090276943,5,0,1,0,0,-1,-1,3
1569408090276943,1,0,-2,-1,0,2,0,3
1569408090298867,-1,-2,0,-1,-1,0,0,2
1569408090298867,-1,-1,-1,0,0,-2,-3,-6
1569408090299855,-3,-2,1,-1,-1,-1,1,5
1569408090299855,-3,-1,-1,-2,2,0,0,-2
1569408090313851,1,-2,0,-2,1,-1,1,-5
1569408090313851,-1,-2,-2,-2,-2,-1,-3,-4
1569408090314848,-1,0,-2,-1,-2,0,-1,3
1569408090314848,4,1,1,-1,0,-1,-1,1
1569408090336768,0,-1,0,-2,-2,-1,0,1
1569408090336768,6,1,1,-1,0,-1,-14,7
1569408090336768,0,-1,-3,-2,0,0,2,13
1569408090336768,1,-1,-1,1,-2,-1,1,1
1569408090358696,1,1,-2,-1,-2,-3,0,5
1569408090358696,-1,-1,1,0,-1,0,0,-5
1569408090359695,-6,0,0,0,-1,0,-2,-8
1569408090359695,11,1,-1,0,-1,1,1,10
1569408090373657,-5,-1,-1,-1,-2,0,2,-9
1569408090373657,9,0,-1,-1,-1,1,2,7
1569408090374656,4,0,0,-3,0,-1,1,19
1569408090374656,-6,-1,2,-1,-3,0,-1,-10
1569408090396601,-1,-2,1,0,-1,1,-2,-7
1569408090396601,0,-1,-1,0,1,0,2,-1
1569408090396601,0,-1,-1,0,0,-1,-3,-6
1569408090396601,-2,0,-2,-1,0,-1,0,-1
1569408090418537,-1,0,-1,-2,0,-1,-7,-1
1569408090418537,-6,-3,-3,-1,0,0,2,-4
1569408090419536,-2,1,1,1,0,-1,-1,0
1569408090419536,-2,0,-3,-1,-1,-2,-2,0
1569408090433499,-7,-1,-1,0,0,0,10,-10
1569408090433499,1,2,1,0,0,-2,-4,-7
1569408090434519,-1,-1,0,0,-2,-1,-2,-1
1569408090434519,4,-2,-1,-2,-1,-1,-1,3
1569408090456466,0,-2,-1,-2,-3,1,1,-1
1569408090456466,-5,0,0,-1,0,-2,1,-9
1569408090457435,-2,1,1,1,1,0,2,13
1569408090457435,-2,0,1,0,0,-2,0,-4
1569408090478378,7,0,0,0,0,0,-1,-4
1569408090478378,-8,-5,-2,-3,-1,0,-1,0
1569408090479382,8,-3,-2,-1,-3,-3,-2,-3
1569408090479382,-2,0,-1,0,-2,1,0,0
1569408090493337,-2,-1,0,-1,0,-2,-2,0
1569408090493337,-3,-1,-1,0,-1,-2,-6,-7
1569408090501318,-1,-1,-2,-2,-1,1,0,5
1569408090501318,0,-2,0,0,-2,-2,0,-3
1569408090516275,0,1,-1,0,0,-2,-3,0
1569408090516275,-2,0,0,0,-2,-2,0,-4
1569408090517273,-4,0,0,-2,0,2,3,-3
1569408090517273,0,1,1,2,0,-1,-1,0
1569408090538217,-2,0,-1,-2,-1,0,1,-2
1569408090538217,-1,-1,0,0,0,2,1,4
1569408090539215,-1,1,0,-2,-1,-3,-2,-4
1569408090539215,-4,-2,-2,-2,-1,-1,0,3
1569408090553177,-4,-1,1,0,0,-2,-2,-11
1569408090553177,15,1,0,0,-2,0,0,8
1569408090561201,-7,-2,-2,-2,-1,0,0,1
1569408090561201,-13,-4,-1,-2,0,1,6,-3
1569408090576115,7,1,-1,0,1,-1,-4,3
1569408090576115,2,3,1,0,0,0,-7,0
1569408090577114,4,0,0,0,0,0,0,-1
1569408090577114,1,-2,-1,-1,0,0,5,1
1569408090599114,-5,-3,-3,-2,-1,-2,-2,-5
1569408090599114,-4,-2,-1,0,0,1,4,-2
1569408090599114,0,0,-1,1,0,-2,-3,-5
1569408090599114,-2,1,0,-2,-1,0,-5,-1
1569408090613018,4,0,-1,-1,-2,0,-1,-7
1569408090613018,-8,-1,-1,0,0,1,-2,-9
1569408090621005,0,0,1,-3,-1,-1,3,1
1569408090621005,4,0,1,-3,2,-1,-1,12
1569408090636244,-6,0,-1,0,0,-1,0,-9
1569408090636244,-1,-2,-1,-2,-2,0,3,-4
1569408090636955,7,2,-1,0,1,-2,-10,-3
1569408090636955,-7,0,0,0,1,1,-5,-8
1569408090658963,11,-1,-1,-1,0,0,1,9
1569408090658963,-1,0,-1,-1,0,-1,0,-5
1569408090659913,0,-2,-3,0,-3,0,2,-2
1569408090659913,-1,-1,-2,-1,0,-3,-4,-8
1569408090672857,-2,1,0,0,-2,0,0,-3
1569408090672857,-3,-3,0,0,-1,-1,-1,1
1569408090680836,-2,-1,-1,-2,2,0,3,3
1569408090680836,0,0,-1,-1,-2,-1,-2,-3
1569408090695849,-5,-1,0,-1,-1,0,1,-3
1569408090695849,1,1,1,0,1,-1,-2,-1
1569408090696794,-3,0,-1,-1,-1,-3,-2,-7
1569408090696794,2,0,-1,0,-1,-1,-1,7
1569408090718735,-2,-1,-2,0,-1,-1,-1,-6
1569408090718735,5,-2,-1,-1,0,0,0,6
1569408090719734,-4,-3,-2,0,0,0,0,-3
1569408090719734,-2,0,1,-1,-1,-2,-2,-3
1569408090732732,3,0,2,-1,1,0,-10,-3
1569408090732732,-3,-2,-2,-2,-2,-2,0,4
1569408090741685,-1,0,0,0,-1,0,-1,-1
1569408090741685,-1,-1,0,-1,1,1,-2,1
1569408090756645,-4,-2,-2,-3,0,0,1,-11
1569408090756645,-2,-1,2,1,-1,-3,-2,-3
1569408090756645,-2,-1,-1,-3,-1,0,-2,-2
1569408090756645,4,1,1,0,0,-2,5,7
1569408090778576,-12,-3,0,0,-1,-3,-7,-27
1569408090778576,3,1,-2,-1,0,0,4,10
1569408090779574,0,1,-1,0,0,1,1,2
1569408090779574,8,1,-1,-1,-1,0,-1,-4
1569408090793535,-4,-1,0,-2,-1,1,2,-5
1569408090793535,-4,0,0,-1,-1,0,1,8
1569408090801543,-3,1,-1,0,-1,1,4,-4
1569408090801543,23,6,0,2,2,-1,-4,19
1569408090816511,3,0,-2,1,0,-3,-1,1
1569408090816511,-2,-2,-2,-1,-2,0,-2,-4
1569408090817501,5,-1,-1,-1,-1,-2,-1,1
1569408090817501,-12,-2,0,0,-2,0,1,-2
1569408090838453,-1,0,-2,0,0,1,3,-5
1569408090838453,0,0,2,-1,2,-1,0,5
1569408090839412,0,-2,-2,-1,-2,0,-1,-1
1569408090839412,-3,-2,-1,-1,-1,-2,-1,1
1569408090862361,1,-1,-1,0,-1,-1,-1,-4
1569408090862361,3,-1,-1,0,0,-1,-1,-9
1569408090862361,-2,-1,-1,-1,0,-2,0,3
1569408090862361,-3,-2,-1,-1,-1,-1,1,1
1569408090876322,-2,1,0,-2,-2,0,-1,-5
1569408090876322,1,0,-1,1,1,-1,1,6
1569408090877312,-2,-1,-1,0,0,-1,-3,-3
1569408090877312,0,-2,-3,-3,-1,-1,-2,5
1569408090899265,-1,0,1,2,0,-1,2,-7
1569408090899265,-3,-2,0,-1,-1,-2,-3,-4
1569408090899265,2,-2,0,-1,-1,-1,1,7
1569408090899265,-4,-3,0,-1,-1,-1,-1,2
1569408090922220,-2,-3,-2,-1,-1,0,-1,-7
1569408090922220,-3,-1,-2,-1,1,1,-1,-1
1569408090922220,-1,0,1,-1,-1,-1,-2,-1
1569408090922220,-3,0,-1,-1,-1,1,0,1
1569408090936154,-4,0,1,0,1,0,-3,-11
1569408090936154,-1,-1,-1,0,-2,-2,-2,5
1569408090937151,-9,-3,-2,1,-2,1,13,-4
1569408090937151,-3,0,-2,0,-1,-1,-2,1
1569408090959093,-1,-2,0,0,0,-2,-3,-4
1569408090959093,-3,-1,-1,0,0,0,-2,-4
1569408090959093,9,3,1,0,0,0,-4,22
1569408090959093,-2,-1,0,-1,-1,0,0,0
1569408090982041,-1,-2,-2,-1,0,-1,-1,-8
1569408090982041,-1,-1,1,0,1,2,0,-4
1569408090983028,0,2,1,0,0,-3,-2,-4
1569408090983028,1,-2,0,0,0,-1,1,3
1569408090995995,-5,-1,-3,-1,-1,-1,-5,-15
1569408090995995,2,-1,0,-2,-3,-2,1,10
1569408090997017,4,-1,-1,-1,1,-1,-4,-12
1569408090997017,-5,0,-1,0,1,1,1,1
1569408091018942,-4,-1,0,-3,1,-1,-1,-4
1569408091018942,-9,-3,-2,0,-2,-1,9,-3
1569408091019930,2,-2,-2,-3,0,1,-3,1
1569408091019930,1,1,1,1,-2,-1,2,-1
1569408091042884,8,0,-3,-3,-3,0,1,12
1569408091042884,0,0,-1,0,-1,-1,0,6
1569408091042884,-3,-3,-1,-1,-2,-1,0,2
1569408091042884,-2,-1,0,1,1,-1,-3,-3
1569408091056852,1,0,0,0,0,2,8,0
1569408091056852,1,-1,0,-1,0,-2,-3,1
1569408091057829,-4,-1,0,1,1,0,-1,-10
1569408091057829,7,0,-3,0,-2,-1,1,12
1569408091078776,6,2,1,1,0,0,-1,-4
1569408091078776,1,0,-1,-2,0,1,-2,11
1569408091079772,-2,-2,1,0,0,1,-2,-5
1569408091079772,-4,-4,-2,-2,0,0,8,7
1569408091101749,3,-1,-1,0,0,-3,-3,-5
1569408091101749,2,0,0,1,0,0,0,1
