timestamp,emg1,emg2,emg3,emg4,emg5,emg6,emg7,emg8
1573324810075691,-2,-19,-6,-3,0,-2,1,-1
1573324810075691,0,-4,-8,-9,3,0,-2,0
1573324810089976,28,0,0,2,6,0,-2,3
1573324810089976,-53,-28,-19,-11,-24,-6,-2,0
1573324810092031,-11,13,4,3,5,3,1,-4
1573324810092031,-1,13,5,-4,1,-4,-1,2
1573324810113399,-10,6,13,5,6,2,0,0
1573324810113399,41,-8,-7,-6,-4,3,2,8
1573324810114375,-18,-2,-9,-4,-4,-4,-4,-8
1573324810114375,39,-4,-2,-6,-1,4,3,1
1573324810134871,-83,-3,5,1,-4,-4,-4,-10
1573324810134871,39,-16,-8,3,2,0,0,5
1573324810136821,1,4,4,0,-3,3,1,-2
1573324810136821,38,-8,-13,-11,-3,-5,-2,-2
1573324810150568,-9,26,3,2,-10,-1,-1,-5
1573324810150568,-4,-24,14,11,-2,-1,1,12
1573324810152251,20,-5,7,4,31,2,0,-4
1573324810152251,52,2,-8,-9,3,-4,-3,5
1573324810173089,-86,-7,-10,-6,0,0,2,2
1573324810173089,23,11,-3,3,-21,0,4,3
1573324810173909,26,4,1,-5,-22,-3,-8,-13
1573324810173909,-22,4,7,7,27,5,1,1
1573324810186785,15,-13,-3,0,15,-2,0,1
1573324810186785,3,-16,-7,-2,-1,-3,-3,-2
1573324810195382,-25,-11,-8,-6,5,-1,0,4
1573324810195382,-1,26,8,4,-18,3,8,23
1573324810210623,-26,-42,-15,-9,-4,-7,-11,-50
1573324810210623,-13,37,9,3,-19,-2,-2,0
1573324810212184,56,23,11,4,11,1,0,8
1573324810212184,-58,-12,-4,-4,-6,-5,-7,-25
1573324810233050,127,19,10,1,-5,2,4,23
1573324810233050,-99,20,-3,-1,-17,-2,1,-5
1573324810234024,-12,-26,-12,0,-4,1,0,-8
1573324810234024,9,36,2,-2,4,0,0,10
1573324810246710,38,-64,-10,-22,-82,-9,-5,-3
1573324810246710,51,23,0,6,61,1,-1,-2
1573324810255156,-52,6,12,16,28,4,5,13
1573324810255156,-2,-21,-12,-13,-9,-4,-2,-11
1573324810269987,7,38,3,8,-7,1,1,2
1573324810269987,-15,-38,5,-7,-8,-3,-4,1
1573324810271414,-16,2,0,-20,-42,0,1,7
1573324810271414,39,-5,-12,8,24,-5,-9,-5
1573324810292368,17,18,-6,-3,-25,-4,-7,-28
1573324810292368,61,-9,11,8,31,3,0,8
1573324810294357,-5,25,3,-4,6,0,-2,-8
1573324810294357,-37,-4,-8,-6,-25,-1,2,1
1573324810306730,-9,-6,-3,1,22,0,7,22
1573324810306730,55,9,-3,5,26,-1,-4,-5
1573324810314815,-24,-68,-15,-17,-42,-20,-15,-15
1573324810314815,9,38,24,15,-13,13,17,17
1573324810337509,-15,-12,2,-12,-25,3,3,10
1573324810337509,-5,7,-9,-17,-1,2,0,-7
1573324810339425,-2,-28,2,21,22,-2,2,1
1573324810339425,-34,-26,-3,-4,-10,-4,-6,-6
1573324810353292,3,0,10,10,30,1,1,-4
1573324810353292,-22,8,-3,-4,-31,-1,-1,-8
1573324810354268,61,59,-2,3,-15,0,3,15
1573324810354268,-26,-41,3,-6,9,-7,-8,-4
1573324810366190,-3,-4,-10,2,9,3,0,-1
1573324810366190,6,0,-13,-7,11,0,2,8
1573324810375526,-20,14,8,10,-18,-2,-3,-15
1573324810375526,-31,-26,-2,0,10,3,0,4
1573324810390722,23,20,-4,5,38,3,-6,2
1573324810390722,-34,-8,10,2,1,1,3,12
1573324810392006,31,25,-3,-1,-9,1,-5,-9
1573324810392006,-16,-42,-11,-8,-19,-2,2,-1
1573324810412655,-93,18,-5,-10,-12,-5,-5,-9
1573324810412655,40,3,-6,0,-8,-2,0,19
1573324810414603,8,46,16,18,33,6,4,6
1573324810414603,27,-12,-5,-2,-6,-3,-2,-16
1573324810426562,-17,1,-3,-8,13,2,5,23
1573324810426562,-1,19,3,10,-8,-2,-3,-11
1573324810435460,44,3,-8,-24,-10,-1,1,-7
1573324810435460,-21,4,-7,-5,-2,-5,-7,-25
1573324810450185,34,-4,0,-2,2,0,-1,15
1573324810450185,-38,13,7,-5,-33,-3,1,-6
1573324810451962,-14,-25,13,20,39,11,3,18
1573324810451962,68,51,-10,-7,5,1,-2,-3
1573324810472845,-13,17,3,-2,6,1,2,-3
1573324810472845,-12,-36,-6,-3,-8,-2,-4,-6
1573324810474809,1,-22,-3,-5,-7,0,4,1
1573324810474809,-19,25,1,-1,3,1,2,-26
1573324810486867,-21,7,-7,-8,7,2,-1,-9
1573324810486867,-5,-42,-5,-8,17,-9,-2,-7
1573324810495520,-47,-16,3,18,11,3,-3,12
1573324810495520,18,18,8,22,23,3,-3,7
1573324810510418,15,-15,-12,-17,-17,-3,-3,6
1573324810510418,-37,-2,4,25,16,5,-2,-7
1573324810511371,-8,-26,-19,-21,-4,-3,-5,-19
1573324810511371,-25,28,7,3,-7,-9,-13,0
1573324810533994,-56,-41,2,11,6,5,4,-7
1573324810533994,113,9,-7,-10,-11,-1,-2,-8
1573324810540795,-49,17,-1,-12,-7,-3,0,-14
1573324810540795,-18,-13,-7,-9,16,-1,4,13
1573324810546602,16,-7,11,42,4,-6,-4,0
1573324810546602,-24,6,7,1,-2,-2,3,-2
1573324810555388,13,-4,0,0,-1,3,2,-16
1573324810555388,19,-11,-10,-18,-12,0,1,-34
1573324810570026,58,-1,-9,-10,3,-8,-2,-25
1573324810570026,-33,31,24,2,13,-3,-4,-8
1573324810571631,21,-24,-11,-1,-12,-6,-7,37
1573324810571631,-27,-5,4,-3,-10,0,2,38
1573324810593077,40,11,-1,-2,17,0,0,18
1573324810593077,-31,-7,-14,-14,-25,1,6,13
1573324810594048,-7,8,-3,-16,-14,-6,-1,2
1573324810594048,12,-6,8,28,21,4,-2,10
1573324810606934,-38,3,9,9,10,4,3,-2
1573324810606934,18,8,-12,-2,14,-2,-6,-14
1573324810615355,-4,-13,0,4,0,0,4,-6
1573324810615355,11,0,-2,-12,-16,-1,4,-11
1573324810630778,-9,3,5,1,-9,-5,-1,-8
1573324810630778,-24,-8,1,3,5,3,-4,12
1573324810631661,56,39,1,-5,-10,-1,-2,-5
1573324810631661,-25,-8,-1,1,-4,-3,-1,-4
1573324810653170,-13,-39,3,-8,-3,-1,-1,3
1573324810653170,-5,6,8,4,0,7,8,13
1573324810654728,19,20,-3,0,1,-3,0,2
1573324810654728,15,4,4,0,3,2,2,9
1573324810666119,15,26,2,6,1,0,1,2
1573324810666119,-11,-23,-2,-1,-5,0,5,2
1573324810675529,-55,-34,-8,-1,-2,0,2,-4
1573324810675529,18,26,9,8,4,0,2,-2
1573324810689352,4,1,-4,-11,-7,-3,-2,3
1573324810689352,-6,-33,-1,5,-1,-3,2,-2
1573324810696095,2,28,3,6,4,0,1,-1
1573324810696095,-5,-14,-2,-14,2,-4,0,3
1573324810712687,2,6,-3,-4,-10,2,1,6
1573324810712687,55,28,2,4,6,-5,-3,-2
1573324810714639,-46,-34,-2,2,5,-5,3,11
1573324810714639,42,7,0,5,-2,6,1,-2
1573324810726352,-45,22,6,9,4,1,-1,-5
1573324810726352,-22,-23,-7,-4,-3,-1,-2,-10
1573324810736111,-14,-20,-5,-7,-11,1,-3,-1
1573324810736111,-28,43,-4,-3,-1,-2,-1,-1
1573324810749902,17,1,-2,-3,1,-2,-5,-16
1573324810749902,15,-14,-8,-3,-10,1,-5,-8
1573324810756607,-4,-2,4,-2,1,3,-1,3
1573324810756607,-34,-14,6,8,-1,-3,2,7
1573324810772445,11,-6,-4,-4,-9,-2,-1,4
1573324810772445,60,31,0,-6,2,-3,0,13
1573324810774661,-78,-50,-9,-8,-5,-3,-5,-26
1573324810774661,17,-10,-4,-2,-5,1,0,1
1573324810795374,24,31,7,5,7,-1,-2,-1
1573324810795374,25,-10,-6,-4,-3,1,0,5
1573324810797144,-23,-17,-5,1,1,1,0,1
1573324810797144,16,-6,-6,-10,-4,2,-1,7
1573324810809984,-18,6,3,12,1,-3,-4,-14
1573324810809984,7,31,-9,-4,-4,0,-1,2
1573324810816832,-14,19,-6,6,-1,-2,-2,-3
1573324810816832,46,-10,-6,-4,-4,2,-1,-8
1573324810832248,13,-14,-9,-11,-3,-2,-1,0
1573324810832248,-39,28,14,8,1,0,-1,-4
1573324810834196,26,-6,11,2,-7,-2,-2,-9
1573324810834196,-17,-6,9,4,0,-3,-2,-2
1573324810855846,-42,-19,-9,-15,-9,2,5,6
1573324810855846,18,-25,-7,3,-7,-1,-3,-3
1573324810856648,20,39,7,-5,-1,-1,0,7
1573324810856648,-19,-23,1,3,9,1,2,3
1573324810869645,-7,-2,2,-15,-6,0,-1,-1
1573324810869645,31,13,13,17,1,0,2,-2
1573324810876792,-28,-14,-7,-6,14,-6,-1,-5
1573324810876792,12,-5,1,10,-1,8,1,-1
1573324810893523,9,17,11,13,11,2,-2,4
1573324810893523,-66,-27,-3,-3,3,-3,-2,-17
1573324810895334,63,58,-4,-5,-10,-3,-1,6
1573324810895334,-32,-6,-11,-11,-11,-2,2,-6
1573324810915836,-3,6,3,1,1,-4,-4,9
1573324810915836,-6,-46,-7,-8,6,3,0,19
1573324810917343,-17,3,2,1,-8,0,0,12
1573324810917343,2,-5,-5,-9,-5,-6,-5,-7
1573324810929667,24,4,1,7,-7,1,2,-3
1573324810929667,-9,22,-4,-12,-5,-3,-5,-5
1573324810936520,4,-8,1,8,16,5,3,-4
1573324810936520,45,6,-4,-7,-3,-4,-2,-2
1573324810953046,-52,11,-4,2,8,-3,0,-12
1573324810953046,-21,-29,-8,-7,-13,-1,2,-5
1573324810954868,25,5,11,4,0,-3,-4,-2
1573324810954868,-1,-8,1,-2,6,-1,1,0
1573324810975366,22,22,2,7,-6,-3,-1,-2
1573324810975366,-9,-1,-7,-3,1,0,-5,1
1573324810976340,-33,4,1,-2,-1,2,-1,0
1573324810976340,41,1,-1,-2,-3,-2,-4,-6
1573324810990002,14,-34,-8,-21,1,-1,1,1
1573324810990002,-11,6,10,6,19,2,2,2
1573324810995865,20,-7,-1,12,0,1,1,1
1573324810995865,-22,17,1,1,-5,-1,-2,-2
1573324811012451,-17,-39,-10,-7,-4,1,-1,2
1573324811012451,31,18,7,3,-8,-1,1,-3
1573324811014405,-20,-8,-1,-5,-8,-2,-2,-4
1573324811014405,-32,-11,-4,0,9,0,-1,1
1573324811034901,-1,23,6,9,-3,1,0,-1
1573324811034901,8,-18,6,7,1,-1,-4,17
1573324811036850,63,18,-4,-3,-5,-1,1,0
1573324811036850,-25,-21,1,0,-11,-2,-1,1
1573324811048568,20,9,-4,-1,6,-2,-2,-1
1573324811048568,-12,11,-1,-2,-3,2,1,-11
1573324811058326,12,0,4,3,4,0,0,-2
1573324811058326,-72,-5,-5,-4,-6,-2,-2,0
1573324811072961,25,-7,-1,-1,-3,0,-2,-2
1573324811072961,-12,29,2,3,-4,-1,2,2
1573324811073937,2,-7,-4,-2,1,1,1,1
1573324811073937,6,10,3,-15,2,2,3,2
1573324811095409,-9,-26,3,16,4,2,1,0
1573324811095409,7,0,-4,0,1,-2,-2,-6
1573324811096385,15,17,-3,-3,-2,0,0,0
1573324811096385,13,-10,-1,-4,-3,-1,-1,0
1573324811109073,-32,-9,-7,-4,-2,0,2,1
1573324811109073,32,11,-3,-8,-1,-3,-3,0
1573324811117856,-34,-11,3,6,5,-1,-3,-5
1573324811117856,3,15,-2,2,-1,3,2,6
1573324811132711,59,3,4,-4,1,-2,-1,-1
1573324811132711,-52,-22,-3,-3,0,0,2,-1
1573324811134449,-13,16,3,3,3,-1,-5,-17
1573324811134449,-13,-18,-1,6,-1,-4,-2,0
1573324811155059,42,29,3,0,1,5,6,19
1573324811155059,7,11,-4,-4,-3,-1,0,0
1573324811157153,-7,-27,-7,-7,-3,-1,0,2
1573324811157153,0,6,8,6,2,1,2,4
1573324811168609,-24,-5,-2,-4,-4,-2,-2,-4
1573324811168609,18,2,-2,0,9,-1,0,3
1573324811177475,-2,6,-2,-2,-4,0,1,7
1573324811177475,3,-14,2,2,3,0,-1,-4
1573324811193029,27,10,-8,-7,-7,-3,-1,-5
1573324811193029,-27,-40,0,2,0,1,-1,-10
1573324811193985,38,19,11,0,1,1,0,13
1573324811193985,-9,4,-2,4,2,0,-4,4
1573324811215497,-28,-17,1,-2,-3,0,-2,-9
1573324811215497,25,36,0,-4,1,2,2,8
1573324811216432,-17,-9,-6,0,0,-2,1,7
1573324811216432,30,-60,0,-1,-2,-2,2,2
1573324811229121,-30,10,3,1,2,-3,-5,-20
1573324811229121,-10,-1,-5,-3,-3,0,0,-2
1573324811237905,-16,-6,-2,0,-6,0,0,1
1573324811237905,15,21,-1,3,-6,-1,-5,-17
1573324811252545,13,-5,-3,-2,-4,-2,1,6
1573324811252545,-64,-30,2,2,-1,2,0,-8
1573324811254497,16,21,2,1,0,-4,-4,-4
1573324811254497,-3,14,0,-3,-3,-1,1,4
1573324811275032,3,-17,2,2,5,-2,-2,2
1573324811275032,-4,26,0,0,-5,-3,-2,6
1573324811276990,5,-25,2,0,2,-1,2,-2
1573324811276990,25,36,0,-5,1,1,-2,-1
1573324811288702,-48,-35,2,-4,2,4,3,-3
1573324811288702,-19,-3,1,4,0,-1,2,7
1573324811297648,63,-9,-2,-1,-2,-2,-2,-12
1573324811297648,-8,1,4,5,0,-1,2,-3
1573324811313101,4,25,8,0,-1,0,4,7
1573324811313101,54,6,-2,-4,-2,-2,0,-1
1573324811314077,-103,-41,-9,-8,-3,0,-3,-10
1573324811314077,1,-16,-10,-3,-3,0,-3,2
1573324811335548,0,-1,-5,3,-2,-1,-4,2
1573324811335548,30,6,4,-6,3,-3,-6,-12
1573324811336525,-2,17,1,2,-4,-3,0,0
1573324811336525,-1,18,-1,1,1,-2,-2,0
1573324811349218,-6,-9,-3,4,4,-1,-2,0
1573324811349218,-26,-18,-3,-5,-4,-3,-3,-1
1573324811357998,45,18,-7,-10,0,2,1,2
1573324811357998,-39,-6,1,2,-2,0,0,-4
1573324811372637,29,12,4,4,-2,-1,-1,2
1573324811372637,-15,10,-6,-5,-1,0,3,-1
1573324811374589,7,-6,9,-1,3,2,-2,1
1573324811374589,6,11,-4,1,-1,-1,1,1
1573324811395142,7,-5,0,1,-2,-2,0,-1
1573324811395142,-7,4,-2,1,0,1,1,3
1573324811397094,22,0,-14,-2,0,-2,-3,-1
1573324811397094,13,15,5,7,0,0,-2,0
1573324811408807,8,35,-6,-3,-5,-2,-2,-2
1573324811408807,8,-55,1,-1,-3,0,-2,-3
1573324811417591,-15,-8,4,9,-4,-2,-2,-7
1573324811417591,14,9,-4,-12,0,-2,0,5
1573324811432230,-8,15,6,11,2,3,3,6
1573324811432230,17,-3,-9,-5,-6,-4,-6,-7
1573324811434183,-6,19,11,2,4,-1,0,-3
1573324811434183,-15,-20,3,-1,8,0,-2,-4
1573324811455665,12,13,-6,-3,6,0,-2,3
1573324811455665,-13,-31,-7,0,-3,-1,1,-1
1573324811456634,0,6,-6,-9,-5,1,3,5
1573324811456634,27,36,8,-1,0,-2,2,-1
1573324811469322,-16,-42,-8,-6,-1,-1,-3,-10
1573324811469322,5,17,3,-1,-4,0,-1,4
1573324811477784,-15,-4,-1,0,0,-2,0,-2
1573324811477784,12,-9,-4,-3,-2,0,-2,-6
1573324811492658,-7,-13,-3,7,0,-1,-3,-13
1573324811492658,-22,8,2,-1,-1,-1,0,-9
1573324811494456,-2,2,-2,-1,0,2,0,3
1573324811494456,6,-25,2,-1,0,-1,0,3
1573324811515290,-9,-2,1,-4,-3,-1,-1,-2
1573324811515290,-1,11,0,0,0,-1,1,1
1573324811516881,-33,-4,-4,1,0,-1,0,23
1573324811516881,35,5,-4,-3,-1,-2,-4,5
1573324811528535,6,1,0,-5,2,-3,-4,4
1573324811528535,-14,12,1,4,-1,1,0,3
1573324811538299,41,5,0,-2,2,0,1,4
1573324811538299,-99,-21,-5,-1,-3,-2,-1,-17
1573324811552945,21,-8,-4,-6,0,-5,-4,-2
1573324811552945,17,31,6,1,0,-1,-1,8
1573324811554201,-5,-11,-4,4,6,2,-1,-11
1573324811554201,-22,-40,-6,-5,-2,-1,-4,-9
1573324811575418,15,70,6,-4,3,2,-1,2
1573324811575418,25,-4,-1,3,2,0,-3,-7
1573324811576881,-3,17,2,-3,-3,1,-1,2
1573324811576881,1,5,-5,-1,-5,-4,-3,-13
1573324811588754,-41,-33,-3,0,-3,1,1,2
1573324811588754,24,16,0,-2,0,0,-2,2
1573324811598355,-18,-10,0,0,-1,-2,-1,-9
1573324811598355,22,12,1,2,-2,1,1,7
1573324811612022,-17,-3,2,0,-3,-1,0,-9
1573324811612022,-13,-10,-1,-1,2,2,3,11
1573324811620808,10,-22,-1,-2,-5,-2,1,-2
1573324811620808,0,17,-3,1,0,1,0,3
1573324811635447,-19,-10,10,1,2,1,0,2
1573324811635447,44,-9,-3,-1,0,-2,2,3
1573324811636695,-24,-8,0,0,2,-1,-1,-11
1573324811636695,-8,-24,-1,1,-4,0,4,2
1573324811649204,29,6,-8,-5,-3,-1,1,3
1573324811649204,-22,-6,5,1,4,1,-1,-1
1573324811657894,-8,-17,-5,-3,-5,-5,-3,-8
1573324811657894,-9,9,3,-1,2,-1,1,11
1573324811671552,24,-4,0,3,0,-1,0,-1
1573324811671552,-26,-5,0,-1,0,0,0,2
1573324811678455,11,14,-3,-3,-4,0,0,12
1573324811678455,8,-6,1,3,3,0,-2,-1
1573324811696076,6,2,0,-4,-7,0,5,7
1573324811696076,-41,-31,-6,-1,-1,-1,-3,-14
1573324811699926,12,6,6,4,8,3,-1,8
1573324811699926,-4,-7,-4,-2,4,-3,-2,-4
1573324811708863,9,21,1,-1,-2,-1,0,-4
1573324811708863,11,13,-8,-7,-9,-2,1,-4
1573324811717507,4,31,10,1,0,1,1,1
1573324811717507,-9,-34,-7,1,2,2,0,1
1573324811732185,-17,-24,-12,-7,-6,-2,-3,-11
1573324811732185,13,12,24,7,2,1,3,2
1573324811739250,-58,-7,-6,-5,-3,0,-1,-2
1573324811739250,102,8,-1,-3,-7,-6,-7,-15
1573324811755628,-6,-3,-5,-1,0,0,-2,-3
1573324811755628,-14,6,-3,-2,0,3,2,-3
1573324811756535,32,-20,-3,-3,1,-1,-6,-11
1573324811756535,-24,31,4,2,-2,2,2,6
1573324811778009,-56,-40,-7,-7,1,-1,-1,-7
1573324811778009,2,2,-10,-10,-3,-3,2,5
1573324811784181,7,21,4,12,5,2,3,5
1573324811784181,10,15,8,16,5,0,-3,4
1573324811792737,2,-18,4,6,3,0,-4,-9
1573324811792737,-6,22,1,-5,-1,3,2,5
1573324811798942,7,-8,-11,-4,-4,-4,-1,-4
1573324811798942,15,-12,6,-6,-4,-1,-2,-2
1573324811815272,-29,-11,-5,2,-2,-1,0,7
1573324811815272,41,19,-3,4,0,-1,-6,-12
1573324811817047,-11,-11,-1,-3,-4,-1,1,1
1573324811817047,-13,17,-10,-2,-1,-1,1,1
1573324811837764,21,1,-1,-6,-6,-2,-5,-1
1573324811837764,-6,-4,4,0,3,2,-1,2
1573324811839496,21,6,1,-5,-4,-1,-1,0
1573324811839496,-29,-20,-3,-3,-4,-1,-1,1
1573324811852434,3,4,0,-8,-2,0,4,10
1573324811852434,-23,4,5,21,2,1,-2,-8
1573324811859259,17,-10,-5,-10,-3,-3,-6,-8
1573324811859259,-36,15,13,7,4,3,2,3
1573324811875692,50,23,-10,-2,-4,0,1,9
1573324811875692,-31,-66,-4,-8,-2,-2,-1,-3
1573324811876739,0,13,8,7,-1,-6,-3,-1
1573324811876739,16,17,-11,-10,0,3,3,6
1573324811897545,-24,15,12,5,3,-1,-2,-6
1573324811897545,18,19,-11,-12,1,-2,-6,-1
1573324811899724,-5,0,-3,1,-7,1,2,3
1573324811899724,18,13,5,-2,2,-2,-3,0
1573324811912274,14,-22,-9,-2,-2,1,1,2
1573324811912274,-15,14,2,0,0,-2,-4,-9
1573324811919187,-2,-59,-6,-9,1,3,1,5
1573324811919187,-22,15,-2,5,-7,-2,-1,-10
1573324811935468,-8,5,2,2,0,-4,-1,-2
1573324811935468,-6,-11,-6,1,-6,-1,1,-2
1573324811937260,8,14,-2,-6,0,-2,-2,0
1573324811937260,-51,-21,-3,-1,0,1,4,1
1573324811957915,57,39,4,9,-3,-2,-2,4
1573324811957915,15,-20,-4,-8,-9,-4,-2,-1
1573324811959710,-17,0,2,5,2,5,2,2
1573324811959710,9,-12,-8,-5,-2,0,0,-3
1573324811971612,-14,13,1,-5,5,1,-6,-2
1573324811971612,30,9,0,4,4,-2,0,5
1573324811980508,-38,-18,-9,-4,-5,-2,-2,-13
1573324811980508,12,-6,4,-5,-2,-1,-4,1
1573324812003084,-7,-6,-4,-1,2,0,-1,-3
1573324812003084,9,2,-4,-1,2,0,3,4
1573324812004045,-11,-21,-1,-7,2,-2,-1,2
1573324812004045,8,5,16,14,5,0,-1,1
1573324812017979,-1,36,2,-2,2,3,7,-2
1573324812017979,1,-22,-7,-4,1,-1,-9,-8
1573324812019545,-7,11,-3,0,-2,1,2,4
1573324812019545,26,7,-2,-4,-3,-3,-2,-9
1573324812031258,-24,-18,2,7,-6,0,-2,-5
1573324812031258,-6,18,4,-1,5,4,1,-1
1573324812040183,33,16,0,9,-3,1,4,3
1573324812040183,-31,-20,-2,13,-1,-3,-1,5
1573324812054688,12,-19,1,-6,-5,-2,-4,-14
1573324812054688,7,16,7,7,3,-1,-2,6
1573324812062647,1,-1,-1,-3,-1,0,-4,-6
1573324812062647,4,-5,-3,-10,-8,0,3,6
1573324812077745,-12,3,4,7,11,1,0,-7
1573324812077745,1,-9,-2,-4,-3,-2,-1,-16
1573324812079688,-14,18,3,-2,0,-1,-1,-13
1573324812079688,5,-39,-14,-9,-3,-1,-3,13
1573324812091405,16,7,4,-7,-3,-4,-3,18
1573324812091405,-41,-10,-1,5,1,-1,0,21
1573324812100334,28,-22,-2,1,0,-1,-3,-11
1573324812100334,24,22,-3,-22,0,-2,-3,-5
1573324812115807,-13,-8,-6,10,-2,-2,-1,-9
1573324812115807,9,-14,5,-9,-2,-1,3,6
1573324812116780,22,37,4,3,6,1,-3,11
1573324812116780,12,5,-1,4,4,1,0,-12
1573324812145331,-35,-38,3,2,8,1,-2,-8
1573324812145331,23,47,1,-5,-4,0,1,-15
1573324812147035,-11,-59,-8,2,4,-1,0,2
1573324812147035,6,5,-2,-3,-3,0,0,4
1573324812150937,-18,1,-1,1,-1,0,1,5
1573324812150937,-11,-1,-3,0,-2,-1,0,6
1573324812160707,8,29,1,-4,-1,-2,-1,8
1573324812160707,-28,4,2,3,-3,-2,0,10
1573324812175450,51,13,-1,-2,-5,0,1,-6
1573324812175450,-76,-31,-10,-1,-1,-1,0,-14
1573324812176318,29,-24,2,3,5,-1,-1,2
1573324812176318,18,-5,0,1,-1,1,5,8
1573324812204715,-11,21,2,-4,0,-1,1,1
1573324812204715,23,-5,-2,-2,-6,-1,-1,5
1573324812206667,-33,9,1,2,-4,-1,1,5
1573324812206667,-10,-4,0,1,0,-1,0,-11
1573324812211546,7,-15,-6,-5,-2,1,4,11
1573324812211546,5,-2,0,3,-2,0,-1,-6
1573324812220337,-7,14,1,-4,-4,-2,-2,-2
1573324812220337,7,28,3,4,1,0,-1,2
1573324812235110,27,-8,-5,-5,-4,-1,0,9
1573324812235110,-34,-6,9,14,4,0,0,-5
1573324812236921,-1,-6,-1,-1,-1,-1,-1,-1
1573324812236921,-4,5,-4,-1,-1,0,1,0
1573324812257423,-6,4,0,-7,-1,-3,-10,-3
1573324812257423,22,5,3,-2,1,0,-2,5
1573324812259646,-9,2,-3,-2,-5,-1,3,-3
1573324812259646,-11,-8,-6,-3,-1,-1,-8,-1
1573324812271086,-8,-8,-1,2,-3,2,1,-2
1573324812271086,28,9,-4,-4,-1,-2,1,-8
1573324812280697,-18,5,1,3,0,0,-4,7
1573324812280697,14,-7,-3,-4,-4,-3,3,2
1573324812295766,-7,-6,-1,0,0,-1,-1,-10
1573324812295766,3,4,1,2,1,1,-2,18
1573324812296323,-3,17,-3,-6,-2,0,5,24
1573324812296323,-6,-22,0,1,-1,-1,6,14
1573324812318080,-3,0,1,1,-1,0,-3,12
1573324812318080,-13,-2,-3,-1,-1,1,2,0
1573324812319737,15,4,-2,0,-2,-2,4,-2
1573324812319737,1,23,-8,-3,0,0,-1,12
1573324812331577,10,-33,11,1,-4,-3,5,-13
1573324812331577,-11,7,-1,-3,0,-3,1,-7
1573324812340243,-2,-6,5,5,2,3,-3,-11
1573324812340243,-4,-4,-6,-3,0,-2,-5,-21
1573324812355171,-17,1,-10,-5,-2,-2,-2,-6
1573324812355171,20,3,-7,-2,-4,-1,-3,7
1573324812356830,-3,-13,-14,-5,-4,-3,-7,-23
1573324812356830,-1,-1,0,-1,-2,-1,-3,-11
1573324812376356,-10,17,4,0,1,-3,0,-2
1573324812376356,17,-32,-4,-1,-2,0,-6,-9
1573324812385456,-6,8,1,0,-1,0,-1,-6
1573324812385456,-10,-2,6,3,-1,1,-2,11
1573324812391474,5,5,-2,1,-1,0,-3,9
1573324812391474,5,5,-5,-1,-2,-1,-2,2
1573324812400092,-19,-15,-3,-9,-2,-1,10,-6
1573324812400092,-3,-2,-1,14,-6,-1,5,-2
1573324812415717,-4,-5,3,-4,-3,-3,-10,1
1573324812415717,8,13,6,3,4,1,3,1
1573324812416689,-5,-3,-2,1,-2,-2,-1,1
1573324812416689,-4,-4,1,-5,-1,0,5,-11
1573324812438156,1,2,-7,-3,1,1,6,-7
1573324812438156,4,1,4,3,-1,-1,-5,5
1573324812439133,4,-2,1,1,-2,-2,-4,20
1573324812439133,-9,-6,0,-5,1,-4,-3,-26
1573324812451820,7,1,-4,3,0,2,-7,3
1573324812451820,4,4,-2,-4,-2,0,-1,-5
1573324812460603,-2,-3,-3,-3,-3,-2,-4,-14
1573324812460603,0,10,18,1,2,-1,-3,-13
1573324812483218,-15,-7,1,7,6,2,4,-10
1573324812483218,-5,-6,-5,-5,-3,0,-3,-17
1573324812484031,3,4,1,0,2,0,-4,-7
1573324812484031,2,4,-3,2,-1,-3,-13,7
1573324812497876,3,3,4,2,1,0,0,6
1573324812497876,-12,-9,-3,-14,-4,-1,21,21
1573324812499645,45,9,3,11,5,6,15,8
1573324812499645,-32,-2,-6,-4,1,2,6,-6
1573324812511523,8,-1,-5,1,-1,-10,-27,-6
1573324812511523,1,2,2,-4,-3,-5,1,6
1573324812520141,-4,1,0,-2,-2,0,-17,18
1573324812520141,-6,-13,-7,-2,1,6,21,6
1573324812533802,0,6,0,-6,-1,4,24,5
1573324812533802,2,3,2,6,5,4,11,-16
1573324812542587,-12,3,6,2,2,-1,12,22
1573324812542587,14,15,-1,-3,-3,-4,-7,-13
1573324812558209,-11,-24,-6,-2,-3,-7,-38,-10
1573324812558209,-2,-4,-4,3,1,-4,26,-25
1573324812559179,1,0,-1,3,2,0,-16,-5
1573324812559179,7,-7,-1,-8,-2,0,-1,9
1573324812571877,4,22,-4,-3,-2,2,19,-3
1573324812571877,1,-12,5,1,4,2,-7,5
1573324812580071,0,4,0,-1,-1,-4,0,-12
1573324812580071,-1,-8,5,4,1,-2,-1,9
1573324812594889,-1,3,-6,-7,-7,-2,-2,-28
1573324812594889,20,2,2,-3,1,-3,-27,30
1573324812601499,-22,-4,-3,6,-1,0,2,37
1573324812601499,-7,-4,-6,0,-1,1,15,-54
1573324812618386,2,15,10,2,-1,2,21,21
1573324812618386,3,-4,1,3,0,0,-12,8
1573324812619792,4,-9,-5,-4,0,0,-16,24
1573324812619792,11,2,1,2,2,0,-27,6
1573324812631753,-7,-12,-13,-7,-4,-1,5,-1
1573324812631753,-11,-4,-7,-20,-1,-3,-7,-7
1573324812640536,-1,7,12,18,0,-1,16,-33
1573324812640536,6,0,7,7,-1,-1,-7,18
1573324812654309,-3,1,-1,2,0,-1,6,-2
1573324812654309,2,15,10,3,-7,0,7,1
1573324812661032,-10,-26,-7,-10,1,2,-6,-28
1573324812661032,11,4,-2,-3,3,-1,1,29
1573324812677624,3,-3,4,3,2,3,8,11
1573324812677624,-8,12,-2,1,-4,-8,-34,-15
1573324812679240,3,1,-4,-10,-6,-6,14,-7
1573324812679240,-5,-6,-5,4,-3,-1,-14,2
1573324812700722,-2,-12,-4,-5,0,0,3,-40
1573324812700722,-2,21,13,10,1,1,3,16
1573324812702674,-9,-6,1,-2,1,-4,-17,-25
1573324812702674,-3,-7,-8,-10,-3,0,21,6
1573324812714385,6,-7,-3,0,1,-3,-30,-18
1573324812714385,23,2,-1,6,4,9,1,93
1573324812721265,-7,4,-3,-14,-2,-1,3,-41
1573324812721265,4,1,7,14,-8,-2,0,1
1573324812737808,-2,4,2,3,3,2,2,-8
1573324812737808,-6,-6,-5,-1,-4,0,12,-36
1573324812738784,9,6,-3,-3,-2,4,1,19
1573324812738784,-4,-9,-4,-11,2,-2,-8,-8
1573324812760256,4,7,3,-1,-2,-1,10,21
1573324812760256,2,0,2,6,1,1,8,-7
1573324812762207,1,0,0,-2,-2,-3,-6,9
1573324812762207,-7,4,1,-1,0,-4,-8,-37
1573324812774895,2,-4,-4,1,-1,0,-1,71
1573324812774895,-1,0,-4,-4,-1,-1,22,-12
1573324812781727,7,12,2,-2,-2,-4,-16,-3
1573324812781727,-1,-14,4,1,1,2,-3,-20
1573324812797349,-3,2,-1,-1,1,-2,-4,-2
1573324812797349,-10,-22,-8,-2,1,1,-4,-65
1573324812799304,6,14,4,6,2,4,0,61
1573324812799304,1,13,1,-3,-1,-2,-8,-2
1573324812819797,1,-4,0,-1,0,-1,3,-6
1573324812819797,-8,-4,-5,-3,-1,-2,1,-26
1573324812821746,-1,1,2,2,-3,-3,-7,-32
1573324812821746,4,-3,-3,-4,0,2,7,14
1573324812834439,-1,0,3,1,-4,0,1,2
1573324812834439,0,2,-2,1,0,0,-6,15
1573324812841268,-5,-7,-1,1,-1,-1,6,-13
1573324812841268,2,-2,-2,-2,1,0,1,21
1573324812858079,0,0,2,-1,-1,-1,0,-3
1573324812858079,-7,-3,-1,2,0,-3,-13,-10
1573324812859810,-2,-2,-4,-3,-3,-1,8,-34
1573324812859810,0,2,-1,-2,0,-1,2,15
1573324812880159,1,3,1,-1,-1,-4,-8,-35
1573324812880159,7,0,2,4,1,0,-14,104
1573324812881873,9,4,-3,0,2,3,7,37
1573324812881873,15,-7,8,6,4,3,-6,91
1573324812893585,-4,4,3,2,-1,2,-2,-54
1573324812893585,-4,1,-3,-3,-4,-3,-1,-59
1573324812903345,-6,-14,-2,-4,-1,-2,6,-56
1573324812903345,-4,4,-7,-4,-3,-2,-4,-1
1573324812918039,-6,-4,-2,-3,2,-3,2,-52
1573324812918039,7,5,4,2,1,1,1,98
1573324812919691,0,1,-2,-4,-3,1,8,42
1573324812919691,4,2,4,3,-5,-11,-10,46
1573324812940436,0,-7,-2,0,-1,2,2,71
1573324812940436,7,4,1,0,-1,0,-2,-21
1573324812941619,-2,-2,-1,0,-3,-2,-3,-17
1573324812941619,-3,-3,-2,-2,2,1,3,-44
1573324812954097,5,6,1,0,-2,0,-2,4
1573324812954097,-5,-6,-3,0,1,0,-2,-11
1573324812962880,-6,-4,0,-2,0,-1,-3,-17
1573324812962880,-5,-1,-4,-2,-1,-1,4,-41
1573324812977667,4,3,-1,-1,-1,-1,0,35
1573324812977667,-5,-4,-4,-5,-2,1,3,-43
1573324812979473,-1,4,0,-1,-1,-2,-8,-42
1573324812979473,1,0,-1,2,2,2,5,50
1573324813000405,0,1,1,-2,0,2,9,-30
1573324813000405,5,-1,6,3,-1,-4,-4,27
1573324813001336,-9,-8,-8,-4,1,4,3,-55
1573324813001336,-1,5,2,1,-2,-5,-13,12
1573324813015002,8,-1,1,3,2,2,2,88
1573324813015002,-3,-2,-3,-2,0,0,0,-29
1573324813021834,7,-1,-2,1,-2,-2,-7,0
1573324813021834,-3,0,-3,-4,-2,1,2,3
1573324813038419,-6,-8,-1,2,-1,0,0,26
1573324813038419,3,0,-3,-1,1,-2,1,7
1573324813039417,-4,0,3,2,0,-2,-9,22
1573324813039417,-15,-9,-7,-4,-2,2,-1,-55
1573324813059894,0,4,1,0,-1,-2,-9,-24
1573324813059894,-6,-2,-2,-3,-1,-1,2,-9
1573324813061844,-3,0,0,2,2,-1,3,-8
1573324813061844,2,0,3,0,-1,-2,7,-29
1573324813073557,1,0,-1,-1,-1,-4,-10,7
1573324813073557,-10,-4,0,2,-2,0,-5,-58
